{
  "AcquisitionMatrixPE": 96,
  "AcquisitionNumber": 1,
  "AcquisitionTime": "13:38:28.522500",
  "BandwidthPerPixelPhaseEncode": 18.939,
  "BaseResolution": 96,
  "BodyPartExamined": "BRAIN",
  "ConsistencyInfo": "N4_VE11C_LATEST_20160120",
  "ConversionSoftware": "dcm2niix",
  "ConversionSoftwareVersion": "v1.0.20170923 (OpenJPEG build) GCC6.3.0",
  "DerivedVendorReportedEchoSpacing": 0.000550011,
  "DeviceSerialNumber": "66112",
  "DwellTime": 2.3e-06,
  "EchoTime": 0.033,
  "EchoTrainLength": 96,
  "EffectiveEchoSpacing": 0.000550011,
  "FlipAngle": 64,
  "ImageType": [
    "ORIGINAL",
    "PRIMARY",
    "FMRI",
    "NONE",
    "ND",
    "NORM",
    "MOSAIC"
],
  "InstitutionAddress": "Maynard_3_Hanover_NH_US_03755",
  "InstitutionName": "Dartmouth_College_-_PBS",
  "MagneticFieldStrength": 3,
  "Manufacturer": "Siemens",
  "ManufacturersModelName": "Prisma",
  "Modality": "MR",
  "MultibandAccelerationFactor": 4,
  "PartialFourier": 1,
  "PercentPhaseFOV": 100,
  "PhaseEncodingDirection": "j-",
  "PhaseEncodingSteps": 96,
  "PhaseResolution": 1,
  "ProcedureStepDescription": "Gobbini_Matteo_1017_famface-angles",
  "ProtocolName": "func_run-05_task-str1back",
  "PulseSequenceDetails": "%SiemensSeq%_ep2d_bold",
  "ReceiveCoilActiveElements": "HEA;HEP",
  "ReceiveCoilName": "Head_32",
  "ReconMatrixPE": 96,
  "RepetitionTime": 1.25,
  "ScanOptions": "FS",
  "ScanningSequence": "EP",
  "SequenceName": "_epfid2d1_96",
  "SequenceVariant": "SK",
  "SeriesDescription": "func_run-05_task-str1back",
  "SliceTiming": [0.8775, 0, 0.615, 0.0875, 0.7025, 0.175, 0.79, 0.3525, 0.9675, 0.44, 1.055, 0.5275, 1.1425, 0.2625, 0.8775, 0, 0.615, 0.0875, 0.7025, 0.175, 0.79, 0.3525, 0.9675, 0.44, 1.055, 0.5275, 1.1425, 0.2625, 0.8775, 0, 0.615, 0.0875, 0.7025, 0.175, 0.79, 0.3525, 0.9675, 0.44, 1.055, 0.5275, 1.1425, 0.2625, 0.8775, 0, 0.615, 0.0875, 0.7025, 0.175, 0.79, 0.3525, 0.9675, 0.44, 1.055, 0.5275, 1.1425, 0.2625],
  "SoftwareVersions": "syngo_MR_E11",
  "StationName": "AWP66112",
  "TaskName": "str1back",
  "TotalReadoutTime": 0.0522511,
  "dcmmeta_affine": [
    [-2.499156951904297, 0.04187772050499916, 0.049612049013376236, 117.02059936523438],
    [0.04529701918363571, 2.4933016300201416, 0.17718617618083954, -103.81905364990234],
    [0.04651105776429176, -0.17802533507347107, 2.4932196140289307, -49.475120544433594],
    [0.0, 0.0, 0.0, 1.0]
],
  "dcmmeta_reorient_transform": [
    [0.0, -1.0, 0.0, 95.0],
    [1.0, 0.0, 0.0, 0.0],
    [0.0, 0.0, 1.0, 0.0],
    [0.0, 0.0, 0.0, 1.0]
],
  "dcmmeta_shape": [96, 96, 56, 280],
  "dcmmeta_slice_dim": 2,
  "dcmmeta_version": 0.6,
  "global": {
    "const": {
      "AccessionNumber": "A000475",
      "AcquisitionMatrix": [96, 0, 0, 96],
      "AngioFlag": "N",
      "BitsAllocated": 16,
      "BitsStored": 12,
      "BodyPartExamined": "BRAIN",
      "Columns": 768,
      "EchoNumbers": 1,
      "EchoTime": 33.0,
      "EchoTrainLength": 96,
      "FlipAngle": 64.0,
      "HighBit": 11,
      "ImageOrientationPatient": [0.99966273523177, -0.0181188079905, 0.01860442382742, 0.01675108778807, 0.99732066965265, 0.0712101322953],
      "ImagePositionPatient": [-974.78659558427, -955.57416767361, -141.83175323573],
      "ImageType": [
        "ORIGINAL",
        "PRIMARY",
        "FMRI",
        "NONE",
        "ND",
        "NORM",
        "MOSAIC"
],
      "ImagedNucleus": "1H",
      "ImagingFrequency": 123.252344,
      "InPlanePhaseEncodingDirection": "COL",
      "MRAcquisitionType": "2D",
      "MagneticFieldStrength": 3.0,
      "Manufacturer": "SIEMENS",
      "ManufacturerModelName": "Prisma",
      "Modality": "MR",
      "NumberOfAverages": 1.0,
      "NumberOfPhaseEncodingSteps": 96,
      "PercentPhaseFieldOfView": 100.0,
      "PercentSampling": 100.0,
      "PerformedProcedureStepStartTime": "125733.118000",
      "PhotometricInterpretation": "MONOCHROME2",
      "PixelBandwidth": 2265.0,
      "PixelRepresentation": 0,
      "PixelSpacing": [2.5, 2.5],
      "PositionReferenceIndicator": "",
      "ProtocolName": "func_run-05_task-str1back",
      "RepetitionTime": 1250.0,
      "Rows": 768,
      "SAR": 0.04751719512306,
      "SamplesPerPixel": 1,
      "ScanOptions": "FS",
      "ScanningSequence": "EP",
      "SequenceName": "*epfid2d1_96",
      "SequenceVariant": "SK",
      "SeriesDescription": "func_run-05_task-str1back",
      "SeriesNumber": 36,
      "SeriesTime": "133830.090000",
      "SliceLocation": -54.376802140585,
      "SliceThickness": 2.5,
      "SmallestImagePixelValue": 0,
      "SoftwareVersions": "syngo MR E11",
      "SpacingBetweenSlices": 2.5000000027805,
      "SpecificCharacterSet": "ISO_IR 100",
      "StudyID": "2",
      "StudyTime": "125733.025000",
      "TransmitCoilName": "Body",
      "VariableFlipAngleFlag": "N",
      "WindowCenterWidthExplanation": "Algo1",
      "dBdt": 0.0},
    "slices": {}
  },
  "time": {
    "samples": {
      "AcquisitionNumber": [1, 2, 3, 4, 5, 6, 7, 8, 9, 10, 11, 12, 13, 14, 15, 16, 17, 18, 19, 20, 21, 22, 23, 24, 25, 26, 27, 28, 29, 30, 31, 32, 33, 34, 35, 36, 37, 38, 39, 40, 41, 42, 43, 44, 45, 46, 47, 48, 49, 50, 51, 52, 53, 54, 55, 56, 57, 58, 59, 60, 61, 62, 63, 64, 65, 66, 67, 68, 69, 70, 71, 72, 73, 74, 75, 76, 77, 78, 79, 80, 81, 82, 83, 84, 85, 86, 87, 88, 89, 90, 91, 92, 93, 94, 95, 96, 97, 98, 99, 100, 101, 102, 103, 104, 105, 106, 107, 108, 109, 110, 111, 112, 113, 114, 115, 116, 117, 118, 119, 120, 121, 122, 123, 124, 125, 126, 127, 128, 129, 130, 131, 132, 133, 134, 135, 136, 137, 138, 139, 140, 141, 142, 143, 144, 145, 146, 147, 148, 149, 150, 151, 152, 153, 154, 155, 156, 157, 158, 159, 160, 161, 162, 163, 164, 165, 166, 167, 168, 169, 170, 171, 172, 173, 174, 175, 176, 177, 178, 179, 180, 181, 182, 183, 184, 185, 186, 187, 188, 189, 190, 191, 192, 193, 194, 195, 196, 197, 198, 199, 200, 201, 202, 203, 204, 205, 206, 207, 208, 209, 210, 211, 212, 213, 214, 215, 216, 217, 218, 219, 220, 221, 222, 223, 224, 225, 226, 227, 228, 229, 230, 231, 232, 233, 234, 235, 236, 237, 238, 239, 240, 241, 242, 243, 244, 245, 246, 247, 248, 249, 250, 251, 252, 253, 254, 255, 256, 257, 258, 259, 260, 261, 262, 263, 264, 265, 266, 267, 268, 269, 270, 271, 272, 273, 274, 275, 276, 277, 278, 279, 280],
      "AcquisitionTime": ["133828.522500", "133829.772500", "133831.022500", "133832.272500", "133833.522500", "133834.772500", "133836.022500", "133837.272500", "133838.522500", "133839.772500", "133841.022500", "133842.272500", "133843.522500", "133844.772500", "133846.022500", "133847.272500", "133848.522500", "133849.772500", "133851.022500", "133852.272500", "133853.522500", "133854.772500", "133856.022500", "133857.272500", "133858.522500", "133859.772500", "133901.022500", "133902.272500", "133903.522500", "133904.772500", "133906.022500", "133907.272500", "133908.522500", "133909.772500", "133911.022500", "133912.272500", "133913.522500", "133914.772500", "133916.022500", "133917.272500", "133918.522500", "133919.772500", "133921.022500", "133922.272500", "133923.522500", "133924.772500", "133926.022500", "133927.272500", "133928.522500", "133929.772500", "133931.022500", "133932.272500", "133933.522500", "133934.772500", "133936.022500", "133937.272500", "133938.522500", "133939.772500", "133941.022500", "133942.272500", "133943.522500", "133944.772500", "133946.022500", "133947.272500", "133948.522500", "133949.772500", "133951.022500", "133952.272500", "133953.522500", "133954.772500", "133956.022500", "133957.272500", "133958.522500", "133959.772500", "134001.022500", "134002.272500", "134003.522500", "134004.772500", "134006.022500", "134007.272500", "134008.522500", "134009.772500", "134011.022500", "134012.272500", "134013.522500", "134014.772500", "134016.022500", "134017.272500", "134018.522500", "134019.772500", "134021.022500", "134022.272500", "134023.522500", "134024.772500", "134026.022500", "134027.272500", "134028.522500", "134029.772500", "134031.022500", "134032.272500", "134033.522500", "134034.772500", "134036.022500", "134037.272500", "134038.522500", "134039.772500", "134041.022500", "134042.272500", "134043.522500", "134044.772500", "134046.022500", "134047.272500", "134048.522500", "134049.772500", "134051.022500", "134052.272500", "134053.522500", "134054.772500", "134056.022500", "134057.272500", "134058.522500", "134059.772500", "134101.022500", "134102.272500", "134103.522500", "134104.772500", "134106.022500", "134107.272500", "134108.522500", "134109.772500", "134111.022500", "134112.272500", "134113.522500", "134114.772500", "134116.022500", "134117.272500", "134118.522500", "134119.772500", "134121.022500", "134122.272500", "134123.522500", "134124.772500", "134126.022500", "134127.272500", "134128.522500", "134129.772500", "134131.022500", "134132.272500", "134133.522500", "134134.772500", "134136.022500", "134137.272500", "134138.522500", "134139.772500", "134141.022500", "134142.272500", "134143.522500", "134144.772500", "134146.022500", "134147.272500", "134148.522500", "134149.772500", "134151.022500", "134152.272500", "134153.522500", "134154.772500", "134156.022500", "134157.272500", "134158.522500", "134159.772500", "134201.022500", "134202.272500", "134203.522500", "134204.772500", "134206.022500", "134207.272500", "134208.522500", "134209.772500", "134211.022500", "134212.272500", "134213.522500", "134214.772500", "134216.022500", "134217.272500", "134218.522500", "134219.772500", "134221.022500", "134222.272500", "134223.522500", "134224.772500", "134226.022500", "134227.272500", "134228.522500", "134229.772500", "134231.022500", "134232.272500", "134233.522500", "134234.772500", "134236.022500", "134237.272500", "134238.522500", "134239.772500", "134241.022500", "134242.272500", "134243.522500", "134244.772500", "134246.022500", "134247.272500", "134248.522500", "134249.772500", "134251.022500", "134252.272500", "134253.522500", "134254.772500", "134256.022500", "134257.272500", "134258.522500", "134259.772500", "134301.022500", "134302.272500", "134303.522500", "134304.772500", "134306.022500", "134307.272500", "134308.522500", "134309.772500", "134311.022500", "134312.272500", "134313.522500", "134314.772500", "134316.022500", "134317.272500", "134318.522500", "134319.772500", "134321.022500", "134322.272500", "134323.522500", "134324.772500", "134326.022500", "134327.272500", "134328.522500", "134329.772500", "134331.022500", "134332.272500", "134333.522500", "134334.772500", "134336.022500", "134337.272500", "134338.522500", "134339.772500", "134341.022500", "134342.272500", "134343.522500", "134344.772500", "134346.022500", "134347.272500", "134348.522500", "134349.772500", "134351.022500", "134352.272500", "134353.522500", "134354.772500", "134356.022500", "134357.272500", "134358.522500", "134359.772500", "134401.022500", "134402.272500", "134403.522500", "134404.772500", "134406.022500", "134407.272500", "134408.522500", "134409.772500", "134411.022500", "134412.272500", "134413.522500", "134414.772500", "134416.022500", "134417.272500"],
      "ContentTime": ["133830.094000", "133831.138000", "133832.360000", "133833.639000", "133834.820000", "133836.118000", "133837.350000", "133838.662000", "133839.874000", "133841.126000", "133842.349000", "133843.586000", "133844.880000", "133846.103000", "133847.364000", "133848.588000", "133849.847000", "133851.100000", "133852.357000", "133853.622000", "133854.859000", "133856.091000", "133857.346000", "133858.605000", "133859.864000", "133901.109000", "133902.362000", "133903.598000", "133904.827000", "133906.091000", "133907.365000", "133908.601000", "133909.888000", "133911.160000", "133912.353000", "133913.620000", "133914.854000", "133916.091000", "133917.348000", "133918.606000", "133919.863000", "133921.064000", "133922.344000", "133923.630000", "133924.878000", "133926.103000", "133927.317000", "133928.617000", "133929.875000", "133931.142000", "133932.432000", "133933.608000", "133934.864000", "133936.125000", "133937.360000", "133938.608000", "133939.894000", "133941.116000", "133942.335000", "133943.604000", "133944.890000", "133946.186000", "133947.386000", "133948.609000", "133949.851000", "133951.109000", "133952.335000", "133953.618000", "133954.837000", "133956.098000", "133957.428000", "133958.597000", "133959.830000", "134001.125000", "134002.363000", "134003.589000", "134004.846000", "134006.111000", "134007.323000", "134008.600000", "134009.861000", "134011.078000", "134012.332000", "134013.588000", "134014.853000", "134016.097000", "134017.362000", "134018.614000", "134019.840000", "134021.134000", "134022.334000", "134023.603000", "134024.865000", "134026.109000", "134027.352000", "134028.612000", "134029.861000", "134031.188000", "134032.351000", "134033.618000", "134034.856000", "134036.139000", "134037.362000", "134038.606000", "134039.917000", "134041.137000", "134042.379000", "134043.616000", "134044.853000", "134046.124000", "134047.345000", "134048.606000", "134049.862000", "134051.122000", "134052.362000", "134053.604000", "134054.909000", "134056.095000", "134057.363000", "134058.629000", "134059.816000", "134101.105000", "134102.362000", "134103.618000", "134104.873000", "134106.120000", "134107.342000", "134108.610000", "134109.856000", "134111.077000", "134112.355000", "134113.617000", "134114.871000", "134116.116000", "134117.425000", "134118.662000", "134119.878000", "134121.108000", "134122.365000", "134123.600000", "134124.890000", "134126.082000", "134127.381000", "134128.609000", "134129.866000", "134131.092000", "134132.334000", "134133.600000", "134134.832000", "134136.122000", "134137.347000", "134138.593000", "134139.862000", "134141.123000", "134142.360000", "134143.601000", "134144.864000", "134146.146000", "134147.360000", "134148.604000", "134149.853000", "134151.127000", "134152.356000", "134153.594000", "134154.856000", "134156.135000", "134157.395000", "134158.635000", "134159.876000", "134201.098000", "134202.366000", "134203.597000", "134204.858000", "134206.104000", "134207.354000", "134208.621000", "134209.901000", "134211.107000", "134212.386000", "134213.623000", "134214.866000", "134216.116000", "134217.364000", "134218.619000", "134219.866000", "134221.092000", "134222.375000", "134223.618000", "134224.862000", "134226.128000", "134227.358000", "134228.675000", "134229.897000", "134231.102000", "134232.365000", "134233.603000", "134234.897000", "134236.145000", "134237.376000", "134238.607000", "134239.888000", "134241.139000", "134242.361000", "134243.644000", "134244.893000", "134246.141000", "134247.393000", "134248.604000", "134249.871000", "134251.121000", "134252.367000", "134253.623000", "134254.916000", "134256.108000", "134257.360000", "134258.599000", "134259.850000", "134301.116000", "134302.366000", "134303.601000", "134304.827000", "134306.107000", "134307.356000", "134308.609000", "134309.847000", "134311.111000", "134312.358000", "134313.579000", "134314.885000", "134316.136000", "134317.352000", "134318.600000", "134319.862000", "134321.107000", "134322.363000", "134323.602000", "134324.852000", "134326.094000", "134327.347000", "134328.640000", "134329.878000", "134331.100000", "134332.363000", "134333.619000", "134334.865000", "134336.116000", "134337.373000", "134338.635000", "134339.881000", "134341.113000", "134342.365000", "134343.589000", "134344.844000", "134346.098000", "134347.366000", "134348.610000", "134349.853000", "134351.106000", "134352.369000", "134353.615000", "134354.876000", "134356.104000", "134357.371000", "134358.577000", "134359.856000", "134401.105000", "134402.363000", "134403.640000", "134404.858000", "134406.105000", "134407.392000", "134408.593000", "134409.870000", "134411.134000", "134412.372000", "134413.659000", "134414.876000", "134416.106000", "134417.398000", "134418.679000"],
      "InstanceCreationTime": ["133830.094000", "133831.138000", "133832.360000", "133833.639000", "133834.820000", "133836.118000", "133837.350000", "133838.662000", "133839.874000", "133841.126000", "133842.349000", "133843.586000", "133844.880000", "133846.103000", "133847.364000", "133848.588000", "133849.847000", "133851.100000", "133852.357000", "133853.622000", "133854.859000", "133856.091000", "133857.346000", "133858.605000", "133859.864000", "133901.109000", "133902.362000", "133903.598000", "133904.827000", "133906.091000", "133907.365000", "133908.601000", "133909.888000", "133911.160000", "133912.353000", "133913.620000", "133914.854000", "133916.091000", "133917.348000", "133918.606000", "133919.863000", "133921.064000", "133922.344000", "133923.630000", "133924.878000", "133926.103000", "133927.317000", "133928.617000", "133929.875000", "133931.142000", "133932.432000", "133933.608000", "133934.864000", "133936.125000", "133937.360000", "133938.608000", "133939.894000", "133941.116000", "133942.335000", "133943.604000", "133944.890000", "133946.186000", "133947.386000", "133948.609000", "133949.851000", "133951.109000", "133952.335000", "133953.618000", "133954.837000", "133956.098000", "133957.428000", "133958.597000", "133959.830000", "134001.125000", "134002.363000", "134003.589000", "134004.846000", "134006.111000", "134007.323000", "134008.600000", "134009.861000", "134011.078000", "134012.332000", "134013.588000", "134014.853000", "134016.097000", "134017.362000", "134018.614000", "134019.840000", "134021.134000", "134022.334000", "134023.603000", "134024.865000", "134026.109000", "134027.352000", "134028.612000", "134029.861000", "134031.188000", "134032.351000", "134033.618000", "134034.856000", "134036.139000", "134037.362000", "134038.606000", "134039.917000", "134041.137000", "134042.379000", "134043.616000", "134044.853000", "134046.124000", "134047.345000", "134048.606000", "134049.862000", "134051.122000", "134052.362000", "134053.604000", "134054.909000", "134056.095000", "134057.363000", "134058.629000", "134059.816000", "134101.105000", "134102.362000", "134103.618000", "134104.873000", "134106.120000", "134107.342000", "134108.610000", "134109.856000", "134111.077000", "134112.355000", "134113.617000", "134114.871000", "134116.116000", "134117.425000", "134118.662000", "134119.878000", "134121.108000", "134122.365000", "134123.600000", "134124.890000", "134126.082000", "134127.381000", "134128.609000", "134129.866000", "134131.092000", "134132.334000", "134133.600000", "134134.832000", "134136.122000", "134137.347000", "134138.593000", "134139.862000", "134141.123000", "134142.360000", "134143.601000", "134144.864000", "134146.146000", "134147.360000", "134148.604000", "134149.853000", "134151.127000", "134152.356000", "134153.594000", "134154.856000", "134156.135000", "134157.395000", "134158.635000", "134159.876000", "134201.098000", "134202.366000", "134203.597000", "134204.858000", "134206.104000", "134207.354000", "134208.621000", "134209.901000", "134211.107000", "134212.386000", "134213.623000", "134214.866000", "134216.116000", "134217.364000", "134218.619000", "134219.866000", "134221.092000", "134222.375000", "134223.618000", "134224.862000", "134226.128000", "134227.358000", "134228.675000", "134229.897000", "134231.102000", "134232.365000", "134233.603000", "134234.897000", "134236.145000", "134237.376000", "134238.607000", "134239.888000", "134241.139000", "134242.361000", "134243.644000", "134244.893000", "134246.141000", "134247.393000", "134248.604000", "134249.871000", "134251.121000", "134252.367000", "134253.623000", "134254.916000", "134256.108000", "134257.360000", "134258.599000", "134259.850000", "134301.116000", "134302.366000", "134303.601000", "134304.827000", "134306.107000", "134307.356000", "134308.609000", "134309.847000", "134311.111000", "134312.358000", "134313.579000", "134314.885000", "134316.136000", "134317.352000", "134318.600000", "134319.862000", "134321.107000", "134322.363000", "134323.602000", "134324.852000", "134326.094000", "134327.347000", "134328.640000", "134329.878000", "134331.100000", "134332.363000", "134333.619000", "134334.865000", "134336.116000", "134337.373000", "134338.635000", "134339.881000", "134341.113000", "134342.365000", "134343.589000", "134344.844000", "134346.098000", "134347.366000", "134348.610000", "134349.853000", "134351.106000", "134352.369000", "134353.615000", "134354.876000", "134356.104000", "134357.371000", "134358.577000", "134359.856000", "134401.105000", "134402.363000", "134403.640000", "134404.858000", "134406.105000", "134407.392000", "134408.593000", "134409.870000", "134411.134000", "134412.372000", "134413.659000", "134414.876000", "134416.106000", "134417.398000", "134418.679000"],
      "InstanceNumber": [1, 2, 3, 4, 5, 6, 7, 8, 9, 10, 11, 12, 13, 14, 15, 16, 17, 18, 19, 20, 21, 22, 23, 24, 25, 26, 27, 28, 29, 30, 31, 32, 33, 34, 35, 36, 37, 38, 39, 40, 41, 42, 43, 44, 45, 46, 47, 48, 49, 50, 51, 52, 53, 54, 55, 56, 57, 58, 59, 60, 61, 62, 63, 64, 65, 66, 67, 68, 69, 70, 71, 72, 73, 74, 75, 76, 77, 78, 79, 80, 81, 82, 83, 84, 85, 86, 87, 88, 89, 90, 91, 92, 93, 94, 95, 96, 97, 98, 99, 100, 101, 102, 103, 104, 105, 106, 107, 108, 109, 110, 111, 112, 113, 114, 115, 116, 117, 118, 119, 120, 121, 122, 123, 124, 125, 126, 127, 128, 129, 130, 131, 132, 133, 134, 135, 136, 137, 138, 139, 140, 141, 142, 143, 144, 145, 146, 147, 148, 149, 150, 151, 152, 153, 154, 155, 156, 157, 158, 159, 160, 161, 162, 163, 164, 165, 166, 167, 168, 169, 170, 171, 172, 173, 174, 175, 176, 177, 178, 179, 180, 181, 182, 183, 184, 185, 186, 187, 188, 189, 190, 191, 192, 193, 194, 195, 196, 197, 198, 199, 200, 201, 202, 203, 204, 205, 206, 207, 208, 209, 210, 211, 212, 213, 214, 215, 216, 217, 218, 219, 220, 221, 222, 223, 224, 225, 226, 227, 228, 229, 230, 231, 232, 233, 234, 235, 236, 237, 238, 239, 240, 241, 242, 243, 244, 245, 246, 247, 248, 249, 250, 251, 252, 253, 254, 255, 256, 257, 258, 259, 260, 261, 262, 263, 264, 265, 266, 267, 268, 269, 270, 271, 272, 273, 274, 275, 276, 277, 278, 279, 280],
      "LargestImagePixelValue": [911, 983, 818, 817, 796, 756, 802, 736, 753, 821, 771, 751, 818, 771, 801, 955, 799, 814, 849, 801, 834, 913, 762, 846, 921, 786, 887, 836, 790, 937, 789, 782, 869, 869, 795, 912, 943, 773, 799, 793, 793, 779, 767, 933, 848, 766, 851, 773, 813, 858, 829, 811, 849, 938, 780, 859, 1003, 802, 823, 939, 845, 796, 877, 772, 812, 844, 796, 777, 829, 825, 751, 876, 794, 778, 903, 809, 800, 927, 785, 831, 877, 798, 820, 835, 787, 809, 838, 784, 850, 937, 821, 842, 997, 783, 826, 985, 829, 851, 956, 840, 838, 890, 823, 816, 898, 788, 830, 922, 825, 767, 860, 798, 786, 871, 849, 769, 840, 896, 813, 778, 870, 778, 748, 816, 766, 789, 858, 880, 805, 831, 961, 793, 821, 1023, 792, 808, 898, 861, 793, 806, 841, 807, 741, 843, 793, 793, 835, 793, 802, 823, 893, 793, 839, 862, 863, 761, 941, 814, 783, 880, 773, 807, 864, 811, 818, 855, 900, 784, 832, 997, 811, 794, 857, 815, 803, 835, 920, 812, 791, 895, 788, 795, 910, 865, 801, 828, 862, 831, 763, 857, 804, 776, 830, 811, 810, 845, 903, 804, 876, 969, 816, 760, 932, 813, 836, 997, 836, 823, 961, 831, 825, 949, 842, 866, 890, 857, 806, 859, 805, 800, 901, 797, 785, 895, 795, 822, 876, 939, 861, 803, 812, 804, 832, 902, 815, 860, 935, 822, 816, 852, 875, 767, 983, 837, 767, 849, 797, 783, 954, 812, 812, 979, 815, 838, 914, 801, 835, 908, 854, 804, 896, 1030, 827, 848, 875, 820, 765, 953, 862, 814, 889, 782, 842, 853, 887, 811, 775, 873, 860, 807],
      "WindowCenter": [344.0, 344.0, 342.0, 342.0, 343.0, 343.0, 344.0, 343.0, 344.0, 345.0, 344.0, 344.0, 345.0, 345.0, 345.0, 347.0, 345.0, 345.0, 346.0, 345.0, 346.0, 347.0, 345.0, 347.0, 347.0, 345.0, 346.0, 345.0, 345.0, 346.0, 345.0, 345.0, 346.0, 345.0, 344.0, 345.0, 345.0, 343.0, 343.0, 344.0, 344.0, 344.0, 344.0, 346.0, 345.0, 344.0, 345.0, 344.0, 345.0, 346.0, 345.0, 346.0, 346.0, 347.0, 345.0, 346.0, 347.0, 345.0, 345.0, 346.0, 345.0, 345.0, 346.0, 345.0, 345.0, 345.0, 345.0, 345.0, 346.0, 345.0, 345.0, 346.0, 345.0, 345.0, 346.0, 345.0, 345.0, 346.0, 345.0, 345.0, 346.0, 345.0, 345.0, 346.0, 345.0, 345.0, 346.0, 345.0, 346.0, 346.0, 345.0, 345.0, 347.0, 345.0, 345.0, 347.0, 345.0, 346.0, 346.0, 345.0, 346.0, 346.0, 346.0, 346.0, 347.0, 345.0, 345.0, 346.0, 344.0, 343.0, 345.0, 344.0, 345.0, 346.0, 346.0, 345.0, 345.0, 346.0, 344.0, 344.0, 345.0, 345.0, 344.0, 345.0, 345.0, 345.0, 345.0, 346.0, 345.0, 345.0, 347.0, 345.0, 345.0, 347.0, 344.0, 344.0, 345.0, 344.0, 344.0, 344.0, 345.0, 344.0, 343.0, 344.0, 344.0, 344.0, 345.0, 345.0, 345.0, 345.0, 346.0, 345.0, 345.0, 345.0, 345.0, 344.0, 346.0, 345.0, 344.0, 345.0, 344.0, 345.0, 345.0, 345.0, 345.0, 345.0, 346.0, 344.0, 345.0, 347.0, 345.0, 345.0, 345.0, 345.0, 345.0, 345.0, 346.0, 345.0, 345.0, 346.0, 344.0, 345.0, 346.0, 345.0, 345.0, 345.0, 345.0, 345.0, 344.0, 345.0, 344.0, 344.0, 345.0, 345.0, 345.0, 346.0, 346.0, 345.0, 345.0, 346.0, 345.0, 345.0, 347.0, 345.0, 345.0, 347.0, 345.0, 344.0, 346.0, 345.0, 345.0, 346.0, 346.0, 345.0, 346.0, 346.0, 345.0, 346.0, 345.0, 345.0, 346.0, 345.0, 344.0, 346.0, 345.0, 345.0, 346.0, 346.0, 346.0, 345.0, 346.0, 346.0, 347.0, 346.0, 345.0, 346.0, 346.0, 345.0, 345.0, 346.0, 346.0, 345.0, 348.0, 346.0, 345.0, 346.0, 345.0, 345.0, 347.0, 345.0, 346.0, 347.0, 345.0, 346.0, 346.0, 344.0, 345.0, 346.0, 345.0, 345.0, 346.0, 347.0, 344.0, 344.0, 345.0, 345.0, 344.0, 347.0, 346.0, 345.0, 345.0, 343.0, 345.0, 345.0, 345.0, 345.0, 345.0, 346.0, 346.0, 345.0],
      "WindowWidth": [738.0, 737.0, 734.0, 734.0, 735.0, 736.0, 737.0, 736.0, 737.0, 739.0, 737.0, 738.0, 739.0, 739.0, 739.0, 742.0, 740.0, 739.0, 740.0, 740.0, 740.0, 742.0, 740.0, 742.0, 742.0, 739.0, 740.0, 739.0, 738.0, 741.0, 739.0, 739.0, 741.0, 739.0, 736.0, 738.0, 738.0, 735.0, 736.0, 736.0, 737.0, 737.0, 737.0, 740.0, 739.0, 737.0, 739.0, 737.0, 739.0, 740.0, 739.0, 740.0, 740.0, 741.0, 739.0, 740.0, 741.0, 738.0, 739.0, 740.0, 739.0, 739.0, 740.0, 738.0, 739.0, 739.0, 739.0, 739.0, 740.0, 740.0, 739.0, 740.0, 739.0, 739.0, 741.0, 738.0, 738.0, 740.0, 738.0, 739.0, 740.0, 738.0, 739.0, 740.0, 739.0, 740.0, 740.0, 740.0, 740.0, 741.0, 739.0, 739.0, 741.0, 738.0, 739.0, 742.0, 739.0, 739.0, 741.0, 739.0, 740.0, 741.0, 740.0, 741.0, 741.0, 739.0, 739.0, 740.0, 737.0, 736.0, 738.0, 738.0, 738.0, 741.0, 740.0, 739.0, 739.0, 740.0, 738.0, 737.0, 738.0, 738.0, 738.0, 739.0, 739.0, 738.0, 739.0, 740.0, 738.0, 739.0, 741.0, 738.0, 739.0, 741.0, 737.0, 737.0, 738.0, 737.0, 737.0, 737.0, 738.0, 737.0, 736.0, 738.0, 737.0, 737.0, 739.0, 738.0, 738.0, 739.0, 740.0, 738.0, 739.0, 739.0, 739.0, 738.0, 741.0, 738.0, 737.0, 738.0, 737.0, 738.0, 739.0, 738.0, 738.0, 739.0, 740.0, 737.0, 739.0, 741.0, 738.0, 738.0, 739.0, 738.0, 739.0, 739.0, 741.0, 739.0, 739.0, 740.0, 738.0, 738.0, 739.0, 739.0, 738.0, 739.0, 739.0, 739.0, 737.0, 739.0, 737.0, 737.0, 739.0, 739.0, 739.0, 740.0, 741.0, 738.0, 739.0, 741.0, 739.0, 739.0, 742.0, 740.0, 739.0, 741.0, 738.0, 738.0, 740.0, 739.0, 738.0, 740.0, 740.0, 739.0, 740.0, 740.0, 738.0, 740.0, 740.0, 739.0, 741.0, 739.0, 737.0, 740.0, 739.0, 739.0, 740.0, 741.0, 740.0, 740.0, 740.0, 740.0, 742.0, 741.0, 740.0, 740.0, 741.0, 738.0, 738.0, 740.0, 740.0, 739.0, 743.0, 740.0, 739.0, 741.0, 739.0, 740.0, 742.0, 740.0, 741.0, 742.0, 740.0, 740.0, 741.0, 738.0, 739.0, 740.0, 739.0, 738.0, 740.0, 741.0, 737.0, 738.0, 739.0, 738.0, 737.0, 742.0, 740.0, 738.0, 739.0, 736.0, 738.0, 739.0, 739.0, 739.0, 739.0, 741.0, 740.0, 739.0]
    },
    "slices": {}
  }
}