{
  "AcquisitionMatrixPE": 96,
  "AcquisitionNumber": 1,
  "AcquisitionTime": "14:18:30.070000",
  "BandwidthPerPixelPhaseEncode": 18.939,
  "BaseResolution": 96,
  "BodyPartExamined": "BRAIN",
  "ConsistencyInfo": "N4_VE11C_LATEST_20160120",
  "ConversionSoftware": "dcm2niix",
  "ConversionSoftwareVersion": "v1.0.20170923 (OpenJPEG build) GCC6.3.0",
  "DerivedVendorReportedEchoSpacing": 0.000550011,
  "DeviceSerialNumber": "66112",
  "DwellTime": 2.3e-06,
  "EchoTime": 0.033,
  "EchoTrainLength": 96,
  "EffectiveEchoSpacing": 0.000550011,
  "FlipAngle": 64,
  "ImageType": [
    "ORIGINAL",
    "PRIMARY",
    "FMRI",
    "NONE",
    "ND",
    "NORM",
    "MOSAIC"
],
  "InstitutionAddress": "Maynard_3_Hanover_NH_US_03755",
  "InstitutionName": "Dartmouth_College_-_PBS",
  "MagneticFieldStrength": 3,
  "Manufacturer": "Siemens",
  "ManufacturersModelName": "Prisma",
  "Modality": "MR",
  "MultibandAccelerationFactor": 4,
  "PartialFourier": 1,
  "PercentPhaseFOV": 100,
  "PhaseEncodingDirection": "j-",
  "PhaseEncodingSteps": 96,
  "PhaseResolution": 1,
  "ProcedureStepDescription": "Gobbini_Matteo_1017_famface-angles",
  "ProtocolName": "func_run-11_task-fam1back",
  "PulseSequenceDetails": "%SiemensSeq%_ep2d_bold",
  "ReceiveCoilActiveElements": "HEA;HEP",
  "ReceiveCoilName": "Head_32",
  "ReconMatrixPE": 96,
  "RepetitionTime": 1.25,
  "ScanOptions": "FS",
  "ScanningSequence": "EP",
  "SequenceName": "_epfid2d1_96",
  "SequenceVariant": "SK",
  "SeriesDescription": "func_run-11_task-fam1back",
  "SliceTiming": [0.8775, 0, 0.615, 0.0875, 0.7025, 0.175, 0.79, 0.35, 0.965, 0.4375, 1.0525, 0.5275, 1.1425, 0.2625, 0.8775, 0, 0.615, 0.0875, 0.7025, 0.175, 0.79, 0.35, 0.965, 0.4375, 1.0525, 0.5275, 1.1425, 0.2625, 0.8775, 0, 0.615, 0.0875, 0.7025, 0.175, 0.79, 0.35, 0.965, 0.4375, 1.0525, 0.5275, 1.1425, 0.2625, 0.8775, 0, 0.615, 0.0875, 0.7025, 0.175, 0.79, 0.35, 0.965, 0.4375, 1.0525, 0.5275, 1.1425, 0.2625],
  "SoftwareVersions": "syngo_MR_E11",
  "StationName": "AWP66112",
  "TaskName": "fam1back",
  "TotalReadoutTime": 0.0522511,
  "dcmmeta_affine": [
    [-2.499156951904297, 0.04187772050499916, 0.049612049013376236, 117.02059936523438],
    [0.04529701918363571, 2.4933016300201416, 0.17718617618083954, -103.81905364990234],
    [0.04651105776429176, -0.17802533507347107, 2.4932196140289307, -49.475120544433594],
    [0.0, 0.0, 0.0, 1.0]
],
  "dcmmeta_reorient_transform": [
    [0.0, -1.0, 0.0, 95.0],
    [1.0, 0.0, 0.0, 0.0],
    [0.0, 0.0, 1.0, 0.0],
    [0.0, 0.0, 0.0, 1.0]
],
  "dcmmeta_shape": [96, 96, 56, 280],
  "dcmmeta_slice_dim": 2,
  "dcmmeta_version": 0.6,
  "global": {
    "const": {
      "AccessionNumber": "A000475",
      "AcquisitionMatrix": [96, 0, 0, 96],
      "AngioFlag": "N",
      "BitsAllocated": 16,
      "BitsStored": 12,
      "BodyPartExamined": "BRAIN",
      "Columns": 768,
      "EchoNumbers": 1,
      "EchoTime": 33.0,
      "EchoTrainLength": 96,
      "FlipAngle": 64.0,
      "HighBit": 11,
      "ImageOrientationPatient": [0.99966273523177, -0.0181188079905, 0.01860442382742, 0.01675108778807, 0.99732066965265, 0.0712101322953],
      "ImagePositionPatient": [-974.78659558427, -955.57416767361, -141.83175323573],
      "ImageType": [
        "ORIGINAL",
        "PRIMARY",
        "FMRI",
        "NONE",
        "ND",
        "NORM",
        "MOSAIC"
],
      "ImagedNucleus": "1H",
      "ImagingFrequency": 123.252352,
      "InPlanePhaseEncodingDirection": "COL",
      "MRAcquisitionType": "2D",
      "MagneticFieldStrength": 3.0,
      "Manufacturer": "SIEMENS",
      "ManufacturerModelName": "Prisma",
      "Modality": "MR",
      "NumberOfAverages": 1.0,
      "NumberOfPhaseEncodingSteps": 96,
      "PercentPhaseFieldOfView": 100.0,
      "PercentSampling": 100.0,
      "PerformedProcedureStepStartTime": "125733.118000",
      "PhotometricInterpretation": "MONOCHROME2",
      "PixelBandwidth": 2265.0,
      "PixelRepresentation": 0,
      "PixelSpacing": [2.5, 2.5],
      "PositionReferenceIndicator": "",
      "ProtocolName": "func_run-11_task-fam1back",
      "RepetitionTime": 1250.0,
      "Rows": 768,
      "SAR": 0.04751719512306,
      "SamplesPerPixel": 1,
      "ScanOptions": "FS",
      "ScanningSequence": "EP",
      "SequenceName": "*epfid2d1_96",
      "SequenceVariant": "SK",
      "SeriesDescription": "func_run-11_task-fam1back",
      "SeriesNumber": 78,
      "SeriesTime": "141831.479000",
      "SliceLocation": -54.376802140585,
      "SliceThickness": 2.5,
      "SmallestImagePixelValue": 0,
      "SoftwareVersions": "syngo MR E11",
      "SpacingBetweenSlices": 2.5000000027805,
      "SpecificCharacterSet": "ISO_IR 100",
      "StudyID": "2",
      "StudyTime": "125733.025000",
      "TransmitCoilName": "Body",
      "VariableFlipAngleFlag": "N",
      "WindowCenterWidthExplanation": "Algo1",
      "dBdt": 0.0},
    "slices": {}
  },
  "time": {
    "samples": {
      "AcquisitionNumber": [1, 2, 3, 4, 5, 6, 7, 8, 9, 10, 11, 12, 13, 14, 15, 16, 17, 18, 19, 20, 21, 22, 23, 24, 25, 26, 27, 28, 29, 30, 31, 32, 33, 34, 35, 36, 37, 38, 39, 40, 41, 42, 43, 44, 45, 46, 47, 48, 49, 50, 51, 52, 53, 54, 55, 56, 57, 58, 59, 60, 61, 62, 63, 64, 65, 66, 67, 68, 69, 70, 71, 72, 73, 74, 75, 76, 77, 78, 79, 80, 81, 82, 83, 84, 85, 86, 87, 88, 89, 90, 91, 92, 93, 94, 95, 96, 97, 98, 99, 100, 101, 102, 103, 104, 105, 106, 107, 108, 109, 110, 111, 112, 113, 114, 115, 116, 117, 118, 119, 120, 121, 122, 123, 124, 125, 126, 127, 128, 129, 130, 131, 132, 133, 134, 135, 136, 137, 138, 139, 140, 141, 142, 143, 144, 145, 146, 147, 148, 149, 150, 151, 152, 153, 154, 155, 156, 157, 158, 159, 160, 161, 162, 163, 164, 165, 166, 167, 168, 169, 170, 171, 172, 173, 174, 175, 176, 177, 178, 179, 180, 181, 182, 183, 184, 185, 186, 187, 188, 189, 190, 191, 192, 193, 194, 195, 196, 197, 198, 199, 200, 201, 202, 203, 204, 205, 206, 207, 208, 209, 210, 211, 212, 213, 214, 215, 216, 217, 218, 219, 220, 221, 222, 223, 224, 225, 226, 227, 228, 229, 230, 231, 232, 233, 234, 235, 236, 237, 238, 239, 240, 241, 242, 243, 244, 245, 246, 247, 248, 249, 250, 251, 252, 253, 254, 255, 256, 257, 258, 259, 260, 261, 262, 263, 264, 265, 266, 267, 268, 269, 270, 271, 272, 273, 274, 275, 276, 277, 278, 279, 280],
      "AcquisitionTime": ["141830.070000", "141831.320000", "141832.570000", "141833.820000", "141835.070000", "141836.320000", "141837.570000", "141838.820000", "141840.070000", "141841.320000", "141842.570000", "141843.820000", "141845.070000", "141846.320000", "141847.570000", "141848.820000", "141850.070000", "141851.320000", "141852.570000", "141853.820000", "141855.070000", "141856.320000", "141857.570000", "141858.820000", "141900.070000", "141901.320000", "141902.570000", "141903.820000", "141905.070000", "141906.320000", "141907.570000", "141908.820000", "141910.070000", "141911.320000", "141912.570000", "141913.820000", "141915.070000", "141916.320000", "141917.570000", "141918.820000", "141920.070000", "141921.320000", "141922.570000", "141923.820000", "141925.070000", "141926.320000", "141927.570000", "141928.820000", "141930.070000", "141931.320000", "141932.570000", "141933.820000", "141935.070000", "141936.320000", "141937.570000", "141938.820000", "141940.070000", "141941.320000", "141942.570000", "141943.820000", "141945.070000", "141946.320000", "141947.570000", "141948.820000", "141950.070000", "141951.320000", "141952.570000", "141953.820000", "141955.070000", "141956.320000", "141957.570000", "141958.820000", "142000.070000", "142001.320000", "142002.570000", "142003.820000", "142005.070000", "142006.320000", "142007.570000", "142008.820000", "142010.070000", "142011.320000", "142012.570000", "142013.820000", "142015.070000", "142016.320000", "142017.570000", "142018.820000", "142020.070000", "142021.320000", "142022.570000", "142023.820000", "142025.070000", "142026.320000", "142027.570000", "142028.820000", "142030.070000", "142031.320000", "142032.570000", "142033.820000", "142035.070000", "142036.320000", "142037.570000", "142038.820000", "142040.070000", "142041.320000", "142042.570000", "142043.820000", "142045.070000", "142046.320000", "142047.570000", "142048.820000", "142050.070000", "142051.320000", "142052.570000", "142053.820000", "142055.070000", "142056.320000", "142057.570000", "142058.820000", "142100.070000", "142101.320000", "142102.570000", "142103.820000", "142105.070000", "142106.320000", "142107.570000", "142108.820000", "142110.070000", "142111.320000", "142112.570000", "142113.820000", "142115.070000", "142116.320000", "142117.570000", "142118.820000", "142120.070000", "142121.320000", "142122.570000", "142123.820000", "142125.070000", "142126.320000", "142127.570000", "142128.820000", "142130.070000", "142131.320000", "142132.570000", "142133.820000", "142135.070000", "142136.320000", "142137.570000", "142138.820000", "142140.070000", "142141.320000", "142142.570000", "142143.820000", "142145.070000", "142146.320000", "142147.570000", "142148.820000", "142150.070000", "142151.320000", "142152.570000", "142153.820000", "142155.070000", "142156.320000", "142157.570000", "142158.820000", "142200.070000", "142201.320000", "142202.570000", "142203.820000", "142205.070000", "142206.320000", "142207.570000", "142208.820000", "142210.070000", "142211.320000", "142212.570000", "142213.820000", "142215.070000", "142216.320000", "142217.570000", "142218.820000", "142220.070000", "142221.320000", "142222.570000", "142223.820000", "142225.070000", "142226.320000", "142227.570000", "142228.820000", "142230.070000", "142231.320000", "142232.570000", "142233.820000", "142235.070000", "142236.320000", "142237.570000", "142238.820000", "142240.070000", "142241.320000", "142242.570000", "142243.820000", "142245.070000", "142246.320000", "142247.570000", "142248.820000", "142250.070000", "142251.320000", "142252.570000", "142253.820000", "142255.070000", "142256.320000", "142257.570000", "142258.820000", "142300.070000", "142301.320000", "142302.570000", "142303.820000", "142305.070000", "142306.320000", "142307.570000", "142308.820000", "142310.070000", "142311.320000", "142312.570000", "142313.820000", "142315.070000", "142316.320000", "142317.570000", "142318.820000", "142320.070000", "142321.320000", "142322.570000", "142323.820000", "142325.070000", "142326.320000", "142327.570000", "142328.820000", "142330.070000", "142331.320000", "142332.570000", "142333.820000", "142335.070000", "142336.320000", "142337.570000", "142338.820000", "142340.070000", "142341.320000", "142342.570000", "142343.820000", "142345.070000", "142346.320000", "142347.570000", "142348.820000", "142350.070000", "142351.320000", "142352.570000", "142353.820000", "142355.070000", "142356.320000", "142357.570000", "142358.820000", "142400.070000", "142401.320000", "142402.570000", "142403.820000", "142405.070000", "142406.320000", "142407.570000", "142408.820000", "142410.070000", "142411.320000", "142412.570000", "142413.820000", "142415.070000", "142416.320000", "142417.570000", "142418.820000"],
      "ContentTime": ["141831.484000", "141832.559000", "141833.768000", "141835.036000", "141836.285000", "141837.514000", "141838.785000", "141840.030000", "141841.269000", "141842.513000", "141843.760000", "141845.020000", "141846.277000", "141847.552000", "141848.793000", "141850.021000", "141851.306000", "141852.519000", "141853.836000", "141855.020000", "141856.248000", "141857.544000", "141858.776000", "141900.042000", "141901.265000", "141902.523000", "141903.765000", "141905.017000", "141906.259000", "141907.552000", "141908.767000", "141910.024000", "141911.269000", "141912.526000", "141913.835000", "141915.021000", "141916.292000", "141917.526000", "141918.805000", "141920.047000", "141921.290000", "141922.529000", "141923.764000", "141925.082000", "141926.268000", "141927.523000", "141928.779000", "141930.007000", "141931.283000", "141932.514000", "141933.784000", "141935.028000", "141936.270000", "141937.538000", "141938.774000", "141940.001000", "141941.268000", "141942.497000", "141943.795000", "141945.040000", "141946.272000", "141947.552000", "141948.789000", "141950.038000", "141951.265000", "141952.535000", "141953.765000", "141955.044000", "141956.254000", "141957.516000", "141958.797000", "142000.043000", "142001.300000", "142002.513000", "142003.789000", "142005.028000", "142006.269000", "142007.526000", "142008.819000", "142010.036000", "142011.285000", "142012.529000", "142013.733000", "142015.053000", "142016.325000", "142017.590000", "142018.807000", "142020.035000", "142021.260000", "142022.518000", "142023.767000", "142025.025000", "142026.325000", "142027.539000", "142028.787000", "142030.069000", "142031.272000", "142032.533000", "142033.782000", "142035.031000", "142036.274000", "142037.578000", "142038.764000", "142040.031000", "142041.292000", "142042.554000", "142043.813000", "142045.019000", "142046.281000", "142047.555000", "142048.793000", "142050.038000", "142051.290000", "142052.524000", "142053.784000", "142055.074000", "142056.337000", "142057.562000", "142058.773000", "142100.022000", "142101.293000", "142102.531000", "142103.813000", "142105.034000", "142106.293000", "142107.506000", "142108.790000", "142110.026000", "142111.305000", "142112.531000", "142113.791000", "142115.041000", "142116.275000", "142117.540000", "142118.814000", "142120.041000", "142121.283000", "142122.509000", "142123.784000", "142125.046000", "142126.304000", "142127.535000", "142128.772000", "142130.043000", "142131.303000", "142132.533000", "142133.792000", "142135.032000", "142136.285000", "142137.534000", "142138.766000", "142140.019000", "142141.270000", "142142.501000", "142143.769000", "142145.030000", "142146.298000", "142147.538000", "142148.767000", "142150.037000", "142151.285000", "142152.545000", "142153.791000", "142155.055000", "142156.310000", "142157.517000", "142158.795000", "142200.010000", "142201.286000", "142202.538000", "142203.804000", "142205.060000", "142206.305000", "142207.567000", "142208.817000", "142210.025000", "142211.283000", "142212.559000", "142213.771000", "142215.032000", "142216.303000", "142217.538000", "142218.769000", "142220.035000", "142221.246000", "142222.510000", "142223.768000", "142225.054000", "142226.261000", "142227.539000", "142228.800000", "142230.019000", "142231.310000", "142232.525000", "142233.779000", "142235.032000", "142236.287000", "142237.518000", "142238.782000", "142240.036000", "142241.279000", "142242.488000", "142243.764000", "142245.020000", "142246.258000", "142247.534000", "142248.784000", "142250.092000", "142251.295000", "142252.538000", "142253.770000", "142255.055000", "142256.254000", "142257.518000", "142258.785000", "142300.051000", "142301.296000", "142302.525000", "142303.802000", "142305.036000", "142306.321000", "142307.538000", "142308.789000", "142310.044000", "142311.283000", "142312.517000", "142313.800000", "142315.035000", "142316.281000", "142317.546000", "142318.797000", "142320.055000", "142321.310000", "142322.542000", "142323.753000", "142325.013000", "142326.264000", "142327.511000", "142328.792000", "142330.070000", "142331.283000", "142332.521000", "142333.787000", "142335.026000", "142336.273000", "142337.547000", "142338.776000", "142340.033000", "142341.245000", "142342.547000", "142343.870000", "142345.023000", "142346.298000", "142347.545000", "142348.787000", "142350.011000", "142351.295000", "142352.537000", "142353.782000", "142355.034000", "142356.300000", "142357.543000", "142358.790000", "142400.024000", "142401.280000", "142402.563000", "142403.784000", "142405.026000", "142406.296000", "142407.554000", "142408.777000", "142410.018000", "142411.312000", "142412.536000", "142413.811000", "142415.022000", "142416.297000", "142417.532000", "142418.800000", "142420.090000"],
      "InstanceCreationTime": ["141831.484000", "141832.559000", "141833.768000", "141835.036000", "141836.285000", "141837.514000", "141838.785000", "141840.030000", "141841.269000", "141842.513000", "141843.760000", "141845.020000", "141846.277000", "141847.552000", "141848.793000", "141850.021000", "141851.306000", "141852.519000", "141853.836000", "141855.020000", "141856.248000", "141857.544000", "141858.776000", "141900.042000", "141901.265000", "141902.523000", "141903.765000", "141905.017000", "141906.259000", "141907.552000", "141908.767000", "141910.024000", "141911.269000", "141912.526000", "141913.835000", "141915.021000", "141916.292000", "141917.526000", "141918.805000", "141920.047000", "141921.290000", "141922.529000", "141923.764000", "141925.082000", "141926.268000", "141927.523000", "141928.779000", "141930.007000", "141931.283000", "141932.514000", "141933.784000", "141935.028000", "141936.270000", "141937.538000", "141938.774000", "141940.001000", "141941.268000", "141942.497000", "141943.795000", "141945.040000", "141946.272000", "141947.552000", "141948.789000", "141950.038000", "141951.265000", "141952.535000", "141953.765000", "141955.044000", "141956.254000", "141957.516000", "141958.797000", "142000.043000", "142001.300000", "142002.513000", "142003.789000", "142005.028000", "142006.269000", "142007.526000", "142008.819000", "142010.036000", "142011.285000", "142012.529000", "142013.733000", "142015.053000", "142016.325000", "142017.590000", "142018.807000", "142020.035000", "142021.260000", "142022.518000", "142023.767000", "142025.025000", "142026.325000", "142027.539000", "142028.787000", "142030.069000", "142031.272000", "142032.533000", "142033.782000", "142035.031000", "142036.274000", "142037.578000", "142038.764000", "142040.031000", "142041.292000", "142042.554000", "142043.813000", "142045.019000", "142046.281000", "142047.555000", "142048.793000", "142050.038000", "142051.290000", "142052.524000", "142053.784000", "142055.074000", "142056.337000", "142057.562000", "142058.773000", "142100.022000", "142101.293000", "142102.531000", "142103.813000", "142105.034000", "142106.293000", "142107.506000", "142108.790000", "142110.026000", "142111.305000", "142112.531000", "142113.791000", "142115.041000", "142116.275000", "142117.540000", "142118.814000", "142120.041000", "142121.283000", "142122.509000", "142123.784000", "142125.046000", "142126.304000", "142127.535000", "142128.772000", "142130.043000", "142131.303000", "142132.533000", "142133.792000", "142135.032000", "142136.285000", "142137.534000", "142138.766000", "142140.019000", "142141.270000", "142142.501000", "142143.769000", "142145.030000", "142146.298000", "142147.538000", "142148.767000", "142150.037000", "142151.285000", "142152.545000", "142153.791000", "142155.055000", "142156.310000", "142157.517000", "142158.795000", "142200.010000", "142201.286000", "142202.538000", "142203.804000", "142205.060000", "142206.305000", "142207.567000", "142208.817000", "142210.025000", "142211.283000", "142212.559000", "142213.771000", "142215.032000", "142216.303000", "142217.538000", "142218.769000", "142220.035000", "142221.246000", "142222.510000", "142223.768000", "142225.054000", "142226.261000", "142227.539000", "142228.800000", "142230.019000", "142231.310000", "142232.525000", "142233.779000", "142235.032000", "142236.287000", "142237.518000", "142238.782000", "142240.036000", "142241.279000", "142242.488000", "142243.764000", "142245.020000", "142246.258000", "142247.534000", "142248.784000", "142250.092000", "142251.295000", "142252.538000", "142253.770000", "142255.055000", "142256.254000", "142257.518000", "142258.785000", "142300.051000", "142301.296000", "142302.525000", "142303.802000", "142305.036000", "142306.321000", "142307.538000", "142308.789000", "142310.044000", "142311.283000", "142312.517000", "142313.800000", "142315.035000", "142316.281000", "142317.546000", "142318.797000", "142320.055000", "142321.310000", "142322.542000", "142323.753000", "142325.013000", "142326.264000", "142327.511000", "142328.792000", "142330.070000", "142331.283000", "142332.521000", "142333.787000", "142335.026000", "142336.273000", "142337.547000", "142338.776000", "142340.033000", "142341.245000", "142342.547000", "142343.870000", "142345.023000", "142346.298000", "142347.545000", "142348.787000", "142350.011000", "142351.295000", "142352.537000", "142353.782000", "142355.034000", "142356.300000", "142357.543000", "142358.790000", "142400.024000", "142401.280000", "142402.563000", "142403.784000", "142405.026000", "142406.296000", "142407.554000", "142408.777000", "142410.018000", "142411.312000", "142412.536000", "142413.811000", "142415.022000", "142416.297000", "142417.532000", "142418.800000", "142420.090000"],
      "InstanceNumber": [1, 2, 3, 4, 5, 6, 7, 8, 9, 10, 11, 12, 13, 14, 15, 16, 17, 18, 19, 20, 21, 22, 23, 24, 25, 26, 27, 28, 29, 30, 31, 32, 33, 34, 35, 36, 37, 38, 39, 40, 41, 42, 43, 44, 45, 46, 47, 48, 49, 50, 51, 52, 53, 54, 55, 56, 57, 58, 59, 60, 61, 62, 63, 64, 65, 66, 67, 68, 69, 70, 71, 72, 73, 74, 75, 76, 77, 78, 79, 80, 81, 82, 83, 84, 85, 86, 87, 88, 89, 90, 91, 92, 93, 94, 95, 96, 97, 98, 99, 100, 101, 102, 103, 104, 105, 106, 107, 108, 109, 110, 111, 112, 113, 114, 115, 116, 117, 118, 119, 120, 121, 122, 123, 124, 125, 126, 127, 128, 129, 130, 131, 132, 133, 134, 135, 136, 137, 138, 139, 140, 141, 142, 143, 144, 145, 146, 147, 148, 149, 150, 151, 152, 153, 154, 155, 156, 157, 158, 159, 160, 161, 162, 163, 164, 165, 166, 167, 168, 169, 170, 171, 172, 173, 174, 175, 176, 177, 178, 179, 180, 181, 182, 183, 184, 185, 186, 187, 188, 189, 190, 191, 192, 193, 194, 195, 196, 197, 198, 199, 200, 201, 202, 203, 204, 205, 206, 207, 208, 209, 210, 211, 212, 213, 214, 215, 216, 217, 218, 219, 220, 221, 222, 223, 224, 225, 226, 227, 228, 229, 230, 231, 232, 233, 234, 235, 236, 237, 238, 239, 240, 241, 242, 243, 244, 245, 246, 247, 248, 249, 250, 251, 252, 253, 254, 255, 256, 257, 258, 259, 260, 261, 262, 263, 264, 265, 266, 267, 268, 269, 270, 271, 272, 273, 274, 275, 276, 277, 278, 279, 280],
      "LargestImagePixelValue": [887, 919, 870, 833, 872, 913, 860, 828, 872, 788, 824, 865, 931, 843, 862, 988, 889, 808, 935, 864, 841, 896, 857, 808, 955, 740, 849, 896, 899, 815, 833, 940, 840, 831, 906, 788, 833, 939, 777, 847, 884, 928, 798, 858, 918, 832, 842, 879, 877, 830, 844, 919, 843, 831, 962, 878, 807, 894, 775, 798, 865, 897, 825, 857, 944, 839, 901, 946, 812, 856, 960, 807, 846, 920, 768, 834, 863, 754, 806, 874, 862, 838, 841, 894, 822, 776, 903, 781, 795, 835, 867, 823, 898, 890, 814, 868, 889, 774, 831, 881, 939, 852, 801, 850, 774, 794, 878, 935, 845, 828, 971, 768, 785, 860, 932, 843, 834, 893, 847, 767, 893, 798, 798, 913, 782, 811, 875, 910, 801, 849, 939, 769, 785, 859, 799, 829, 857, 879, 785, 821, 882, 976, 843, 806, 853, 866, 820, 879, 899, 756, 781, 877, 954, 856, 847, 954, 875, 784, 902, 756, 786, 868, 904, 805, 850, 908, 868, 813, 918, 770, 818, 851, 763, 810, 888, 946, 856, 825, 917, 753, 804, 874, 874, 821, 863, 1007, 841, 829, 922, 827, 810, 891, 860, 804, 968, 839, 808, 968, 833, 793, 886, 834, 845, 866, 802, 876, 878, 845, 908, 867, 819, 871, 813, 763, 864, 834, 799, 880, 883, 842, 861, 916, 820, 891, 907, 793, 781, 879, 830, 802, 836, 867, 841, 834, 921, 837, 890, 912, 766, 818, 866, 780, 771, 846, 763, 821, 896, 939, 839, 813, 893, 803, 798, 898, 780, 788, 868, 857, 816, 876, 943, 838, 775, 897, 795, 831, 866, 907, 839, 844, 896, 855, 795, 912, 763, 787, 865, 841, 788, 876],
      "WindowCenter": [345.0, 344.0, 344.0, 343.0, 345.0, 345.0, 344.0, 344.0, 345.0, 344.0, 345.0, 345.0, 346.0, 345.0, 345.0, 346.0, 345.0, 345.0, 346.0, 345.0, 345.0, 347.0, 346.0, 345.0, 346.0, 344.0, 345.0, 346.0, 346.0, 345.0, 345.0, 347.0, 346.0, 345.0, 346.0, 344.0, 345.0, 346.0, 343.0, 345.0, 345.0, 346.0, 344.0, 345.0, 345.0, 344.0, 344.0, 345.0, 345.0, 345.0, 344.0, 346.0, 345.0, 345.0, 346.0, 345.0, 344.0, 345.0, 343.0, 344.0, 344.0, 345.0, 345.0, 345.0, 346.0, 345.0, 345.0, 345.0, 344.0, 345.0, 346.0, 344.0, 344.0, 345.0, 343.0, 344.0, 344.0, 343.0, 344.0, 344.0, 344.0, 344.0, 344.0, 345.0, 345.0, 344.0, 346.0, 344.0, 344.0, 345.0, 345.0, 345.0, 346.0, 346.0, 345.0, 345.0, 345.0, 344.0, 345.0, 345.0, 346.0, 344.0, 344.0, 345.0, 343.0, 344.0, 344.0, 345.0, 344.0, 344.0, 346.0, 344.0, 345.0, 345.0, 346.0, 345.0, 345.0, 346.0, 345.0, 344.0, 346.0, 345.0, 345.0, 346.0, 344.0, 344.0, 345.0, 347.0, 345.0, 344.0, 345.0, 343.0, 343.0, 345.0, 344.0, 345.0, 345.0, 345.0, 344.0, 344.0, 344.0, 346.0, 344.0, 344.0, 345.0, 345.0, 345.0, 345.0, 345.0, 343.0, 343.0, 345.0, 346.0, 344.0, 344.0, 346.0, 344.0, 343.0, 345.0, 343.0, 344.0, 345.0, 345.0, 344.0, 344.0, 345.0, 344.0, 344.0, 345.0, 343.0, 344.0, 344.0, 343.0, 345.0, 345.0, 346.0, 345.0, 344.0, 345.0, 343.0, 344.0, 345.0, 345.0, 345.0, 345.0, 346.0, 344.0, 344.0, 345.0, 345.0, 345.0, 346.0, 345.0, 344.0, 346.0, 345.0, 344.0, 346.0, 345.0, 345.0, 346.0, 346.0, 345.0, 346.0, 345.0, 346.0, 345.0, 344.0, 345.0, 344.0, 344.0, 345.0, 345.0, 343.0, 345.0, 345.0, 344.0, 345.0, 344.0, 344.0, 344.0, 346.0, 344.0, 345.0, 344.0, 343.0, 343.0, 344.0, 344.0, 343.0, 344.0, 345.0, 345.0, 345.0, 346.0, 345.0, 345.0, 345.0, 343.0, 343.0, 344.0, 343.0, 343.0, 345.0, 343.0, 344.0, 344.0, 345.0, 344.0, 344.0, 345.0, 344.0, 344.0, 345.0, 344.0, 344.0, 345.0, 345.0, 344.0, 344.0, 346.0, 345.0, 344.0, 346.0, 344.0, 345.0, 344.0, 345.0, 345.0, 345.0, 345.0, 345.0, 344.0, 345.0, 343.0, 344.0, 345.0, 345.0, 344.0, 345.0],
      "WindowWidth": [738.0, 737.0, 736.0, 736.0, 737.0, 738.0, 737.0, 737.0, 738.0, 737.0, 738.0, 739.0, 741.0, 739.0, 739.0, 741.0, 739.0, 738.0, 741.0, 739.0, 740.0, 741.0, 740.0, 739.0, 741.0, 737.0, 738.0, 740.0, 740.0, 739.0, 739.0, 742.0, 740.0, 739.0, 741.0, 738.0, 739.0, 739.0, 736.0, 738.0, 739.0, 740.0, 737.0, 738.0, 738.0, 737.0, 737.0, 738.0, 739.0, 738.0, 738.0, 739.0, 738.0, 738.0, 740.0, 739.0, 737.0, 739.0, 736.0, 737.0, 738.0, 739.0, 738.0, 739.0, 740.0, 738.0, 738.0, 738.0, 737.0, 738.0, 740.0, 737.0, 737.0, 738.0, 735.0, 737.0, 737.0, 736.0, 737.0, 737.0, 737.0, 737.0, 737.0, 738.0, 738.0, 737.0, 739.0, 738.0, 737.0, 738.0, 739.0, 738.0, 740.0, 740.0, 738.0, 739.0, 739.0, 738.0, 739.0, 739.0, 739.0, 738.0, 737.0, 739.0, 736.0, 737.0, 737.0, 738.0, 737.0, 737.0, 740.0, 738.0, 738.0, 739.0, 741.0, 738.0, 738.0, 739.0, 738.0, 737.0, 740.0, 739.0, 738.0, 740.0, 737.0, 738.0, 739.0, 741.0, 738.0, 738.0, 738.0, 735.0, 736.0, 738.0, 737.0, 738.0, 739.0, 739.0, 737.0, 737.0, 738.0, 739.0, 737.0, 737.0, 739.0, 739.0, 738.0, 738.0, 739.0, 736.0, 736.0, 739.0, 739.0, 738.0, 737.0, 739.0, 737.0, 736.0, 738.0, 736.0, 737.0, 738.0, 739.0, 737.0, 737.0, 738.0, 737.0, 737.0, 738.0, 736.0, 737.0, 738.0, 737.0, 738.0, 739.0, 740.0, 739.0, 737.0, 738.0, 736.0, 737.0, 738.0, 739.0, 738.0, 739.0, 740.0, 738.0, 737.0, 738.0, 738.0, 738.0, 740.0, 739.0, 737.0, 740.0, 738.0, 737.0, 740.0, 738.0, 738.0, 740.0, 740.0, 739.0, 740.0, 739.0, 740.0, 739.0, 737.0, 738.0, 738.0, 737.0, 739.0, 738.0, 736.0, 738.0, 738.0, 737.0, 738.0, 737.0, 736.0, 737.0, 739.0, 737.0, 738.0, 737.0, 736.0, 735.0, 737.0, 737.0, 736.0, 737.0, 738.0, 738.0, 738.0, 739.0, 738.0, 738.0, 738.0, 735.0, 736.0, 737.0, 736.0, 736.0, 738.0, 736.0, 737.0, 737.0, 738.0, 737.0, 737.0, 738.0, 737.0, 737.0, 738.0, 737.0, 737.0, 738.0, 738.0, 737.0, 738.0, 739.0, 738.0, 737.0, 740.0, 737.0, 738.0, 737.0, 739.0, 738.0, 738.0, 738.0, 738.0, 737.0, 739.0, 737.0, 737.0, 739.0, 738.0, 737.0, 739.0]
    },
    "slices": {}
  }
}