{
  "AcquisitionMatrixPE": 96,
  "AcquisitionNumber": 1,
  "AcquisitionTime": "13:45:20.232500",
  "BandwidthPerPixelPhaseEncode": 18.939,
  "BaseResolution": 96,
  "BodyPartExamined": "BRAIN",
  "ConsistencyInfo": "N4_VE11C_LATEST_20160120",
  "ConversionSoftware": "dcm2niix",
  "ConversionSoftwareVersion": "v1.0.20170923 (OpenJPEG build) GCC6.3.0",
  "DerivedVendorReportedEchoSpacing": 0.000550011,
  "DeviceSerialNumber": "66112",
  "DwellTime": 2.3e-06,
  "EchoTime": 0.033,
  "EchoTrainLength": 96,
  "EffectiveEchoSpacing": 0.000550011,
  "FlipAngle": 64,
  "ImageType": [
    "ORIGINAL",
    "PRIMARY",
    "FMRI",
    "NONE",
    "ND",
    "NORM",
    "MOSAIC"
],
  "InstitutionAddress": "Maynard_3_Hanover_NH_US_03755",
  "InstitutionName": "Dartmouth_College_-_PBS",
  "MagneticFieldStrength": 3,
  "Manufacturer": "Siemens",
  "ManufacturersModelName": "Prisma",
  "Modality": "MR",
  "MultibandAccelerationFactor": 4,
  "PartialFourier": 1,
  "PercentPhaseFOV": 100,
  "PhaseEncodingDirection": "j-",
  "PhaseEncodingSteps": 96,
  "PhaseResolution": 1,
  "ProcedureStepDescription": "Gobbini_Matteo_1017_famface-angles",
  "ProtocolName": "func_run-06_task-localizer",
  "PulseSequenceDetails": "%SiemensSeq%_ep2d_bold",
  "ReceiveCoilActiveElements": "HEA;HEP",
  "ReceiveCoilName": "Head_32",
  "ReconMatrixPE": 96,
  "RepetitionTime": 1.25,
  "ScanOptions": "FS",
  "ScanningSequence": "EP",
  "SequenceName": "_epfid2d1_96",
  "SequenceVariant": "SK",
  "SeriesDescription": "func_run-06_task-localizer",
  "SliceTiming": [0.88, 0, 0.615, 0.0875, 0.7025, 0.175, 0.79, 0.3525, 0.9675, 0.44, 1.055, 0.5275, 1.1425, 0.265, 0.88, 0, 0.615, 0.0875, 0.7025, 0.175, 0.79, 0.3525, 0.9675, 0.44, 1.055, 0.5275, 1.1425, 0.265, 0.88, 0, 0.615, 0.0875, 0.7025, 0.175, 0.79, 0.3525, 0.9675, 0.44, 1.055, 0.5275, 1.1425, 0.265, 0.88, 0, 0.615, 0.0875, 0.7025, 0.175, 0.79, 0.3525, 0.9675, 0.44, 1.055, 0.5275, 1.1425, 0.265],
  "SoftwareVersions": "syngo_MR_E11",
  "StationName": "AWP66112",
  "TaskName": "localizer",
  "TotalReadoutTime": 0.0522511,
  "dcmmeta_affine": [
    [-2.499156951904297, 0.04187772050499916, 0.049612049013376236, 117.02059936523438],
    [0.04529701918363571, 2.4933016300201416, 0.17718617618083954, -103.81905364990234],
    [0.04651105776429176, -0.17802533507347107, 2.4932196140289307, -49.475120544433594],
    [0.0, 0.0, 0.0, 1.0]
],
  "dcmmeta_reorient_transform": [
    [0.0, -1.0, 0.0, 95.0],
    [1.0, 0.0, 0.0, 0.0],
    [0.0, 0.0, 1.0, 0.0],
    [0.0, 0.0, 0.0, 1.0]
],
  "dcmmeta_shape": [96, 96, 56, 325],
  "dcmmeta_slice_dim": 2,
  "dcmmeta_version": 0.6,
  "global": {
    "const": {
      "AccessionNumber": "A000475",
      "AcquisitionMatrix": [96, 0, 0, 96],
      "AngioFlag": "N",
      "BitsAllocated": 16,
      "BitsStored": 12,
      "BodyPartExamined": "BRAIN",
      "Columns": 768,
      "EchoNumbers": 1,
      "EchoTime": 33.0,
      "EchoTrainLength": 96,
      "FlipAngle": 64.0,
      "HighBit": 11,
      "ImageOrientationPatient": [0.99966273523177, -0.0181188079905, 0.01860442382742, 0.01675108778807, 0.99732066965265, 0.0712101322953],
      "ImagePositionPatient": [-974.78659558427, -955.57416767361, -141.83175323573],
      "ImageType": [
        "ORIGINAL",
        "PRIMARY",
        "FMRI",
        "NONE",
        "ND",
        "NORM",
        "MOSAIC"
],
      "ImagedNucleus": "1H",
      "ImagingFrequency": 123.252347,
      "InPlanePhaseEncodingDirection": "COL",
      "MRAcquisitionType": "2D",
      "MagneticFieldStrength": 3.0,
      "Manufacturer": "SIEMENS",
      "ManufacturerModelName": "Prisma",
      "Modality": "MR",
      "NumberOfAverages": 1.0,
      "NumberOfPhaseEncodingSteps": 96,
      "PercentPhaseFieldOfView": 100.0,
      "PercentSampling": 100.0,
      "PerformedProcedureStepStartTime": "125733.118000",
      "PhotometricInterpretation": "MONOCHROME2",
      "PixelBandwidth": 2265.0,
      "PixelRepresentation": 0,
      "PixelSpacing": [2.5, 2.5],
      "PositionReferenceIndicator": "",
      "ProtocolName": "func_run-06_task-localizer",
      "RepetitionTime": 1250.0,
      "Rows": 768,
      "SAR": 0.04758181802688,
      "SamplesPerPixel": 1,
      "ScanOptions": "FS",
      "ScanningSequence": "EP",
      "SequenceName": "*epfid2d1_96",
      "SequenceVariant": "SK",
      "SeriesDescription": "func_run-06_task-localizer",
      "SeriesNumber": 43,
      "SeriesTime": "134521.272000",
      "SliceLocation": -54.376802140585,
      "SliceThickness": 2.5,
      "SmallestImagePixelValue": 0,
      "SoftwareVersions": "syngo MR E11",
      "SpacingBetweenSlices": 2.5000000027805,
      "SpecificCharacterSet": "ISO_IR 100",
      "StudyID": "2",
      "StudyTime": "125733.025000",
      "TransmitCoilName": "Body",
      "VariableFlipAngleFlag": "N",
      "WindowCenterWidthExplanation": "Algo1",
      "dBdt": 0.0},
    "slices": {}
  },
  "time": {
    "samples": {
      "AcquisitionNumber": [1, 2, 3, 4, 5, 6, 7, 8, 9, 10, 11, 12, 13, 14, 15, 16, 17, 18, 19, 20, 21, 22, 23, 24, 25, 26, 27, 28, 29, 30, 31, 32, 33, 34, 35, 36, 37, 38, 39, 40, 41, 42, 43, 44, 45, 46, 47, 48, 49, 50, 51, 52, 53, 54, 55, 56, 57, 58, 59, 60, 61, 62, 63, 64, 65, 66, 67, 68, 69, 70, 71, 72, 73, 74, 75, 76, 77, 78, 79, 80, 81, 82, 83, 84, 85, 86, 87, 88, 89, 90, 91, 92, 93, 94, 95, 96, 97, 98, 99, 100, 101, 102, 103, 104, 105, 106, 107, 108, 109, 110, 111, 112, 113, 114, 115, 116, 117, 118, 119, 120, 121, 122, 123, 124, 125, 126, 127, 128, 129, 130, 131, 132, 133, 134, 135, 136, 137, 138, 139, 140, 141, 142, 143, 144, 145, 146, 147, 148, 149, 150, 151, 152, 153, 154, 155, 156, 157, 158, 159, 160, 161, 162, 163, 164, 165, 166, 167, 168, 169, 170, 171, 172, 173, 174, 175, 176, 177, 178, 179, 180, 181, 182, 183, 184, 185, 186, 187, 188, 189, 190, 191, 192, 193, 194, 195, 196, 197, 198, 199, 200, 201, 202, 203, 204, 205, 206, 207, 208, 209, 210, 211, 212, 213, 214, 215, 216, 217, 218, 219, 220, 221, 222, 223, 224, 225, 226, 227, 228, 229, 230, 231, 232, 233, 234, 235, 236, 237, 238, 239, 240, 241, 242, 243, 244, 245, 246, 247, 248, 249, 250, 251, 252, 253, 254, 255, 256, 257, 258, 259, 260, 261, 262, 263, 264, 265, 266, 267, 268, 269, 270, 271, 272, 273, 274, 275, 276, 277, 278, 279, 280, 281, 282, 283, 284, 285, 286, 287, 288, 289, 290, 291, 292, 293, 294, 295, 296, 297, 298, 299, 300, 301, 302, 303, 304, 305, 306, 307, 308, 309, 310, 311, 312, 313, 314, 315, 316, 317, 318, 319, 320, 321, 322, 323, 324, 325],
      "AcquisitionTime": ["134520.232500", "134521.482500", "134522.732500", "134523.982500", "134525.232500", "134526.482500", "134527.732500", "134528.982500", "134530.232500", "134531.482500", "134532.732500", "134533.982500", "134535.232500", "134536.482500", "134537.732500", "134538.982500", "134540.232500", "134541.482500", "134542.732500", "134543.982500", "134545.232500", "134546.482500", "134547.732500", "134548.982500", "134550.232500", "134551.482500", "134552.732500", "134553.982500", "134555.232500", "134556.482500", "134557.732500", "134558.982500", "134600.232500", "134601.482500", "134602.732500", "134603.982500", "134605.232500", "134606.482500", "134607.732500", "134608.982500", "134610.232500", "134611.482500", "134612.732500", "134613.982500", "134615.232500", "134616.482500", "134617.732500", "134618.982500", "134620.232500", "134621.482500", "134622.732500", "134623.982500", "134625.232500", "134626.482500", "134627.732500", "134628.982500", "134630.232500", "134631.482500", "134632.732500", "134633.982500", "134635.232500", "134636.482500", "134637.732500", "134638.982500", "134640.232500", "134641.482500", "134642.732500", "134643.982500", "134645.232500", "134646.482500", "134647.732500", "134648.982500", "134650.232500", "134651.482500", "134652.732500", "134653.982500", "134655.232500", "134656.482500", "134657.732500", "134658.982500", "134700.232500", "134701.482500", "134702.732500", "134703.982500", "134705.232500", "134706.482500", "134707.732500", "134708.982500", "134710.232500", "134711.482500", "134712.732500", "134713.982500", "134715.232500", "134716.482500", "134717.732500", "134718.982500", "134720.232500", "134721.482500", "134722.732500", "134723.982500", "134725.232500", "134726.482500", "134727.732500", "134728.982500", "134730.232500", "134731.482500", "134732.732500", "134733.982500", "134735.232500", "134736.482500", "134737.732500", "134738.982500", "134740.232500", "134741.482500", "134742.732500", "134743.982500", "134745.232500", "134746.482500", "134747.732500", "134748.982500", "134750.232500", "134751.482500", "134752.732500", "134753.982500", "134755.232500", "134756.482500", "134757.732500", "134758.982500", "134800.232500", "134801.482500", "134802.732500", "134803.982500", "134805.232500", "134806.482500", "134807.732500", "134808.982500", "134810.232500", "134811.482500", "134812.732500", "134813.982500", "134815.232500", "134816.482500", "134817.732500", "134818.982500", "134820.232500", "134821.482500", "134822.732500", "134823.982500", "134825.232500", "134826.482500", "134827.732500", "134828.982500", "134830.232500", "134831.482500", "134832.732500", "134833.982500", "134835.232500", "134836.482500", "134837.732500", "134838.982500", "134840.232500", "134841.482500", "134842.732500", "134843.982500", "134845.232500", "134846.482500", "134847.732500", "134848.982500", "134850.232500", "134851.482500", "134852.732500", "134853.982500", "134855.232500", "134856.482500", "134857.732500", "134858.982500", "134900.232500", "134901.482500", "134902.732500", "134903.982500", "134905.232500", "134906.482500", "134907.732500", "134908.982500", "134910.232500", "134911.482500", "134912.732500", "134913.982500", "134915.232500", "134916.482500", "134917.732500", "134918.982500", "134920.232500", "134921.482500", "134922.732500", "134923.982500", "134925.232500", "134926.482500", "134927.732500", "134928.982500", "134930.232500", "134931.482500", "134932.732500", "134933.982500", "134935.232500", "134936.482500", "134937.732500", "134938.982500", "134940.232500", "134941.482500", "134942.732500", "134943.982500", "134945.232500", "134946.482500", "134947.732500", "134948.982500", "134950.232500", "134951.482500", "134952.732500", "134953.982500", "134955.232500", "134956.482500", "134957.732500", "134958.982500", "135000.232500", "135001.482500", "135002.732500", "135003.982500", "135005.232500", "135006.482500", "135007.732500", "135008.982500", "135010.232500", "135011.482500", "135012.732500", "135013.982500", "135015.232500", "135016.482500", "135017.732500", "135018.982500", "135020.232500", "135021.482500", "135022.732500", "135023.982500", "135025.232500", "135026.482500", "135027.732500", "135028.982500", "135030.232500", "135031.482500", "135032.732500", "135033.982500", "135035.232500", "135036.482500", "135037.732500", "135038.982500", "135040.232500", "135041.482500", "135042.732500", "135043.982500", "135045.232500", "135046.482500", "135047.732500", "135048.982500", "135050.232500", "135051.482500", "135052.732500", "135053.982500", "135055.232500", "135056.482500", "135057.732500", "135058.982500", "135100.232500", "135101.482500", "135102.732500", "135103.982500", "135105.232500", "135106.482500", "135107.732500", "135108.982500", "135110.232500", "135111.482500", "135112.732500", "135113.982500", "135115.232500", "135116.482500", "135117.732500", "135118.982500", "135120.232500", "135121.482500", "135122.732500", "135123.982500", "135125.232500", "135126.482500", "135127.732500", "135128.982500", "135130.232500", "135131.482500", "135132.732500", "135133.982500", "135135.232500", "135136.482500", "135137.732500", "135138.982500", "135140.232500", "135141.482500", "135142.732500", "135143.982500", "135145.232500", "135146.482500", "135147.732500", "135148.982500", "135150.232500", "135151.482500", "135152.732500", "135153.982500", "135155.232500", "135156.482500", "135157.732500", "135158.982500", "135200.232500", "135201.482500", "135202.732500", "135203.982500", "135205.232500"],
      "ContentTime": ["134521.276000", "134522.334000", "134523.587000", "134524.844000", "134526.099000", "134527.331000", "134528.592000", "134529.816000", "134531.116000", "134532.382000", "134533.584000", "134534.837000", "134536.126000", "134537.335000", "134538.599000", "134539.831000", "134541.081000", "134542.366000", "134543.585000", "134544.825000", "134546.094000", "134547.390000", "134548.587000", "134549.861000", "134551.095000", "134552.289000", "134553.581000", "134554.829000", "134556.085000", "134557.327000", "134558.580000", "134559.817000", "134601.123000", "134602.354000", "134603.583000", "134604.843000", "134606.099000", "134607.340000", "134608.564000", "134609.821000", "134611.073000", "134612.329000", "134613.594000", "134614.830000", "134616.071000", "134617.334000", "134618.581000", "134619.830000", "134621.084000", "134622.302000", "134623.579000", "134624.834000", "134626.077000", "134627.334000", "134628.593000", "134629.844000", "134631.082000", "134632.366000", "134633.592000", "134634.820000", "134636.082000", "134637.329000", "134638.582000", "134639.814000", "134641.073000", "134642.342000", "134643.591000", "134644.864000", "134646.074000", "134647.327000", "134648.589000", "134649.840000", "134651.061000", "134652.330000", "134653.577000", "134654.816000", "134656.087000", "134657.371000", "134658.587000", "134659.831000", "134701.086000", "134702.318000", "134703.563000", "134704.841000", "134706.078000", "134707.317000", "134708.590000", "134709.833000", "134711.077000", "134712.307000", "134713.564000", "134714.833000", "134716.074000", "134717.341000", "134718.565000", "134719.832000", "134721.077000", "134722.344000", "134723.587000", "134724.813000", "134726.098000", "134727.361000", "134728.621000", "134729.885000", "134731.096000", "134732.340000", "134733.610000", "134734.825000", "134736.090000", "134737.331000", "134738.560000", "134739.827000", "134741.095000", "134742.323000", "134743.595000", "134744.840000", "134746.087000", "134747.340000", "134748.577000", "134749.857000", "134751.090000", "134752.352000", "134753.579000", "134754.822000", "134756.097000", "134757.336000", "134758.582000", "134759.831000", "134801.065000", "134802.381000", "134803.650000", "134804.878000", "134806.149000", "134807.332000", "134808.599000", "134809.832000", "134811.060000", "134812.325000", "134813.609000", "134814.843000", "134816.098000", "134817.380000", "134818.596000", "134819.842000", "134821.088000", "134822.337000", "134823.605000", "134824.852000", "134826.107000", "134827.346000", "134828.570000", "134829.806000", "134831.074000", "134832.352000", "134833.600000", "134834.800000", "134836.095000", "134837.332000", "134838.600000", "134839.862000", "134841.073000", "134842.329000", "134843.584000", "134844.801000", "134846.109000", "134847.353000", "134848.577000", "134849.845000", "134851.085000", "134852.333000", "134853.589000", "134854.862000", "134856.085000", "134857.341000", "134858.596000", "134859.855000", "134901.102000", "134902.364000", "134903.572000", "134904.854000", "134906.113000", "134907.300000", "134908.590000", "134909.836000", "134911.095000", "134912.334000", "134913.595000", "134914.832000", "134916.083000", "134917.353000", "134918.564000", "134919.832000", "134921.089000", "134922.370000", "134923.555000", "134924.888000", "134926.085000", "134927.335000", "134928.592000", "134929.858000", "134931.104000", "134932.371000", "134933.604000", "134934.832000", "134936.139000", "134937.331000", "134938.587000", "134939.850000", "134941.058000", "134942.331000", "134943.576000", "134944.846000", "134946.105000", "134947.367000", "134948.595000", "134949.851000", "134951.112000", "134952.420000", "134953.609000", "134954.841000", "134956.107000", "134957.340000", "134958.584000", "134959.816000", "135001.068000", "135002.402000", "135003.567000", "135004.841000", "135006.094000", "135007.338000", "135008.584000", "135009.821000", "135011.094000", "135012.341000", "135013.626000", "135014.871000", "135016.096000", "135017.335000", "135018.564000", "135019.819000", "135021.123000", "135022.343000", "135023.629000", "135024.854000", "135026.096000", "135027.336000", "135028.587000", "135029.870000", "135031.079000", "135032.338000", "135033.598000", "135034.841000", "135036.087000", "135037.320000", "135038.592000", "135039.844000", "135041.095000", "135042.338000", "135043.601000", "135044.834000", "135046.062000", "135047.354000", "135048.598000", "135049.847000", "135051.070000", "135052.357000", "135053.626000", "135054.844000", "135056.122000", "135057.329000", "135058.578000", "135059.842000", "135101.080000", "135102.345000", "135103.582000", "135104.832000", "135106.083000", "135107.336000", "135108.589000", "135109.843000", "135111.078000", "135112.365000", "135113.582000", "135114.938000", "135116.081000", "135117.335000", "135118.597000", "135119.829000", "135121.085000", "135122.370000", "135123.579000", "135124.843000", "135126.095000", "135127.349000", "135128.591000", "135129.861000", "135131.082000", "135132.344000", "135133.606000", "135134.844000", "135136.081000", "135137.352000", "135138.598000", "135139.834000", "135141.100000", "135142.324000", "135143.589000", "135144.839000", "135146.167000", "135147.324000", "135148.574000", "135149.898000", "135151.069000", "135152.343000", "135153.592000", "135154.831000", "135156.069000", "135157.330000", "135158.609000", "135159.832000", "135201.086000", "135202.323000", "135203.609000", "135204.837000", "135206.142000"],
      "InstanceCreationTime": ["134521.276000", "134522.334000", "134523.587000", "134524.844000", "134526.099000", "134527.331000", "134528.592000", "134529.816000", "134531.116000", "134532.382000", "134533.584000", "134534.837000", "134536.126000", "134537.335000", "134538.599000", "134539.831000", "134541.081000", "134542.366000", "134543.585000", "134544.825000", "134546.094000", "134547.390000", "134548.587000", "134549.861000", "134551.095000", "134552.289000", "134553.581000", "134554.829000", "134556.085000", "134557.327000", "134558.580000", "134559.817000", "134601.123000", "134602.354000", "134603.583000", "134604.843000", "134606.099000", "134607.340000", "134608.564000", "134609.821000", "134611.073000", "134612.329000", "134613.594000", "134614.830000", "134616.071000", "134617.334000", "134618.581000", "134619.830000", "134621.084000", "134622.302000", "134623.579000", "134624.834000", "134626.077000", "134627.334000", "134628.593000", "134629.844000", "134631.082000", "134632.366000", "134633.592000", "134634.820000", "134636.082000", "134637.329000", "134638.582000", "134639.814000", "134641.073000", "134642.342000", "134643.591000", "134644.864000", "134646.074000", "134647.327000", "134648.589000", "134649.840000", "134651.061000", "134652.330000", "134653.577000", "134654.816000", "134656.087000", "134657.371000", "134658.587000", "134659.831000", "134701.086000", "134702.318000", "134703.563000", "134704.841000", "134706.078000", "134707.317000", "134708.590000", "134709.833000", "134711.077000", "134712.307000", "134713.564000", "134714.833000", "134716.074000", "134717.341000", "134718.565000", "134719.832000", "134721.077000", "134722.344000", "134723.587000", "134724.813000", "134726.098000", "134727.361000", "134728.621000", "134729.885000", "134731.096000", "134732.340000", "134733.610000", "134734.825000", "134736.090000", "134737.331000", "134738.560000", "134739.827000", "134741.095000", "134742.323000", "134743.595000", "134744.840000", "134746.087000", "134747.340000", "134748.577000", "134749.857000", "134751.090000", "134752.352000", "134753.579000", "134754.822000", "134756.097000", "134757.336000", "134758.582000", "134759.831000", "134801.065000", "134802.381000", "134803.650000", "134804.878000", "134806.149000", "134807.332000", "134808.599000", "134809.832000", "134811.060000", "134812.325000", "134813.609000", "134814.843000", "134816.098000", "134817.380000", "134818.596000", "134819.842000", "134821.088000", "134822.337000", "134823.605000", "134824.852000", "134826.107000", "134827.346000", "134828.570000", "134829.806000", "134831.074000", "134832.352000", "134833.600000", "134834.800000", "134836.095000", "134837.332000", "134838.600000", "134839.862000", "134841.073000", "134842.329000", "134843.584000", "134844.801000", "134846.109000", "134847.353000", "134848.577000", "134849.845000", "134851.085000", "134852.333000", "134853.589000", "134854.862000", "134856.085000", "134857.341000", "134858.596000", "134859.855000", "134901.102000", "134902.364000", "134903.572000", "134904.854000", "134906.113000", "134907.300000", "134908.590000", "134909.836000", "134911.095000", "134912.334000", "134913.595000", "134914.832000", "134916.083000", "134917.353000", "134918.564000", "134919.832000", "134921.089000", "134922.370000", "134923.555000", "134924.888000", "134926.085000", "134927.335000", "134928.592000", "134929.858000", "134931.104000", "134932.371000", "134933.604000", "134934.832000", "134936.139000", "134937.331000", "134938.587000", "134939.850000", "134941.058000", "134942.331000", "134943.576000", "134944.846000", "134946.105000", "134947.367000", "134948.595000", "134949.851000", "134951.112000", "134952.420000", "134953.609000", "134954.841000", "134956.107000", "134957.340000", "134958.584000", "134959.816000", "135001.068000", "135002.402000", "135003.567000", "135004.841000", "135006.094000", "135007.338000", "135008.584000", "135009.821000", "135011.094000", "135012.341000", "135013.626000", "135014.871000", "135016.096000", "135017.335000", "135018.564000", "135019.819000", "135021.123000", "135022.343000", "135023.629000", "135024.854000", "135026.096000", "135027.336000", "135028.587000", "135029.870000", "135031.079000", "135032.338000", "135033.598000", "135034.841000", "135036.087000", "135037.320000", "135038.592000", "135039.844000", "135041.095000", "135042.338000", "135043.601000", "135044.834000", "135046.062000", "135047.354000", "135048.598000", "135049.847000", "135051.070000", "135052.357000", "135053.626000", "135054.844000", "135056.122000", "135057.329000", "135058.578000", "135059.842000", "135101.080000", "135102.345000", "135103.582000", "135104.832000", "135106.083000", "135107.336000", "135108.589000", "135109.843000", "135111.078000", "135112.365000", "135113.582000", "135114.938000", "135116.081000", "135117.335000", "135118.597000", "135119.829000", "135121.085000", "135122.370000", "135123.579000", "135124.843000", "135126.095000", "135127.349000", "135128.591000", "135129.861000", "135131.082000", "135132.344000", "135133.606000", "135134.844000", "135136.081000", "135137.352000", "135138.598000", "135139.834000", "135141.100000", "135142.324000", "135143.589000", "135144.839000", "135146.167000", "135147.324000", "135148.574000", "135149.898000", "135151.069000", "135152.343000", "135153.592000", "135154.831000", "135156.069000", "135157.330000", "135158.609000", "135159.832000", "135201.086000", "135202.323000", "135203.609000", "135204.837000", "135206.142000"],
      "InstanceNumber": [1, 2, 3, 4, 5, 6, 7, 8, 9, 10, 11, 12, 13, 14, 15, 16, 17, 18, 19, 20, 21, 22, 23, 24, 25, 26, 27, 28, 29, 30, 31, 32, 33, 34, 35, 36, 37, 38, 39, 40, 41, 42, 43, 44, 45, 46, 47, 48, 49, 50, 51, 52, 53, 54, 55, 56, 57, 58, 59, 60, 61, 62, 63, 64, 65, 66, 67, 68, 69, 70, 71, 72, 73, 74, 75, 76, 77, 78, 79, 80, 81, 82, 83, 84, 85, 86, 87, 88, 89, 90, 91, 92, 93, 94, 95, 96, 97, 98, 99, 100, 101, 102, 103, 104, 105, 106, 107, 108, 109, 110, 111, 112, 113, 114, 115, 116, 117, 118, 119, 120, 121, 122, 123, 124, 125, 126, 127, 128, 129, 130, 131, 132, 133, 134, 135, 136, 137, 138, 139, 140, 141, 142, 143, 144, 145, 146, 147, 148, 149, 150, 151, 152, 153, 154, 155, 156, 157, 158, 159, 160, 161, 162, 163, 164, 165, 166, 167, 168, 169, 170, 171, 172, 173, 174, 175, 176, 177, 178, 179, 180, 181, 182, 183, 184, 185, 186, 187, 188, 189, 190, 191, 192, 193, 194, 195, 196, 197, 198, 199, 200, 201, 202, 203, 204, 205, 206, 207, 208, 209, 210, 211, 212, 213, 214, 215, 216, 217, 218, 219, 220, 221, 222, 223, 224, 225, 226, 227, 228, 229, 230, 231, 232, 233, 234, 235, 236, 237, 238, 239, 240, 241, 242, 243, 244, 245, 246, 247, 248, 249, 250, 251, 252, 253, 254, 255, 256, 257, 258, 259, 260, 261, 262, 263, 264, 265, 266, 267, 268, 269, 270, 271, 272, 273, 274, 275, 276, 277, 278, 279, 280, 281, 282, 283, 284, 285, 286, 287, 288, 289, 290, 291, 292, 293, 294, 295, 296, 297, 298, 299, 300, 301, 302, 303, 304, 305, 306, 307, 308, 309, 310, 311, 312, 313, 314, 315, 316, 317, 318, 319, 320, 321, 322, 323, 324, 325],
      "LargestImagePixelValue": [930, 936, 862, 903, 937, 883, 764, 873, 904, 987, 828, 854, 961, 968, 785, 878, 900, 852, 821, 929, 779, 845, 944, 862, 858, 961, 987, 878, 930, 912, 851, 931, 907, 760, 900, 933, 902, 865, 959, 873, 860, 974, 893, 866, 973, 939, 847, 950, 907, 863, 955, 982, 870, 937, 919, 775, 918, 922, 1006, 837, 888, 950, 873, 874, 969, 914, 885, 919, 881, 796, 915, 899, 780, 899, 925, 947, 857, 921, 955, 789, 880, 975, 948, 906, 953, 914, 856, 981, 821, 813, 947, 772, 838, 946, 793, 835, 961, 793, 829, 935, 917, 879, 923, 895, 749, 872, 902, 838, 863, 851, 927, 789, 828, 970, 892, 816, 908, 912, 765, 928, 947, 956, 857, 904, 926, 979, 784, 802, 945, 910, 813, 884, 904, 774, 858, 898, 976, 866, 890, 936, 943, 838, 861, 976, 829, 868, 991, 920, 776, 942, 934, 849, 875, 894, 991, 768, 809, 978, 934, 771, 923, 957, 977, 860, 874, 991, 1008, 780, 905, 991, 796, 849, 979, 886, 752, 851, 945, 888, 824, 920, 1016, 945, 848, 948, 975, 783, 888, 934, 948, 869, 849, 934, 987, 799, 934, 986, 841, 819, 931, 968, 887, 903, 947, 936, 778, 881, 1000, 929, 868, 864, 956, 843, 835, 927, 941, 779, 911, 976, 910, 933, 935, 950, 790, 857, 941, 982, 780, 832, 1012, 883, 826, 963, 983, 909, 894, 909, 988, 811, 833, 997, 971, 752, 895, 970, 846, 890, 941, 984, 862, 862, 868, 996, 778, 826, 944, 947, 890, 840, 922, 1035, 849, 825, 1005, 990, 758, 889, 928, 967, 784, 854, 1015, 1049, 775, 880, 1017, 939, 916, 949, 972, 986, 817, 907, 994, 907, 876, 936, 1005, 830, 868, 967, 1009, 794, 838, 989, 842, 899, 961, 970, 867, 876, 833, 1004, 820, 832, 1012, 982, 759, 964, 967, 881, 849, 835, 1034, 994, 789, 838, 984, 933, 770, 888, 925, 981, 836, 901, 1008],
      "WindowCenter": [347.0, 346.0, 345.0, 345.0, 346.0, 345.0, 344.0, 346.0, 346.0, 347.0, 345.0, 345.0, 346.0, 346.0, 344.0, 346.0, 346.0, 346.0, 345.0, 346.0, 345.0, 345.0, 346.0, 345.0, 345.0, 346.0, 347.0, 346.0, 346.0, 346.0, 346.0, 346.0, 346.0, 344.0, 346.0, 346.0, 346.0, 345.0, 346.0, 346.0, 346.0, 347.0, 346.0, 345.0, 346.0, 346.0, 345.0, 346.0, 346.0, 346.0, 346.0, 347.0, 346.0, 346.0, 346.0, 344.0, 346.0, 346.0, 347.0, 345.0, 345.0, 345.0, 345.0, 345.0, 345.0, 345.0, 345.0, 346.0, 345.0, 345.0, 346.0, 346.0, 344.0, 346.0, 346.0, 346.0, 345.0, 346.0, 346.0, 345.0, 346.0, 347.0, 346.0, 345.0, 346.0, 346.0, 345.0, 347.0, 346.0, 346.0, 347.0, 345.0, 344.0, 346.0, 344.0, 344.0, 346.0, 345.0, 345.0, 346.0, 346.0, 345.0, 346.0, 345.0, 343.0, 345.0, 346.0, 345.0, 346.0, 346.0, 345.0, 344.0, 344.0, 346.0, 346.0, 345.0, 346.0, 346.0, 344.0, 347.0, 347.0, 347.0, 345.0, 346.0, 346.0, 346.0, 343.0, 344.0, 346.0, 346.0, 345.0, 346.0, 346.0, 344.0, 345.0, 346.0, 347.0, 345.0, 346.0, 346.0, 346.0, 344.0, 345.0, 347.0, 345.0, 346.0, 347.0, 346.0, 344.0, 346.0, 346.0, 345.0, 346.0, 346.0, 347.0, 344.0, 345.0, 347.0, 347.0, 345.0, 346.0, 346.0, 346.0, 345.0, 346.0, 347.0, 346.0, 344.0, 345.0, 347.0, 345.0, 345.0, 347.0, 346.0, 345.0, 346.0, 348.0, 347.0, 346.0, 346.0, 347.0, 346.0, 345.0, 347.0, 348.0, 345.0, 345.0, 346.0, 346.0, 345.0, 345.0, 346.0, 346.0, 344.0, 346.0, 346.0, 345.0, 344.0, 346.0, 346.0, 346.0, 346.0, 346.0, 346.0, 345.0, 346.0, 347.0, 346.0, 345.0, 345.0, 346.0, 345.0, 345.0, 346.0, 346.0, 344.0, 346.0, 347.0, 346.0, 346.0, 346.0, 346.0, 345.0, 345.0, 346.0, 348.0, 345.0, 345.0, 347.0, 346.0, 345.0, 347.0, 347.0, 346.0, 346.0, 346.0, 346.0, 345.0, 344.0, 346.0, 346.0, 343.0, 345.0, 347.0, 345.0, 346.0, 346.0, 346.0, 345.0, 345.0, 345.0, 347.0, 345.0, 346.0, 347.0, 346.0, 346.0, 344.0, 345.0, 346.0, 344.0, 344.0, 346.0, 346.0, 343.0, 345.0, 346.0, 347.0, 345.0, 346.0, 347.0, 348.0, 345.0, 346.0, 347.0, 347.0, 347.0, 347.0, 347.0, 347.0, 345.0, 346.0, 347.0, 346.0, 345.0, 346.0, 346.0, 344.0, 344.0, 346.0, 346.0, 345.0, 346.0, 348.0, 346.0, 346.0, 347.0, 347.0, 345.0, 346.0, 345.0, 348.0, 345.0, 345.0, 347.0, 346.0, 343.0, 346.0, 346.0, 345.0, 345.0, 345.0, 347.0, 347.0, 344.0, 345.0, 347.0, 347.0, 345.0, 346.0, 346.0, 346.0, 345.0, 346.0, 347.0],
