{
  "AcquisitionMatrixPE": 96,
  "AcquisitionNumber": 1,
  "AcquisitionTime": "13:16:8.855000",
  "BandwidthPerPixelPhaseEncode": 18.939,
  "BaseResolution": 96,
  "BodyPartExamined": "BRAIN",
  "ConsistencyInfo": "N4_VE11C_LATEST_20160120",
  "ConversionSoftware": "dcm2niix",
  "ConversionSoftwareVersion": "v1.0.20170923 (OpenJPEG build) GCC6.3.0",
  "DerivedVendorReportedEchoSpacing": 0.000550011,
  "DeviceSerialNumber": "66112",
  "DwellTime": 2.3e-06,
  "EchoTime": 0.033,
  "EchoTrainLength": 96,
  "EffectiveEchoSpacing": 0.000550011,
  "FlipAngle": 64,
  "ImageType": [
    "ORIGINAL",
    "PRIMARY",
    "FMRI",
    "NONE",
    "ND",
    "NORM",
    "MOSAIC"
],
  "InstitutionAddress": "Maynard_3_Hanover_NH_US_03755",
  "InstitutionName": "Dartmouth_College_-_PBS",
  "MagneticFieldStrength": 3,
  "Manufacturer": "Siemens",
  "ManufacturersModelName": "Prisma",
  "Modality": "MR",
  "MultibandAccelerationFactor": 4,
  "PartialFourier": 1,
  "PercentPhaseFOV": 100,
  "PhaseEncodingDirection": "j-",
  "PhaseEncodingSteps": 96,
  "PhaseResolution": 1,
  "ProcedureStepDescription": "Gobbini_Matteo_1017_famface-angles",
  "ProtocolName": "func_run-08_task-fam1back",
  "PulseSequenceDetails": "%SiemensSeq%_ep2d_bold",
  "ReceiveCoilActiveElements": "HEA;HEP",
  "ReceiveCoilName": "Head_32",
  "ReconMatrixPE": 96,
  "RepetitionTime": 1.25,
  "ScanOptions": "FS",
  "ScanningSequence": "EP",
  "SequenceName": "_epfid2d1_96",
  "SequenceVariant": "SK",
  "SeriesDescription": "func_run-08_task-fam1back",
  "SliceTiming": [0.8775, 0, 0.615, 0.0875, 0.7025, 0.175, 0.79, 0.35, 0.965, 0.44, 1.055, 0.5275, 1.1425, 0.2625, 0.8775, 0, 0.615, 0.0875, 0.7025, 0.175, 0.79, 0.35, 0.965, 0.44, 1.055, 0.5275, 1.1425, 0.2625, 0.8775, 0, 0.615, 0.0875, 0.7025, 0.175, 0.79, 0.35, 0.965, 0.44, 1.055, 0.5275, 1.1425, 0.2625, 0.8775, 0, 0.615, 0.0875, 0.7025, 0.175, 0.79, 0.35, 0.965, 0.44, 1.055, 0.5275, 1.1425, 0.2625],
  "SoftwareVersions": "syngo_MR_E11",
  "StationName": "AWP66112",
  "TaskName": "fam1back",
  "TotalReadoutTime": 0.0522511,
  "dcmmeta_affine": [
    [-2.4997382164001465, 0.013961199671030045, 0.03338341787457466, 122.54183959960938],
    [0.020335182547569275, 2.449777126312256, 0.49817562103271484, -101.97747802734375],
    [0.0299307219684124, -0.4983949661254883, 2.449633836746216, -47.9638786315918],
    [0.0, 0.0, 0.0, 1.0]
],
  "dcmmeta_reorient_transform": [
    [0.0, -1.0, 0.0, 95.0],
    [1.0, 0.0, 0.0, 0.0],
    [0.0, 0.0, 1.0, 0.0],
    [0.0, 0.0, 0.0, 1.0]
],
  "dcmmeta_shape": [96, 96, 56, 280],
  "dcmmeta_slice_dim": 2,
  "dcmmeta_version": 0.6,
  "global": {
    "const": {
      "AccessionNumber": "A000285",
      "AcquisitionMatrix": [96, 0, 0, 96],
      "AngioFlag": "N",
      "BitsAllocated": 16,
      "BitsStored": 12,
      "BodyPartExamined": "BRAIN",
      "Columns": 768,
      "EchoNumbers": 1,
      "EchoTime": 33.0,
      "EchoTrainLength": 96,
      "FlipAngle": 64.0,
      "HighBit": 11,
      "ImageOrientationPatient": [0.99989524509127, -0.0081340732149, 0.01197228870331, 0.00558447988446, 0.979910814741, 0.19935799140756],
      "ImagePositionPatient": [-968.47112610083, -947.043802053, -272.82883587421],
      "ImageType": [
        "ORIGINAL",
        "PRIMARY",
        "FMRI",
        "NONE",
        "ND",
        "NORM",
        "MOSAIC"
],
      "ImagedNucleus": "1H",
      "ImagingFrequency": 123.252359,
      "InPlanePhaseEncodingDirection": "COL",
      "MRAcquisitionType": "2D",
      "MagneticFieldStrength": 3.0,
      "Manufacturer": "SIEMENS",
      "ManufacturerModelName": "Prisma",
      "Modality": "MR",
      "NumberOfAverages": 1.0,
      "NumberOfPhaseEncodingSteps": 96,
      "PercentPhaseFieldOfView": 100.0,
      "PercentSampling": 100.0,
      "PerformedProcedureStepStartTime": "120812.665000",
      "PhotometricInterpretation": "MONOCHROME2",
      "PixelBandwidth": 2265.0,
      "PixelRepresentation": 0,
      "PixelSpacing": [2.5, 2.5],
      "PositionReferenceIndicator": "",
      "ProtocolName": "func_run-08_task-fam1back",
      "RepetitionTime": 1250.0,
      "Rows": 768,
      "SAR": 0.05808462306814,
      "SamplesPerPixel": 1,
      "ScanOptions": "FS",
      "ScanningSequence": "EP",
      "SequenceName": "*epfid2d1_96",
      "SequenceVariant": "SK",
      "SeriesDescription": "func_run-08_task-fam1back",
      "SeriesNumber": 57,
      "SeriesTime": "131610.653000",
      "SliceLocation": -65.682309000434,
      "SliceThickness": 2.5,
      "SmallestImagePixelValue": 0,
      "SoftwareVersions": "syngo MR E11",
      "SpacingBetweenSlices": 2.4999999533031,
      "SpecificCharacterSet": "ISO_IR 100",
      "StudyID": "3",
      "StudyTime": "120812.577000",
      "TransmitCoilName": "Body",
      "VariableFlipAngleFlag": "N",
      "WindowCenterWidthExplanation": "Algo1",
      "dBdt": 0.0},
    "slices": {}
  },
  "time": {
    "samples": {
      "AcquisitionNumber": [1, 2, 3, 4, 5, 6, 7, 8, 9, 10, 11, 12, 13, 14, 15, 16, 17, 18, 19, 20, 21, 22, 23, 24, 25, 26, 27, 28, 29, 30, 31, 32, 33, 34, 35, 36, 37, 38, 39, 40, 41, 42, 43, 44, 45, 46, 47, 48, 49, 50, 51, 52, 53, 54, 55, 56, 57, 58, 59, 60, 61, 62, 63, 64, 65, 66, 67, 68, 69, 70, 71, 72, 73, 74, 75, 76, 77, 78, 79, 80, 81, 82, 83, 84, 85, 86, 87, 88, 89, 90, 91, 92, 93, 94, 95, 96, 97, 98, 99, 100, 101, 102, 103, 104, 105, 106, 107, 108, 109, 110, 111, 112, 113, 114, 115, 116, 117, 118, 119, 120, 121, 122, 123, 124, 125, 126, 127, 128, 129, 130, 131, 132, 133, 134, 135, 136, 137, 138, 139, 140, 141, 142, 143, 144, 145, 146, 147, 148, 149, 150, 151, 152, 153, 154, 155, 156, 157, 158, 159, 160, 161, 162, 163, 164, 165, 166, 167, 168, 169, 170, 171, 172, 173, 174, 175, 176, 177, 178, 179, 180, 181, 182, 183, 184, 185, 186, 187, 188, 189, 190, 191, 192, 193, 194, 195, 196, 197, 198, 199, 200, 201, 202, 203, 204, 205, 206, 207, 208, 209, 210, 211, 212, 213, 214, 215, 216, 217, 218, 219, 220, 221, 222, 223, 224, 225, 226, 227, 228, 229, 230, 231, 232, 233, 234, 235, 236, 237, 238, 239, 240, 241, 242, 243, 244, 245, 246, 247, 248, 249, 250, 251, 252, 253, 254, 255, 256, 257, 258, 259, 260, 261, 262, 263, 264, 265, 266, 267, 268, 269, 270, 271, 272, 273, 274, 275, 276, 277, 278, 279, 280],
      "AcquisitionTime": ["131608.855000", "131610.105000", "131611.355000", "131612.605000", "131613.855000", "131615.105000", "131616.355000", "131617.605000", "131618.855000", "131620.105000", "131621.355000", "131622.605000", "131623.855000", "131625.105000", "131626.355000", "131627.605000", "131628.855000", "131630.105000", "131631.355000", "131632.605000", "131633.855000", "131635.105000", "131636.355000", "131637.605000", "131638.855000", "131640.105000", "131641.355000", "131642.605000", "131643.855000", "131645.105000", "131646.355000", "131647.605000", "131648.855000", "131650.105000", "131651.355000", "131652.605000", "131653.855000", "131655.105000", "131656.355000", "131657.605000", "131658.855000", "131700.105000", "131701.355000", "131702.605000", "131703.855000", "131705.105000", "131706.355000", "131707.605000", "131708.855000", "131710.105000", "131711.355000", "131712.605000", "131713.855000", "131715.105000", "131716.355000", "131717.605000", "131718.855000", "131720.105000", "131721.355000", "131722.605000", "131723.855000", "131725.105000", "131726.355000", "131727.605000", "131728.855000", "131730.105000", "131731.355000", "131732.605000", "131733.855000", "131735.105000", "131736.355000", "131737.605000", "131738.855000", "131740.105000", "131741.355000", "131742.605000", "131743.855000", "131745.105000", "131746.355000", "131747.605000", "131748.855000", "131750.105000", "131751.355000", "131752.605000", "131753.855000", "131755.105000", "131756.355000", "131757.605000", "131758.855000", "131800.105000", "131801.355000", "131802.605000", "131803.855000", "131805.105000", "131806.355000", "131807.605000", "131808.855000", "131810.105000", "131811.355000", "131812.605000", "131813.855000", "131815.105000", "131816.355000", "131817.605000", "131818.855000", "131820.105000", "131821.355000", "131822.605000", "131823.855000", "131825.105000", "131826.355000", "131827.605000", "131828.855000", "131830.105000", "131831.355000", "131832.605000", "131833.855000", "131835.105000", "131836.355000", "131837.605000", "131838.855000", "131840.105000", "131841.355000", "131842.605000", "131843.855000", "131845.105000", "131846.355000", "131847.605000", "131848.855000", "131850.105000", "131851.355000", "131852.605000", "131853.855000", "131855.105000", "131856.355000", "131857.605000", "131858.855000", "131900.105000", "131901.355000", "131902.605000", "131903.855000", "131905.105000", "131906.355000", "131907.605000", "131908.855000", "131910.105000", "131911.355000", "131912.605000", "131913.855000", "131915.105000", "131916.355000", "131917.605000", "131918.855000", "131920.105000", "131921.355000", "131922.605000", "131923.855000", "131925.105000", "131926.355000", "131927.605000", "131928.855000", "131930.105000", "131931.355000", "131932.605000", "131933.855000", "131935.105000", "131936.355000", "131937.605000", "131938.855000", "131940.105000", "131941.355000", "131942.605000", "131943.855000", "131945.105000", "131946.355000", "131947.605000", "131948.855000", "131950.105000", "131951.355000", "131952.605000", "131953.855000", "131955.105000", "131956.355000", "131957.605000", "131958.855000", "132000.105000", "132001.355000", "132002.605000", "132003.855000", "132005.105000", "132006.355000", "132007.605000", "132008.855000", "132010.105000", "132011.355000", "132012.605000", "132013.855000", "132015.105000", "132016.355000", "132017.605000", "132018.855000", "132020.105000", "132021.355000", "132022.605000", "132023.855000", "132025.105000", "132026.355000", "132027.605000", "132028.855000", "132030.105000", "132031.355000", "132032.605000", "132033.855000", "132035.105000", "132036.355000", "132037.605000", "132038.855000", "132040.105000", "132041.355000", "132042.605000", "132043.855000", "132045.105000", "132046.355000", "132047.605000", "132048.855000", "132050.105000", "132051.355000", "132052.605000", "132053.855000", "132055.105000", "132056.355000", "132057.605000", "132058.855000", "132100.105000", "132101.355000", "132102.605000", "132103.855000", "132105.105000", "132106.355000", "132107.605000", "132108.855000", "132110.105000", "132111.355000", "132112.605000", "132113.855000", "132115.105000", "132116.355000", "132117.605000", "132118.855000", "132120.105000", "132121.355000", "132122.605000", "132123.855000", "132125.105000", "132126.355000", "132127.605000", "132128.855000", "132130.105000", "132131.355000", "132132.605000", "132133.855000", "132135.105000", "132136.355000", "132137.605000", "132138.855000", "132140.105000", "132141.355000", "132142.605000", "132143.855000", "132145.105000", "132146.355000", "132147.605000", "132148.855000", "132150.105000", "132151.355000", "132152.605000", "132153.855000", "132155.105000", "132156.355000", "132157.605000"],
      "ContentTime": ["131610.657000", "131611.712000", "131612.990000", "131614.253000", "131615.485000", "131616.765000", "131617.966000", "131619.295000", "131620.474000", "131621.713000", "131622.960000", "131624.234000", "131625.468000", "131626.719000", "131627.965000", "131629.212000", "131630.474000", "131631.714000", "131632.988000", "131634.223000", "131635.458000", "131636.763000", "131637.965000", "131639.220000", "131640.470000", "131641.716000", "131642.991000", "131644.218000", "131645.458000", "131646.732000", "131647.982000", "131649.225000", "131650.504000", "131651.722000", "131652.961000", "131654.220000", "131655.481000", "131656.708000", "131657.978000", "131659.247000", "131700.479000", "131701.709000", "131702.959000", "131704.218000", "131705.461000", "131706.731000", "131707.952000", "131709.230000", "131710.483000", "131711.711000", "131712.956000", "131714.250000", "131715.510000", "131716.691000", "131717.969000", "131719.219000", "131720.473000", "131721.799000", "131722.977000", "131724.224000", "131725.469000", "131726.698000", "131727.970000", "131729.211000", "131730.463000", "131731.708000", "131733.043000", "131734.212000", "131735.502000", "131736.707000", "131737.967000", "131739.227000", "131740.457000", "131741.779000", "131742.981000", "131744.219000", "131745.460000", "131746.732000", "131747.952000", "131749.214000", "131750.473000", "131751.709000", "131752.954000", "131754.234000", "131755.496000", "131756.715000", "131757.964000", "131759.217000", "131800.480000", "131801.736000", "131802.972000", "131804.208000", "131805.463000", "131806.730000", "131808.001000", "131809.214000", "131810.446000", "131811.721000", "131812.963000", "131814.223000", "131815.479000", "131816.718000", "131818.012000", "131819.234000", "131820.475000", "131821.735000", "131822.979000", "131824.236000", "131825.486000", "131826.744000", "131827.963000", "131829.226000", "131830.470000", "131831.775000", "131832.972000", "131834.237000", "131835.500000", "131836.718000", "131837.979000", "131839.225000", "131840.496000", "131841.735000", "131843.003000", "131844.247000", "131845.492000", "131846.729000", "131847.978000", "131849.230000", "131850.504000", "131851.712000", "131852.991000", "131854.226000", "131855.475000", "131856.718000", "131857.972000", "131859.223000", "131900.471000", "131901.749000", "131902.987000", "131904.231000", "131905.489000", "131906.756000", "131907.970000", "131909.232000", "131910.479000", "131911.738000", "131912.993000", "131914.241000", "131915.490000", "131916.721000", "131917.984000", "131919.230000", "131920.477000", "131921.731000", "131922.971000", "131924.206000", "131925.486000", "131926.722000", "131927.963000", "131929.250000", "131930.455000", "131931.724000", "131932.970000", "131934.210000", "131935.464000", "131936.743000", "131938.016000", "131939.256000", "131940.486000", "131941.751000", "131942.969000", "131944.221000", "131945.465000", "131946.749000", "131947.961000", "131949.243000", "131950.501000", "131951.710000", "131952.965000", "131954.228000", "131955.526000", "131956.723000", "131957.978000", "131959.216000", "132000.482000", "132001.708000", "132002.977000", "132004.240000", "132005.475000", "132006.703000", "132007.976000", "132009.232000", "132010.478000", "132011.719000", "132012.963000", "132014.228000", "132015.493000", "132016.733000", "132017.951000", "132019.233000", "132020.517000", "132021.736000", "132022.974000", "132024.209000", "132025.477000", "132026.726000", "132027.972000", "132029.228000", "132030.481000", "132031.732000", "132032.998000", "132034.257000", "132035.477000", "132036.720000", "132037.960000", "132039.231000", "132040.482000", "132041.741000", "132042.966000", "132044.214000", "132045.518000", "132046.722000", "132047.992000", "132049.217000", "132050.467000", "132051.720000", "132052.972000", "132054.231000", "132055.468000", "132056.725000", "132058.000000", "132059.226000", "132100.503000", "132101.760000", "132103.003000", "132104.246000", "132105.475000", "132106.730000", "132107.965000", "132109.234000", "132110.471000", "132111.730000", "132112.980000", "132114.210000", "132115.456000", "132116.738000", "132118.032000", "132119.256000", "132120.479000", "132121.735000", "132122.974000", "132124.253000", "132125.522000", "132126.741000", "132127.986000", "132129.220000", "132130.464000", "132131.718000", "132132.985000", "132134.247000", "132135.481000", "132136.711000", "132137.985000", "132139.226000", "132140.464000", "132141.741000", "132142.985000", "132144.235000", "132145.484000", "132146.732000", "132147.983000", "132149.214000", "132150.526000", "132151.788000", "132153.005000", "132154.232000", "132155.473000", "132156.728000", "132157.966000", "132159.297000"],
      "InstanceCreationTime": ["131610.657000", "131611.712000", "131612.990000", "131614.253000", "131615.485000", "131616.765000", "131617.966000", "131619.295000", "131620.474000", "131621.713000", "131622.960000", "131624.234000", "131625.468000", "131626.719000", "131627.965000", "131629.212000", "131630.474000", "131631.714000", "131632.988000", "131634.223000", "131635.458000", "131636.763000", "131637.965000", "131639.220000", "131640.470000", "131641.716000", "131642.991000", "131644.218000", "131645.458000", "131646.732000", "131647.982000", "131649.225000", "131650.504000", "131651.722000", "131652.961000", "131654.220000", "131655.481000", "131656.708000", "131657.978000", "131659.247000", "131700.479000", "131701.709000", "131702.959000", "131704.218000", "131705.461000", "131706.731000", "131707.952000", "131709.230000", "131710.483000", "131711.711000", "131712.956000", "131714.250000", "131715.510000", "131716.691000", "131717.969000", "131719.219000", "131720.473000", "131721.799000", "131722.977000", "131724.224000", "131725.469000", "131726.698000", "131727.970000", "131729.211000", "131730.463000", "131731.708000", "131733.043000", "131734.212000", "131735.502000", "131736.707000", "131737.967000", "131739.227000", "131740.457000", "131741.779000", "131742.981000", "131744.219000", "131745.460000", "131746.732000", "131747.952000", "131749.214000", "131750.473000", "131751.709000", "131752.954000", "131754.234000", "131755.496000", "131756.715000", "131757.964000", "131759.217000", "131800.480000", "131801.736000", "131802.972000", "131804.208000", "131805.463000", "131806.730000", "131808.001000", "131809.214000", "131810.446000", "131811.721000", "131812.963000", "131814.223000", "131815.479000", "131816.718000", "131818.012000", "131819.234000", "131820.475000", "131821.735000", "131822.979000", "131824.236000", "131825.486000", "131826.744000", "131827.963000", "131829.226000", "131830.470000", "131831.775000", "131832.972000", "131834.237000", "131835.500000", "131836.718000", "131837.979000", "131839.225000", "131840.496000", "131841.735000", "131843.003000", "131844.247000", "131845.492000", "131846.729000", "131847.978000", "131849.230000", "131850.504000", "131851.712000", "131852.991000", "131854.226000", "131855.475000", "131856.718000", "131857.972000", "131859.223000", "131900.471000", "131901.749000", "131902.987000", "131904.231000", "131905.489000", "131906.756000", "131907.970000", "131909.232000", "131910.479000", "131911.738000", "131912.993000", "131914.241000", "131915.490000", "131916.721000", "131917.984000", "131919.230000", "131920.477000", "131921.731000", "131922.971000", "131924.206000", "131925.486000", "131926.722000", "131927.963000", "131929.250000", "131930.455000", "131931.724000", "131932.970000", "131934.210000", "131935.464000", "131936.743000", "131938.016000", "131939.256000", "131940.486000", "131941.751000", "131942.969000", "131944.221000", "131945.465000", "131946.749000", "131947.961000", "131949.243000", "131950.501000", "131951.710000", "131952.965000", "131954.228000", "131955.526000", "131956.723000", "131957.978000", "131959.216000", "132000.482000", "132001.708000", "132002.977000", "132004.240000", "132005.475000", "132006.703000", "132007.976000", "132009.232000", "132010.478000", "132011.719000", "132012.963000", "132014.228000", "132015.493000", "132016.733000", "132017.951000", "132019.233000", "132020.517000", "132021.736000", "132022.974000", "132024.209000", "132025.477000", "132026.726000", "132027.972000", "132029.228000", "132030.481000", "132031.732000", "132032.998000", "132034.257000", "132035.477000", "132036.720000", "132037.960000", "132039.231000", "132040.482000", "132041.741000", "132042.966000", "132044.214000", "132045.518000", "132046.722000", "132047.992000", "132049.217000", "132050.467000", "132051.720000", "132052.972000", "132054.231000", "132055.468000", "132056.725000", "132058.000000", "132059.226000", "132100.503000", "132101.760000", "132103.003000", "132104.246000", "132105.475000", "132106.730000", "132107.965000", "132109.234000", "132110.471000", "132111.730000", "132112.980000", "132114.210000", "132115.456000", "132116.738000", "132118.032000", "132119.256000", "132120.479000", "132121.735000", "132122.974000", "132124.253000", "132125.522000", "132126.741000", "132127.986000", "132129.220000", "132130.464000", "132131.718000", "132132.985000", "132134.247000", "132135.481000", "132136.711000", "132137.985000", "132139.226000", "132140.464000", "132141.741000", "132142.985000", "132144.235000", "132145.484000", "132146.732000", "132147.983000", "132149.214000", "132150.526000", "132151.788000", "132153.005000", "132154.232000", "132155.473000", "132156.728000", "132157.966000", "132159.297000"],
      "InstanceNumber": [1, 2, 3, 4, 5, 6, 7, 8, 9, 10, 11, 12, 13, 14, 15, 16, 17, 18, 19, 20, 21, 22, 23, 24, 25, 26, 27, 28, 29, 30, 31, 32, 33, 34, 35, 36, 37, 38, 39, 40, 41, 42, 43, 44, 45, 46, 47, 48, 49, 50, 51, 52, 53, 54, 55, 56, 57, 58, 59, 60, 61, 62, 63, 64, 65, 66, 67, 68, 69, 70, 71, 72, 73, 74, 75, 76, 77, 78, 79, 80, 81, 82, 83, 84, 85, 86, 87, 88, 89, 90, 91, 92, 93, 94, 95, 96, 97, 98, 99, 100, 101, 102, 103, 104, 105, 106, 107, 108, 109, 110, 111, 112, 113, 114, 115, 116, 117, 118, 119, 120, 121, 122, 123, 124, 125, 126, 127, 128, 129, 130, 131, 132, 133, 134, 135, 136, 137, 138, 139, 140, 141, 142, 143, 144, 145, 146, 147, 148, 149, 150, 151, 152, 153, 154, 155, 156, 157, 158, 159, 160, 161, 162, 163, 164, 165, 166, 167, 168, 169, 170, 171, 172, 173, 174, 175, 176, 177, 178, 179, 180, 181, 182, 183, 184, 185, 186, 187, 188, 189, 190, 191, 192, 193, 194, 195, 196, 197, 198, 199, 200, 201, 202, 203, 204, 205, 206, 207, 208, 209, 210, 211, 212, 213, 214, 215, 216, 217, 218, 219, 220, 221, 222, 223, 224, 225, 226, 227, 228, 229, 230, 231, 232, 233, 234, 235, 236, 237, 238, 239, 240, 241, 242, 243, 244, 245, 246, 247, 248, 249, 250, 251, 252, 253, 254, 255, 256, 257, 258, 259, 260, 261, 262, 263, 264, 265, 266, 267, 268, 269, 270, 271, 272, 273, 274, 275, 276, 277, 278, 279, 280],
      "LargestImagePixelValue": [1336, 1228, 986, 1268, 1234, 1297, 1048, 991, 1361, 1285, 1018, 1038, 1087, 938, 1091, 1249, 974, 973, 1013, 1139, 1355, 1022, 953, 1085, 952, 921, 1269, 1246, 1459, 1033, 914, 1122, 1098, 1299, 1029, 1024, 942, 950, 1118, 962, 906, 1281, 1097, 981, 1252, 1181, 1216, 1409, 984, 930, 1189, 935, 1144, 1266, 1183, 1224, 1031, 952, 1192, 902, 1243, 1176, 979, 1311, 1118, 1072, 1065, 980, 1233, 1242, 973, 913, 1201, 979, 945, 927, 1215, 1400, 991, 960, 1134, 1349, 1006, 903, 1253, 1208, 989, 1013, 936, 1051, 931, 1079, 983, 952, 1289, 1139, 1042, 957, 1132, 1264, 1106, 1006, 1171, 1033, 1209, 1289, 995, 901, 1202, 1316, 1009, 922, 1123, 931, 954, 1056, 882, 1007, 1267, 1013, 983, 1087, 956, 1182, 1384, 1044, 901, 1077, 1234, 1052, 924, 1048, 1087, 1308, 1097, 962, 949, 1282, 1031, 1001, 1223, 1124, 1305, 1021, 958, 872, 1170, 996, 936, 1056, 944, 932, 946, 1054, 1166, 1341, 1199, 951, 930, 1318, 935, 1345, 1440, 1181, 1035, 883, 926, 950, 1312, 1046, 888, 1046, 880, 918, 865, 983, 1344, 1196, 1017, 1033, 1011, 1178, 1112, 978, 899, 937, 1179, 1002, 1004, 884, 930, 1248, 1199, 924, 985, 882, 1077, 1389, 1064, 1012, 890, 968, 968, 1078, 1110, 1168, 1355, 1115, 1261, 1014, 931, 915, 988, 1070, 932, 918, 1008, 1100, 1160, 1332, 1417, 1098, 1174, 1130, 1074, 1447, 1016, 909, 1200, 1108, 1456, 1023, 893, 1114, 1082, 909, 954, 932, 981, 925, 901, 919, 1111, 1006, 925, 1036, 1329, 1090, 1112, 1243, 1081, 1325, 1179, 905, 928, 1289, 1203, 965, 1152, 980, 882, 992, 1082, 916, 959, 1280, 1076, 1072, 1105, 1308, 1371, 1335, 1081, 941, 938, 936, 1141, 895, 919, 1150],
      "WindowCenter": [411.0, 409.0, 406.0, 408.0, 407.0, 408.0, 405.0, 405.0, 407.0, 406.0, 404.0, 403.0, 403.0, 402.0, 404.0, 405.0, 402.0, 403.0, 403.0, 404.0, 406.0, 403.0, 403.0, 404.0, 406.0, 405.0, 408.0, 407.0, 407.0, 404.0, 403.0, 404.0, 404.0, 406.0, 403.0, 403.0, 402.0, 404.0, 406.0, 405.0, 404.0, 407.0, 406.0, 404.0, 406.0, 406.0, 406.0, 406.0, 402.0, 403.0, 405.0, 404.0, 405.0, 406.0, 405.0, 405.0, 404.0, 404.0, 406.0, 403.0, 406.0, 405.0, 404.0, 406.0, 405.0, 404.0, 404.0, 402.0, 405.0, 404.0, 402.0, 401.0, 404.0, 402.0, 402.0, 402.0, 405.0, 406.0, 404.0, 404.0, 405.0, 406.0, 402.0, 401.0, 404.0, 403.0, 401.0, 401.0, 400.0, 403.0, 401.0, 403.0, 402.0, 402.0, 405.0, 405.0, 405.0, 406.0, 407.0, 407.0, 405.0, 404.0, 404.0, 404.0, 404.0, 405.0, 402.0, 401.0, 404.0, 405.0, 402.0, 403.0, 405.0, 405.0, 405.0, 405.0, 404.0, 405.0, 407.0, 404.0, 404.0, 405.0, 403.0, 405.0, 406.0, 403.0, 401.0, 403.0, 405.0, 405.0, 404.0, 405.0, 405.0, 407.0, 405.0, 403.0, 403.0, 406.0, 404.0, 404.0, 406.0, 405.0, 406.0, 403.0, 402.0, 401.0, 404.0, 402.0, 402.0, 403.0, 403.0, 404.0, 404.0, 406.0, 406.0, 408.0, 408.0, 406.0, 404.0, 407.0, 403.0, 407.0, 406.0, 404.0, 402.0, 401.0, 402.0, 402.0, 405.0, 403.0, 401.0, 403.0, 403.0, 404.0, 403.0, 404.0, 406.0, 405.0, 403.0, 403.0, 404.0, 405.0, 404.0, 402.0, 401.0, 402.0, 405.0, 403.0, 403.0, 402.0, 403.0, 405.0, 405.0, 402.0, 403.0, 402.0, 404.0, 406.0, 404.0, 403.0, 402.0, 403.0, 404.0, 405.0, 405.0, 405.0, 405.0, 404.0, 404.0, 402.0, 401.0, 401.0, 402.0, 404.0, 403.0, 402.0, 405.0, 407.0, 408.0, 409.0, 408.0, 405.0, 405.0, 404.0, 403.0, 406.0, 402.0, 401.0, 404.0, 403.0, 405.0, 401.0, 400.0, 402.0, 401.0, 400.0, 401.0, 402.0, 403.0, 403.0, 403.0, 404.0, 406.0, 404.0, 404.0, 406.0, 408.0, 406.0, 405.0, 405.0, 404.0, 406.0, 405.0, 403.0, 403.0, 405.0, 404.0, 402.0, 403.0, 401.0, 399.0, 401.0, 403.0, 403.0, 404.0, 407.0, 404.0, 404.0, 405.0, 405.0, 404.0, 404.0, 402.0, 400.0, 400.0, 401.0, 404.0, 402.0, 402.0, 405.0],
      "WindowWidth": [869.0, 864.0, 860.0, 862.0, 860.0, 862.0, 858.0, 857.0, 861.0, 858.0, 855.0, 855.0, 853.0, 853.0, 856.0, 857.0, 853.0, 854.0, 854.0, 855.0, 859.0, 854.0, 854.0, 855.0, 860.0, 858.0, 862.0, 861.0, 861.0, 856.0, 855.0, 856.0, 856.0, 858.0, 854.0, 854.0, 853.0, 856.0, 859.0, 857.0, 856.0, 861.0, 860.0, 857.0, 860.0, 859.0, 859.0, 859.0, 853.0, 854.0, 858.0, 856.0, 858.0, 859.0, 858.0, 856.0, 855.0, 855.0, 859.0, 856.0, 859.0, 858.0, 855.0, 858.0, 857.0, 856.0, 856.0, 853.0, 857.0, 856.0, 853.0, 851.0, 856.0, 853.0, 853.0, 852.0, 857.0, 859.0, 855.0, 856.0, 857.0, 858.0, 852.0, 851.0, 856.0, 854.0, 850.0, 850.0, 849.0, 853.0, 851.0, 853.0, 852.0, 852.0, 856.0, 857.0, 857.0, 859.0, 860.0, 861.0, 858.0, 856.0, 856.0, 855.0, 856.0, 857.0, 853.0, 851.0, 855.0, 857.0, 852.0, 854.0, 858.0, 857.0, 858.0, 858.0, 857.0, 858.0, 860.0, 857.0, 856.0, 857.0, 855.0, 857.0, 858.0, 855.0, 851.0, 855.0, 857.0, 857.0, 856.0, 858.0, 858.0, 860.0, 858.0, 855.0, 854.0, 859.0, 856.0, 856.0, 858.0, 857.0, 858.0, 854.0, 852.0, 850.0, 855.0, 853.0, 852.0, 853.0, 854.0, 856.0, 856.0, 859.0, 860.0, 863.0, 864.0, 859.0, 857.0, 861.0, 855.0, 860.0, 859.0, 855.0, 852.0, 851.0, 852.0, 853.0, 857.0, 855.0, 851.0, 854.0, 854.0, 856.0, 855.0, 856.0, 859.0, 857.0, 854.0, 854.0, 855.0, 858.0, 856.0, 853.0, 851.0, 852.0, 856.0, 854.0, 854.0, 852.0, 853.0, 857.0, 857.0, 853.0, 855.0, 853.0, 856.0, 859.0, 855.0, 854.0, 853.0, 855.0, 857.0, 858.0, 858.0, 857.0, 857.0, 855.0, 855.0, 852.0, 851.0, 851.0, 852.0, 855.0, 854.0, 853.0, 857.0, 861.0, 863.0, 864.0, 863.0, 857.0, 856.0, 855.0, 854.0, 858.0, 852.0, 851.0, 854.0, 854.0, 856.0, 851.0, 849.0, 851.0, 850.0, 848.0, 851.0, 851.0, 853.0, 854.0, 854.0, 856.0, 858.0, 857.0, 856.0, 859.0, 863.0, 859.0, 858.0, 857.0, 856.0, 859.0, 857.0, 854.0, 853.0, 857.0, 855.0, 852.0, 853.0, 850.0, 847.0, 851.0, 855.0, 855.0, 855.0, 860.0, 856.0, 856.0, 857.0, 857.0, 855.0, 854.0, 851.0, 848.0, 849.0, 850.0, 855.0, 852.0, 853.0, 857.0]
    },
    "slices": {}
  }
}