{
  "AcquisitionMatrixPE": 96,
  "AcquisitionNumber": 1,
  "AcquisitionTime": "12:55:29.060000",
  "BandwidthPerPixelPhaseEncode": 18.939,
  "BaseResolution": 96,
  "BodyPartExamined": "BRAIN",
  "ConsistencyInfo": "N4_VE11C_LATEST_20160120",
  "ConversionSoftware": "dcm2niix",
  "ConversionSoftwareVersion": "v1.0.20170923 (OpenJPEG build) GCC6.3.0",
  "DerivedVendorReportedEchoSpacing": 0.000550011,
  "DeviceSerialNumber": "66112",
  "DwellTime": 2.3e-06,
  "EchoTime": 0.033,
  "EchoTrainLength": 96,
  "EffectiveEchoSpacing": 0.000550011,
  "FlipAngle": 64,
  "ImageType": [
    "ORIGINAL",
    "PRIMARY",
    "FMRI",
    "NONE",
    "ND",
    "NORM",
    "MOSAIC"
],
  "InstitutionAddress": "Maynard_3_Hanover_NH_US_03755",
  "InstitutionName": "Dartmouth_College_-_PBS",
  "MagneticFieldStrength": 3,
  "Manufacturer": "Siemens",
  "ManufacturersModelName": "Prisma",
  "Modality": "MR",
  "MultibandAccelerationFactor": 4,
  "PartialFourier": 1,
  "PercentPhaseFOV": 100,
  "PhaseEncodingDirection": "j-",
  "PhaseEncodingSteps": 96,
  "PhaseResolution": 1,
  "ProcedureStepDescription": "Gobbini_Matteo_1017_famface-angles",
  "ProtocolName": "func_run-05_task-fam1back",
  "PulseSequenceDetails": "%SiemensSeq%_ep2d_bold",
  "ReceiveCoilActiveElements": "HEA;HEP",
  "ReceiveCoilName": "Head_32",
  "ReconMatrixPE": 96,
  "RepetitionTime": 1.25,
  "ScanOptions": "FS",
  "ScanningSequence": "EP",
  "SequenceName": "_epfid2d1_96",
  "SequenceVariant": "SK",
  "SeriesDescription": "func_run-05_task-fam1back",
  "SliceTiming": [0.8775, 0, 0.615, 0.0875, 0.7025, 0.175, 0.79, 0.35, 0.965, 0.4375, 1.0525, 0.5275, 1.14, 0.2625, 0.8775, 0, 0.615, 0.0875, 0.7025, 0.175, 0.79, 0.35, 0.965, 0.4375, 1.0525, 0.5275, 1.14, 0.2625, 0.8775, 0, 0.615, 0.0875, 0.7025, 0.175, 0.79, 0.35, 0.965, 0.4375, 1.0525, 0.5275, 1.14, 0.2625, 0.8775, 0, 0.615, 0.0875, 0.7025, 0.175, 0.79, 0.35, 0.965, 0.4375, 1.0525, 0.5275, 1.14, 0.2625],
  "SoftwareVersions": "syngo_MR_E11",
  "StationName": "AWP66112",
  "TaskName": "fam1back",
  "TotalReadoutTime": 0.0522511,
  "dcmmeta_affine": [
    [-2.4997382164001465, 0.013961199671030045, 0.03338341787457466, 122.54183959960938],
    [0.020335182547569275, 2.449777126312256, 0.49817562103271484, -101.97747802734375],
    [0.0299307219684124, -0.4983949661254883, 2.449633836746216, -47.9638786315918],
    [0.0, 0.0, 0.0, 1.0]
],
  "dcmmeta_reorient_transform": [
    [0.0, -1.0, 0.0, 95.0],
    [1.0, 0.0, 0.0, 0.0],
    [0.0, 0.0, 1.0, 0.0],
    [0.0, 0.0, 0.0, 1.0]
],
  "dcmmeta_shape": [96, 96, 56, 280],
  "dcmmeta_slice_dim": 2,
  "dcmmeta_version": 0.6,
  "global": {
    "const": {
      "AccessionNumber": "A000285",
      "AcquisitionMatrix": [96, 0, 0, 96],
      "AngioFlag": "N",
      "BitsAllocated": 16,
      "BitsStored": 12,
      "BodyPartExamined": "BRAIN",
      "Columns": 768,
      "EchoNumbers": 1,
      "EchoTime": 33.0,
      "EchoTrainLength": 96,
      "FlipAngle": 64.0,
      "HighBit": 11,
      "ImageOrientationPatient": [0.99989524509127, -0.0081340732149, 0.01197228870331, 0.00558447988446, 0.979910814741, 0.19935799140756],
      "ImagePositionPatient": [-968.47112610083, -947.043802053, -272.82883587421],
      "ImageType": [
        "ORIGINAL",
        "PRIMARY",
        "FMRI",
        "NONE",
        "ND",
        "NORM",
        "MOSAIC"
],
      "ImagedNucleus": "1H",
      "ImagingFrequency": 123.252353,
      "InPlanePhaseEncodingDirection": "COL",
      "MRAcquisitionType": "2D",
      "MagneticFieldStrength": 3.0,
      "Manufacturer": "SIEMENS",
      "ManufacturerModelName": "Prisma",
      "Modality": "MR",
      "NumberOfAverages": 1.0,
      "NumberOfPhaseEncodingSteps": 96,
      "PercentPhaseFieldOfView": 100.0,
      "PercentSampling": 100.0,
      "PerformedProcedureStepStartTime": "120812.665000",
      "PhotometricInterpretation": "MONOCHROME2",
      "PixelBandwidth": 2265.0,
      "PixelRepresentation": 0,
      "PixelSpacing": [2.5, 2.5],
      "PositionReferenceIndicator": "",
      "ProtocolName": "func_run-05_task-fam1back",
      "RepetitionTime": 1250.0,
      "Rows": 768,
      "SAR": 0.05808462306814,
      "SamplesPerPixel": 1,
      "ScanOptions": "FS",
      "ScanningSequence": "EP",
      "SequenceName": "*epfid2d1_96",
      "SequenceVariant": "SK",
      "SeriesDescription": "func_run-05_task-fam1back",
      "SeriesNumber": 36,
      "SeriesTime": "125530.742000",
      "SliceLocation": -65.682309000434,
      "SliceThickness": 2.5,
      "SmallestImagePixelValue": 0,
      "SoftwareVersions": "syngo MR E11",
      "SpacingBetweenSlices": 2.4999999533031,
      "SpecificCharacterSet": "ISO_IR 100",
      "StudyID": "3",
      "StudyTime": "120812.577000",
      "TransmitCoilName": "Body",
      "VariableFlipAngleFlag": "N",
      "WindowCenterWidthExplanation": "Algo1",
      "dBdt": 0.0},
    "slices": {}
  },
  "time": {
    "samples": {
      "AcquisitionNumber": [1, 2, 3, 4, 5, 6, 7, 8, 9, 10, 11, 12, 13, 14, 15, 16, 17, 18, 19, 20, 21, 22, 23, 24, 25, 26, 27, 28, 29, 30, 31, 32, 33, 34, 35, 36, 37, 38, 39, 40, 41, 42, 43, 44, 45, 46, 47, 48, 49, 50, 51, 52, 53, 54, 55, 56, 57, 58, 59, 60, 61, 62, 63, 64, 65, 66, 67, 68, 69, 70, 71, 72, 73, 74, 75, 76, 77, 78, 79, 80, 81, 82, 83, 84, 85, 86, 87, 88, 89, 90, 91, 92, 93, 94, 95, 96, 97, 98, 99, 100, 101, 102, 103, 104, 105, 106, 107, 108, 109, 110, 111, 112, 113, 114, 115, 116, 117, 118, 119, 120, 121, 122, 123, 124, 125, 126, 127, 128, 129, 130, 131, 132, 133, 134, 135, 136, 137, 138, 139, 140, 141, 142, 143, 144, 145, 146, 147, 148, 149, 150, 151, 152, 153, 154, 155, 156, 157, 158, 159, 160, 161, 162, 163, 164, 165, 166, 167, 168, 169, 170, 171, 172, 173, 174, 175, 176, 177, 178, 179, 180, 181, 182, 183, 184, 185, 186, 187, 188, 189, 190, 191, 192, 193, 194, 195, 196, 197, 198, 199, 200, 201, 202, 203, 204, 205, 206, 207, 208, 209, 210, 211, 212, 213, 214, 215, 216, 217, 218, 219, 220, 221, 222, 223, 224, 225, 226, 227, 228, 229, 230, 231, 232, 233, 234, 235, 236, 237, 238, 239, 240, 241, 242, 243, 244, 245, 246, 247, 248, 249, 250, 251, 252, 253, 254, 255, 256, 257, 258, 259, 260, 261, 262, 263, 264, 265, 266, 267, 268, 269, 270, 271, 272, 273, 274, 275, 276, 277, 278, 279, 280],
      "AcquisitionTime": ["125529.060000", "125530.310000", "125531.560000", "125532.810000", "125534.060000", "125535.310000", "125536.560000", "125537.810000", "125539.060000", "125540.310000", "125541.560000", "125542.810000", "125544.060000", "125545.310000", "125546.560000", "125547.810000", "125549.060000", "125550.310000", "125551.560000", "125552.810000", "125554.060000", "125555.310000", "125556.560000", "125557.810000", "125559.060000", "125600.310000", "125601.560000", "125602.810000", "125604.060000", "125605.310000", "125606.560000", "125607.810000", "125609.060000", "125610.310000", "125611.560000", "125612.810000", "125614.060000", "125615.310000", "125616.560000", "125617.810000", "125619.060000", "125620.310000", "125621.560000", "125622.810000", "125624.060000", "125625.310000", "125626.560000", "125627.810000", "125629.060000", "125630.310000", "125631.560000", "125632.810000", "125634.060000", "125635.310000", "125636.560000", "125637.810000", "125639.060000", "125640.310000", "125641.560000", "125642.810000", "125644.060000", "125645.310000", "125646.560000", "125647.810000", "125649.060000", "125650.310000", "125651.560000", "125652.810000", "125654.060000", "125655.310000", "125656.560000", "125657.810000", "125659.060000", "125700.310000", "125701.560000", "125702.810000", "125704.060000", "125705.310000", "125706.560000", "125707.810000", "125709.060000", "125710.310000", "125711.560000", "125712.810000", "125714.060000", "125715.310000", "125716.560000", "125717.810000", "125719.060000", "125720.310000", "125721.560000", "125722.810000", "125724.060000", "125725.310000", "125726.560000", "125727.810000", "125729.060000", "125730.310000", "125731.560000", "125732.810000", "125734.060000", "125735.310000", "125736.560000", "125737.810000", "125739.060000", "125740.310000", "125741.560000", "125742.810000", "125744.060000", "125745.310000", "125746.560000", "125747.810000", "125749.060000", "125750.310000", "125751.560000", "125752.810000", "125754.060000", "125755.310000", "125756.560000", "125757.810000", "125759.060000", "125800.310000", "125801.560000", "125802.810000", "125804.060000", "125805.310000", "125806.560000", "125807.810000", "125809.060000", "125810.310000", "125811.560000", "125812.810000", "125814.060000", "125815.310000", "125816.560000", "125817.810000", "125819.060000", "125820.310000", "125821.560000", "125822.810000", "125824.060000", "125825.310000", "125826.560000", "125827.810000", "125829.060000", "125830.310000", "125831.560000", "125832.810000", "125834.060000", "125835.310000", "125836.560000", "125837.810000", "125839.060000", "125840.310000", "125841.560000", "125842.810000", "125844.060000", "125845.310000", "125846.560000", "125847.810000", "125849.060000", "125850.310000", "125851.560000", "125852.810000", "125854.060000", "125855.310000", "125856.560000", "125857.810000", "125859.060000", "125900.310000", "125901.560000", "125902.810000", "125904.060000", "125905.310000", "125906.560000", "125907.810000", "125909.060000", "125910.310000", "125911.560000", "125912.810000", "125914.060000", "125915.310000", "125916.560000", "125917.810000", "125919.060000", "125920.310000", "125921.560000", "125922.810000", "125924.060000", "125925.310000", "125926.560000", "125927.810000", "125929.060000", "125930.310000", "125931.560000", "125932.810000", "125934.060000", "125935.310000", "125936.560000", "125937.810000", "125939.060000", "125940.310000", "125941.560000", "125942.810000", "125944.060000", "125945.310000", "125946.560000", "125947.810000", "125949.060000", "125950.310000", "125951.560000", "125952.810000", "125954.060000", "125955.310000", "125956.560000", "125957.810000", "125959.060000", "130000.310000", "130001.560000", "130002.810000", "130004.060000", "130005.310000", "130006.560000", "130007.810000", "130009.060000", "130010.310000", "130011.560000", "130012.810000", "130014.060000", "130015.310000", "130016.560000", "130017.810000", "130019.060000", "130020.310000", "130021.560000", "130022.810000", "130024.060000", "130025.310000", "130026.560000", "130027.810000", "130029.060000", "130030.310000", "130031.560000", "130032.810000", "130034.060000", "130035.310000", "130036.560000", "130037.810000", "130039.060000", "130040.310000", "130041.560000", "130042.810000", "130044.060000", "130045.310000", "130046.560000", "130047.810000", "130049.060000", "130050.310000", "130051.560000", "130052.810000", "130054.060000", "130055.310000", "130056.560000", "130057.810000", "130059.060000", "130100.310000", "130101.560000", "130102.810000", "130104.060000", "130105.310000", "130106.560000", "130107.810000", "130109.060000", "130110.310000", "130111.560000", "130112.810000", "130114.060000", "130115.310000", "130116.560000", "130117.810000"],
      "ContentTime": ["125530.746000", "125531.815000", "125533.054000", "125534.288000", "125535.571000", "125536.793000", "125538.056000", "125539.287000", "125540.561000", "125541.812000", "125543.052000", "125544.298000", "125545.535000", "125546.820000", "125548.061000", "125549.297000", "125550.560000", "125551.804000", "125553.030000", "125554.294000", "125555.539000", "125556.834000", "125558.053000", "125559.294000", "125600.545000", "125601.796000", "125603.068000", "125604.334000", "125605.543000", "125606.789000", "125608.059000", "125609.300000", "125610.555000", "125611.812000", "125613.058000", "125614.309000", "125615.584000", "125616.825000", "125618.124000", "125619.303000", "125620.550000", "125621.814000", "125623.055000", "125624.308000", "125625.548000", "125626.834000", "125628.070000", "125629.292000", "125630.552000", "125631.782000", "125633.046000", "125634.301000", "125635.570000", "125636.789000", "125638.058000", "125639.287000", "125640.550000", "125641.777000", "125643.063000", "125644.305000", "125645.538000", "125646.786000", "125648.049000", "125649.290000", "125650.539000", "125651.794000", "125653.046000", "125654.301000", "125655.576000", "125656.855000", "125658.054000", "125659.298000", "125700.560000", "125701.785000", "125703.061000", "125704.331000", "125705.543000", "125706.818000", "125708.063000", "125709.303000", "125710.563000", "125711.812000", "125713.042000", "125714.305000", "125715.612000", "125716.800000", "125718.062000", "125719.310000", "125720.557000", "125721.794000", "125723.050000", "125724.305000", "125725.551000", "125726.822000", "125728.043000", "125729.304000", "125730.539000", "125731.844000", "125733.058000", "125734.313000", "125735.572000", "125736.844000", "125738.053000", "125739.311000", "125740.564000", "125741.793000", "125743.077000", "125744.302000", "125745.561000", "125746.793000", "125748.054000", "125749.307000", "125750.578000", "125751.810000", "125753.057000", "125754.309000", "125755.554000", "125756.810000", "125758.047000", "125759.309000", "125800.573000", "125801.818000", "125803.073000", "125804.308000", "125805.538000", "125806.794000", "125808.049000", "125809.304000", "125810.564000", "125811.828000", "125813.032000", "125814.289000", "125815.574000", "125816.861000", "125818.061000", "125819.310000", "125820.569000", "125821.795000", "125823.060000", "125824.302000", "125825.546000", "125826.828000", "125828.085000", "125829.318000", "125830.575000", "125831.814000", "125833.095000", "125834.367000", "125835.557000", "125836.838000", "125838.082000", "125839.299000", "125840.578000", "125841.829000", "125843.061000", "125844.319000", "125845.574000", "125846.825000", "125848.052000", "125849.281000", "125850.546000", "125851.807000", "125853.066000", "125854.311000", "125855.565000", "125856.814000", "125858.075000", "125859.313000", "125900.566000", "125901.878000", "125903.055000", "125904.297000", "125905.551000", "125906.818000", "125908.039000", "125909.320000", "125910.658000", "125911.844000", "125913.058000", "125914.316000", "125915.565000", "125916.815000", "125918.048000", "125919.304000", "125920.614000", "125921.799000", "125923.063000", "125924.333000", "125925.575000", "125926.844000", "125928.094000", "125929.296000", "125930.574000", "125931.824000", "125933.056000", "125934.321000", "125935.567000", "125936.808000", "125938.061000", "125939.281000", "125940.571000", "125941.802000", "125943.055000", "125944.328000", "125945.590000", "125946.825000", "125948.087000", "125949.383000", "125950.547000", "125951.803000", "125953.058000", "125954.315000", "125955.552000", "125956.813000", "125958.092000", "125959.330000", "130000.559000", "130001.845000", "130003.027000", "130004.305000", "130005.561000", "130006.809000", "130008.101000", "130009.313000", "130010.583000", "130011.798000", "130013.100000", "130014.301000", "130015.559000", "130016.806000", "130018.060000", "130019.311000", "130020.580000", "130021.824000", "130023.051000", "130024.312000", "130025.567000", "130026.797000", "130028.045000", "130029.310000", "130030.573000", "130031.799000", "130033.094000", "130034.340000", "130035.593000", "130036.790000", "130038.066000", "130039.331000", "130040.575000", "130041.807000", "130043.048000", "130044.336000", "130045.558000", "130046.822000", "130048.075000", "130049.317000", "130050.587000", "130051.821000", "130053.075000", "130054.338000", "130055.560000", "130056.812000", "130058.060000", "130059.328000", "130100.555000", "130101.821000", "130103.064000", "130104.346000", "130105.559000", "130106.822000", "130108.046000", "130109.344000", "130110.574000", "130111.835000", "130113.112000", "130114.331000", "130115.627000", "130116.801000", "130118.070000", "130119.351000"],
      "InstanceCreationTime": ["125530.746000", "125531.815000", "125533.054000", "125534.288000", "125535.571000", "125536.793000", "125538.056000", "125539.287000", "125540.561000", "125541.812000", "125543.052000", "125544.298000", "125545.535000", "125546.820000", "125548.061000", "125549.297000", "125550.560000", "125551.804000", "125553.030000", "125554.294000", "125555.539000", "125556.834000", "125558.053000", "125559.294000", "125600.545000", "125601.796000", "125603.068000", "125604.334000", "125605.543000", "125606.789000", "125608.059000", "125609.300000", "125610.555000", "125611.812000", "125613.058000", "125614.309000", "125615.584000", "125616.825000", "125618.124000", "125619.303000", "125620.550000", "125621.814000", "125623.055000", "125624.308000", "125625.548000", "125626.834000", "125628.070000", "125629.292000", "125630.552000", "125631.782000", "125633.046000", "125634.301000", "125635.570000", "125636.789000", "125638.058000", "125639.287000", "125640.550000", "125641.777000", "125643.063000", "125644.305000", "125645.538000", "125646.786000", "125648.049000", "125649.290000", "125650.539000", "125651.794000", "125653.046000", "125654.301000", "125655.576000", "125656.855000", "125658.054000", "125659.298000", "125700.560000", "125701.785000", "125703.061000", "125704.331000", "125705.543000", "125706.818000", "125708.063000", "125709.303000", "125710.563000", "125711.812000", "125713.042000", "125714.305000", "125715.612000", "125716.800000", "125718.062000", "125719.310000", "125720.557000", "125721.794000", "125723.050000", "125724.305000", "125725.551000", "125726.822000", "125728.043000", "125729.304000", "125730.539000", "125731.844000", "125733.058000", "125734.313000", "125735.572000", "125736.844000", "125738.053000", "125739.311000", "125740.564000", "125741.793000", "125743.077000", "125744.302000", "125745.561000", "125746.793000", "125748.054000", "125749.307000", "125750.578000", "125751.810000", "125753.057000", "125754.309000", "125755.554000", "125756.810000", "125758.047000", "125759.309000", "125800.573000", "125801.818000", "125803.073000", "125804.308000", "125805.538000", "125806.794000", "125808.049000", "125809.304000", "125810.564000", "125811.828000", "125813.032000", "125814.289000", "125815.574000", "125816.861000", "125818.061000", "125819.310000", "125820.569000", "125821.795000", "125823.060000", "125824.302000", "125825.546000", "125826.828000", "125828.085000", "125829.318000", "125830.575000", "125831.814000", "125833.095000", "125834.367000", "125835.557000", "125836.838000", "125838.082000", "125839.299000", "125840.578000", "125841.829000", "125843.061000", "125844.319000", "125845.574000", "125846.825000", "125848.052000", "125849.281000", "125850.546000", "125851.807000", "125853.066000", "125854.311000", "125855.565000", "125856.814000", "125858.075000", "125859.313000", "125900.566000", "125901.878000", "125903.055000", "125904.297000", "125905.551000", "125906.818000", "125908.039000", "125909.320000", "125910.658000", "125911.844000", "125913.058000", "125914.316000", "125915.565000", "125916.815000", "125918.048000", "125919.304000", "125920.614000", "125921.799000", "125923.063000", "125924.333000", "125925.575000", "125926.844000", "125928.094000", "125929.296000", "125930.574000", "125931.824000", "125933.056000", "125934.321000", "125935.567000", "125936.808000", "125938.061000", "125939.281000", "125940.571000", "125941.802000", "125943.055000", "125944.328000", "125945.590000", "125946.825000", "125948.087000", "125949.383000", "125950.547000", "125951.803000", "125953.058000", "125954.315000", "125955.552000", "125956.813000", "125958.092000", "125959.330000", "130000.559000", "130001.845000", "130003.027000", "130004.305000", "130005.561000", "130006.809000", "130008.101000", "130009.313000", "130010.583000", "130011.798000", "130013.100000", "130014.301000", "130015.559000", "130016.806000", "130018.060000", "130019.311000", "130020.580000", "130021.824000", "130023.051000", "130024.312000", "130025.567000", "130026.797000", "130028.045000", "130029.310000", "130030.573000", "130031.799000", "130033.094000", "130034.340000", "130035.593000", "130036.790000", "130038.066000", "130039.331000", "130040.575000", "130041.807000", "130043.048000", "130044.336000", "130045.558000", "130046.822000", "130048.075000", "130049.317000", "130050.587000", "130051.821000", "130053.075000", "130054.338000", "130055.560000", "130056.812000", "130058.060000", "130059.328000", "130100.555000", "130101.821000", "130103.064000", "130104.346000", "130105.559000", "130106.822000", "130108.046000", "130109.344000", "130110.574000", "130111.835000", "130113.112000", "130114.331000", "130115.627000", "130116.801000", "130118.070000", "130119.351000"],
      "InstanceNumber": [1, 2, 3, 4, 5, 6, 7, 8, 9, 10, 11, 12, 13, 14, 15, 16, 17, 18, 19, 20, 21, 22, 23, 24, 25, 26, 27, 28, 29, 30, 31, 32, 33, 34, 35, 36, 37, 38, 39, 40, 41, 42, 43, 44, 45, 46, 47, 48, 49, 50, 51, 52, 53, 54, 55, 56, 57, 58, 59, 60, 61, 62, 63, 64, 65, 66, 67, 68, 69, 70, 71, 72, 73, 74, 75, 76, 77, 78, 79, 80, 81, 82, 83, 84, 85, 86, 87, 88, 89, 90, 91, 92, 93, 94, 95, 96, 97, 98, 99, 100, 101, 102, 103, 104, 105, 106, 107, 108, 109, 110, 111, 112, 113, 114, 115, 116, 117, 118, 119, 120, 121, 122, 123, 124, 125, 126, 127, 128, 129, 130, 131, 132, 133, 134, 135, 136, 137, 138, 139, 140, 141, 142, 143, 144, 145, 146, 147, 148, 149, 150, 151, 152, 153, 154, 155, 156, 157, 158, 159, 160, 161, 162, 163, 164, 165, 166, 167, 168, 169, 170, 171, 172, 173, 174, 175, 176, 177, 178, 179, 180, 181, 182, 183, 184, 185, 186, 187, 188, 189, 190, 191, 192, 193, 194, 195, 196, 197, 198, 199, 200, 201, 202, 203, 204, 205, 206, 207, 208, 209, 210, 211, 212, 213, 214, 215, 216, 217, 218, 219, 220, 221, 222, 223, 224, 225, 226, 227, 228, 229, 230, 231, 232, 233, 234, 235, 236, 237, 238, 239, 240, 241, 242, 243, 244, 245, 246, 247, 248, 249, 250, 251, 252, 253, 254, 255, 256, 257, 258, 259, 260, 261, 262, 263, 264, 265, 266, 267, 268, 269, 270, 271, 272, 273, 274, 275, 276, 277, 278, 279, 280],
      "LargestImagePixelValue": [1127, 1255, 1210, 914, 962, 1052, 1216, 1166, 1071, 986, 1415, 1270, 1158, 1077, 1285, 1124, 917, 1000, 1008, 1247, 1389, 981, 1077, 1160, 977, 1280, 1490, 1363, 1052, 1020, 1109, 1041, 889, 959, 1007, 1239, 1086, 927, 1091, 1019, 1254, 1352, 1131, 932, 980, 1089, 1110, 1004, 949, 975, 1129, 1473, 1318, 1353, 947, 915, 1133, 1015, 949, 945, 1107, 1451, 1247, 941, 1268, 1137, 1304, 918, 927, 946, 1169, 1599, 1055, 990, 963, 1051, 1106, 1245, 1372, 894, 952, 919, 970, 1225, 1534, 1227, 948, 1016, 1050, 1323, 1330, 960, 978, 1088, 1046, 983, 1124, 1304, 1254, 950, 1170, 1370, 1101, 1190, 1131, 1247, 1156, 959, 1136, 1043, 1316, 936, 1316, 1414, 1084, 966, 1016, 1204, 945, 917, 1003, 1080, 1154, 894, 992, 1318, 1007, 977, 1289, 1192, 1329, 1029, 906, 1060, 1182, 1038, 926, 965, 1033, 1206, 1308, 963, 934, 986, 859, 1103, 1240, 1277, 1047, 1104, 998, 1319, 1392, 1397, 1035, 1006, 1024, 979, 907, 938, 1048, 1152, 1274, 956, 1074, 1046, 1000, 1377, 1128, 957, 1260, 1034, 1342, 1030, 927, 1059, 1394, 1321, 914, 939, 988, 1042, 1108, 939, 973, 1187, 1185, 969, 1107, 1391, 1080, 1108, 1043, 1344, 1066, 945, 1161, 1129, 1299, 1076, 963, 1067, 1395, 1009, 1026, 1066, 944, 930, 1010, 983, 1024, 1418, 1064, 996, 901, 1330, 1357, 1097, 1303, 1033, 1329, 1066, 925, 994, 953, 1177, 1382, 977, 950, 1018, 1110, 902, 981, 1046, 1366, 1021, 997, 1192, 1211, 1102, 1443, 977, 900, 1111, 960, 1077, 938, 957, 995, 1178, 1121, 932, 1001, 971, 1082, 995, 927, 1230, 1259, 1365, 1032, 1319, 1498, 1142, 1269, 1121, 1131, 990, 961, 1108, 987, 955, 1212, 1174, 964, 1434, 947, 998, 898, 970],
      "WindowCenter": [409.0, 409.0, 408.0, 405.0, 406.0, 407.0, 409.0, 409.0, 409.0, 409.0, 412.0, 411.0, 410.0, 409.0, 410.0, 409.0, 408.0, 408.0, 408.0, 409.0, 409.0, 406.0, 407.0, 408.0, 406.0, 409.0, 410.0, 408.0, 405.0, 405.0, 405.0, 405.0, 404.0, 404.0, 405.0, 407.0, 407.0, 406.0, 408.0, 406.0, 409.0, 408.0, 407.0, 404.0, 405.0, 406.0, 407.0, 406.0, 406.0, 407.0, 408.0, 411.0, 408.0, 408.0, 404.0, 403.0, 406.0, 406.0, 405.0, 405.0, 408.0, 409.0, 408.0, 404.0, 406.0, 405.0, 406.0, 403.0, 404.0, 404.0, 406.0, 410.0, 406.0, 405.0, 404.0, 404.0, 405.0, 406.0, 408.0, 404.0, 405.0, 406.0, 406.0, 407.0, 409.0, 406.0, 403.0, 404.0, 404.0, 405.0, 406.0, 403.0, 404.0, 406.0, 407.0, 406.0, 407.0, 408.0, 407.0, 405.0, 407.0, 408.0, 406.0, 406.0, 405.0, 406.0, 405.0, 404.0, 405.0, 405.0, 408.0, 405.0, 407.0, 407.0, 404.0, 402.0, 404.0, 405.0, 403.0, 402.0, 403.0, 404.0, 406.0, 405.0, 406.0, 409.0, 406.0, 405.0, 408.0, 406.0, 407.0, 404.0, 403.0, 404.0, 405.0, 404.0, 403.0, 403.0, 404.0, 405.0, 406.0, 403.0, 403.0, 404.0, 405.0, 408.0, 409.0, 409.0, 406.0, 406.0, 405.0, 407.0, 406.0, 406.0, 401.0, 401.0, 400.0, 400.0, 400.0, 401.0, 403.0, 405.0, 406.0, 403.0, 404.0, 405.0, 405.0, 408.0, 406.0, 404.0, 407.0, 405.0, 407.0, 405.0, 403.0, 404.0, 406.0, 405.0, 402.0, 402.0, 402.0, 404.0, 404.0, 403.0, 404.0, 405.0, 406.0, 405.0, 406.0, 408.0, 405.0, 406.0, 405.0, 407.0, 404.0, 404.0, 406.0, 405.0, 406.0, 404.0, 402.0, 403.0, 406.0, 403.0, 403.0, 403.0, 403.0, 404.0, 406.0, 405.0, 405.0, 408.0, 406.0, 404.0, 403.0, 408.0, 410.0, 405.0, 406.0, 404.0, 405.0, 404.0, 402.0, 402.0, 402.0, 403.0, 404.0, 401.0, 402.0, 403.0, 404.0, 403.0, 406.0, 406.0, 409.0, 406.0, 405.0, 406.0, 405.0, 404.0, 407.0, 403.0, 401.0, 403.0, 401.0, 403.0, 402.0, 403.0, 404.0, 406.0, 405.0, 403.0, 403.0, 404.0, 406.0, 405.0, 405.0, 408.0, 409.0, 408.0, 405.0, 407.0, 408.0, 405.0, 404.0, 403.0, 403.0, 402.0, 402.0, 405.0, 404.0, 403.0, 404.0, 403.0, 401.0, 404.0, 401.0, 402.0, 400.0, 402.0],
      "WindowWidth": [866.0, 864.0, 863.0, 859.0, 860.0, 862.0, 865.0, 866.0, 866.0, 865.0, 869.0, 868.0, 866.0, 865.0, 867.0, 866.0, 864.0, 864.0, 864.0, 865.0, 866.0, 860.0, 861.0, 863.0, 861.0, 865.0, 866.0, 863.0, 859.0, 858.0, 858.0, 858.0, 856.0, 857.0, 858.0, 861.0, 862.0, 861.0, 863.0, 861.0, 864.0, 863.0, 861.0, 857.0, 859.0, 860.0, 861.0, 860.0, 861.0, 862.0, 864.0, 867.0, 863.0, 862.0, 856.0, 856.0, 860.0, 860.0, 858.0, 859.0, 863.0, 865.0, 863.0, 857.0, 860.0, 859.0, 860.0, 855.0, 856.0, 856.0, 860.0, 865.0, 860.0, 858.0, 857.0, 857.0, 857.0, 858.0, 861.0, 856.0, 859.0, 860.0, 860.0, 862.0, 864.0, 860.0, 856.0, 856.0, 855.0, 857.0, 859.0, 855.0, 856.0, 860.0, 861.0, 861.0, 862.0, 863.0, 862.0, 858.0, 861.0, 863.0, 860.0, 860.0, 858.0, 859.0, 858.0, 856.0, 858.0, 858.0, 863.0, 858.0, 860.0, 861.0, 855.0, 853.0, 855.0, 858.0, 856.0, 854.0, 854.0, 856.0, 859.0, 860.0, 859.0, 864.0, 860.0, 859.0, 862.0, 859.0, 860.0, 856.0, 854.0, 856.0, 857.0, 856.0, 854.0, 854.0, 856.0, 858.0, 858.0, 854.0, 854.0, 856.0, 859.0, 864.0, 866.0, 865.0, 860.0, 859.0, 858.0, 860.0, 858.0, 858.0, 851.0, 849.0, 849.0, 849.0, 850.0, 852.0, 855.0, 858.0, 858.0, 854.0, 856.0, 857.0, 858.0, 862.0, 860.0, 856.0, 861.0, 858.0, 861.0, 857.0, 855.0, 856.0, 859.0, 858.0, 852.0, 852.0, 853.0, 855.0, 856.0, 855.0, 856.0, 857.0, 859.0, 859.0, 859.0, 863.0, 858.0, 859.0, 858.0, 860.0, 856.0, 856.0, 859.0, 858.0, 859.0, 856.0, 853.0, 854.0, 858.0, 854.0, 853.0, 854.0, 855.0, 857.0, 859.0, 857.0, 858.0, 862.0, 859.0, 856.0, 855.0, 863.0, 865.0, 859.0, 859.0, 856.0, 857.0, 855.0, 852.0, 853.0, 852.0, 854.0, 855.0, 851.0, 852.0, 854.0, 856.0, 854.0, 859.0, 860.0, 864.0, 860.0, 858.0, 859.0, 858.0, 856.0, 859.0, 854.0, 851.0, 853.0, 851.0, 853.0, 852.0, 854.0, 857.0, 859.0, 857.0, 854.0, 855.0, 856.0, 859.0, 859.0, 858.0, 863.0, 864.0, 863.0, 858.0, 861.0, 863.0, 857.0, 856.0, 854.0, 853.0, 852.0, 853.0, 857.0, 856.0, 855.0, 855.0, 853.0, 850.0, 855.0, 850.0, 851.0, 849.0, 852.0]
    },
    "slices": {}
  }
}