{
  "AcquisitionMatrixPE": 96,
  "AcquisitionNumber": 1,
  "AcquisitionTime": "13:29:17.320000",
  "BandwidthPerPixelPhaseEncode": 18.939,
  "BaseResolution": 96,
  "BodyPartExamined": "BRAIN",
  "ConsistencyInfo": "N4_VE11C_LATEST_20160120",
  "ConversionSoftware": "dcm2niix",
  "ConversionSoftwareVersion": "v1.0.20170923 (OpenJPEG build) GCC6.3.0",
  "DerivedVendorReportedEchoSpacing": 0.000550011,
  "DeviceSerialNumber": "66112",
  "DwellTime": 2.3e-06,
  "EchoTime": 0.033,
  "EchoTrainLength": 96,
  "EffectiveEchoSpacing": 0.000550011,
  "FlipAngle": 64,
  "ImageType": [
    "ORIGINAL",
    "PRIMARY",
    "FMRI",
    "NONE",
    "ND",
    "NORM",
    "MOSAIC"
],
  "InstitutionAddress": "Maynard_3_Hanover_NH_US_03755",
  "InstitutionName": "Dartmouth_College_-_PBS",
  "MagneticFieldStrength": 3,
  "Manufacturer": "Siemens",
  "ManufacturersModelName": "Prisma",
  "Modality": "MR",
  "MultibandAccelerationFactor": 4,
  "PartialFourier": 1,
  "PercentPhaseFOV": 100,
  "PhaseEncodingDirection": "j-",
  "PhaseEncodingSteps": 96,
  "PhaseResolution": 1,
  "ProcedureStepDescription": "Gobbini_Matteo_1017_famface-angles",
  "ProtocolName": "func_run-10_task-fam1back",
  "PulseSequenceDetails": "%SiemensSeq%_ep2d_bold",
  "ReceiveCoilActiveElements": "HEA;HEP",
  "ReceiveCoilName": "Head_32",
  "ReconMatrixPE": 96,
  "RepetitionTime": 1.25,
  "ScanOptions": "FS",
  "ScanningSequence": "EP",
  "SequenceName": "_epfid2d1_96",
  "SequenceVariant": "SK",
  "SeriesDescription": "func_run-10_task-fam1back",
  "SliceTiming": [0.8775, 0, 0.615, 0.0875, 0.7025, 0.175, 0.79, 0.3525, 0.965, 0.44, 1.055, 0.5275, 1.1425, 0.2625, 0.8775, 0, 0.615, 0.0875, 0.7025, 0.175, 0.79, 0.3525, 0.965, 0.44, 1.055, 0.5275, 1.1425, 0.2625, 0.8775, 0, 0.615, 0.0875, 0.7025, 0.175, 0.79, 0.3525, 0.965, 0.44, 1.055, 0.5275, 1.1425, 0.2625, 0.8775, 0, 0.615, 0.0875, 0.7025, 0.175, 0.79, 0.3525, 0.965, 0.44, 1.055, 0.5275, 1.1425, 0.2625],
  "SoftwareVersions": "syngo_MR_E11",
  "StationName": "AWP66112",
  "TaskName": "fam1back",
  "TotalReadoutTime": 0.0522511,
  "dcmmeta_affine": [
    [-2.4997382164001465, 0.013961199671030045, 0.03338341787457466, 122.54183959960938],
    [0.020335182547569275, 2.449777126312256, 0.49817562103271484, -101.97747802734375],
    [0.0299307219684124, -0.4983949661254883, 2.449633836746216, -47.9638786315918],
    [0.0, 0.0, 0.0, 1.0]
],
  "dcmmeta_reorient_transform": [
    [0.0, -1.0, 0.0, 95.0],
    [1.0, 0.0, 0.0, 0.0],
    [0.0, 0.0, 1.0, 0.0],
    [0.0, 0.0, 0.0, 1.0]
],
  "dcmmeta_shape": [96, 96, 56, 280],
  "dcmmeta_slice_dim": 2,
  "dcmmeta_version": 0.6,
  "global": {
    "const": {
      "AccessionNumber": "A000285",
      "AcquisitionMatrix": [96, 0, 0, 96],
      "AngioFlag": "N",
      "BitsAllocated": 16,
      "BitsStored": 12,
      "BodyPartExamined": "BRAIN",
      "Columns": 768,
      "EchoNumbers": 1,
      "EchoTime": 33.0,
      "EchoTrainLength": 96,
      "FlipAngle": 64.0,
      "HighBit": 11,
      "ImageOrientationPatient": [0.99989524509127, -0.0081340732149, 0.01197228870331, 0.00558447988446, 0.979910814741, 0.19935799140756],
      "ImagePositionPatient": [-968.47112610083, -947.043802053, -272.82883587421],
      "ImageType": [
        "ORIGINAL",
        "PRIMARY",
        "FMRI",
        "NONE",
        "ND",
        "NORM",
        "MOSAIC"
],
      "ImagedNucleus": "1H",
      "ImagingFrequency": 123.252361,
      "InPlanePhaseEncodingDirection": "COL",
      "MRAcquisitionType": "2D",
      "MagneticFieldStrength": 3.0,
      "Manufacturer": "SIEMENS",
      "ManufacturerModelName": "Prisma",
      "Modality": "MR",
      "NumberOfAverages": 1.0,
      "NumberOfPhaseEncodingSteps": 96,
      "PercentPhaseFieldOfView": 100.0,
      "PercentSampling": 100.0,
      "PerformedProcedureStepStartTime": "120812.665000",
      "PhotometricInterpretation": "MONOCHROME2",
      "PixelBandwidth": 2265.0,
      "PixelRepresentation": 0,
      "PixelSpacing": [2.5, 2.5],
      "PositionReferenceIndicator": "",
      "ProtocolName": "func_run-10_task-fam1back",
      "RepetitionTime": 1250.0,
      "Rows": 768,
      "SAR": 0.05808462306814,
      "SamplesPerPixel": 1,
      "ScanOptions": "FS",
      "ScanningSequence": "EP",
      "SequenceName": "*epfid2d1_96",
      "SequenceVariant": "SK",
      "SeriesDescription": "func_run-10_task-fam1back",
      "SeriesNumber": 71,
      "SeriesTime": "132919.225000",
      "SliceLocation": -65.682309000434,
      "SliceThickness": 2.5,
      "SmallestImagePixelValue": 0,
      "SoftwareVersions": "syngo MR E11",
      "SpacingBetweenSlices": 2.4999999533031,
      "SpecificCharacterSet": "ISO_IR 100",
      "StudyID": "3",
      "StudyTime": "120812.577000",
      "TransmitCoilName": "Body",
      "VariableFlipAngleFlag": "N",
      "WindowCenterWidthExplanation": "Algo1",
      "dBdt": 0.0},
    "slices": {}
  },
  "time": {
    "samples": {
      "AcquisitionNumber": [1, 2, 3, 4, 5, 6, 7, 8, 9, 10, 11, 12, 13, 14, 15, 16, 17, 18, 19, 20, 21, 22, 23, 24, 25, 26, 27, 28, 29, 30, 31, 32, 33, 34, 35, 36, 37, 38, 39, 40, 41, 42, 43, 44, 45, 46, 47, 48, 49, 50, 51, 52, 53, 54, 55, 56, 57, 58, 59, 60, 61, 62, 63, 64, 65, 66, 67, 68, 69, 70, 71, 72, 73, 74, 75, 76, 77, 78, 79, 80, 81, 82, 83, 84, 85, 86, 87, 88, 89, 90, 91, 92, 93, 94, 95, 96, 97, 98, 99, 100, 101, 102, 103, 104, 105, 106, 107, 108, 109, 110, 111, 112, 113, 114, 115, 116, 117, 118, 119, 120, 121, 122, 123, 124, 125, 126, 127, 128, 129, 130, 131, 132, 133, 134, 135, 136, 137, 138, 139, 140, 141, 142, 143, 144, 145, 146, 147, 148, 149, 150, 151, 152, 153, 154, 155, 156, 157, 158, 159, 160, 161, 162, 163, 164, 165, 166, 167, 168, 169, 170, 171, 172, 173, 174, 175, 176, 177, 178, 179, 180, 181, 182, 183, 184, 185, 186, 187, 188, 189, 190, 191, 192, 193, 194, 195, 196, 197, 198, 199, 200, 201, 202, 203, 204, 205, 206, 207, 208, 209, 210, 211, 212, 213, 214, 215, 216, 217, 218, 219, 220, 221, 222, 223, 224, 225, 226, 227, 228, 229, 230, 231, 232, 233, 234, 235, 236, 237, 238, 239, 240, 241, 242, 243, 244, 245, 246, 247, 248, 249, 250, 251, 252, 253, 254, 255, 256, 257, 258, 259, 260, 261, 262, 263, 264, 265, 266, 267, 268, 269, 270, 271, 272, 273, 274, 275, 276, 277, 278, 279, 280],
      "AcquisitionTime": ["132917.320000", "132918.570000", "132919.820000", "132921.070000", "132922.320000", "132923.570000", "132924.820000", "132926.070000", "132927.320000", "132928.570000", "132929.820000", "132931.070000", "132932.320000", "132933.570000", "132934.820000", "132936.070000", "132937.320000", "132938.570000", "132939.820000", "132941.070000", "132942.320000", "132943.570000", "132944.820000", "132946.070000", "132947.320000", "132948.570000", "132949.820000", "132951.070000", "132952.320000", "132953.570000", "132954.820000", "132956.070000", "132957.320000", "132958.570000", "132959.820000", "133001.070000", "133002.320000", "133003.570000", "133004.820000", "133006.070000", "133007.320000", "133008.570000", "133009.820000", "133011.070000", "133012.320000", "133013.570000", "133014.820000", "133016.070000", "133017.320000", "133018.570000", "133019.820000", "133021.070000", "133022.320000", "133023.570000", "133024.820000", "133026.070000", "133027.320000", "133028.570000", "133029.820000", "133031.070000", "133032.320000", "133033.570000", "133034.820000", "133036.070000", "133037.320000", "133038.570000", "133039.820000", "133041.070000", "133042.320000", "133043.570000", "133044.820000", "133046.070000", "133047.320000", "133048.570000", "133049.820000", "133051.070000", "133052.320000", "133053.570000", "133054.820000", "133056.070000", "133057.320000", "133058.570000", "133059.820000", "133101.070000", "133102.320000", "133103.570000", "133104.820000", "133106.070000", "133107.320000", "133108.570000", "133109.820000", "133111.070000", "133112.320000", "133113.570000", "133114.820000", "133116.070000", "133117.320000", "133118.570000", "133119.820000", "133121.070000", "133122.320000", "133123.570000", "133124.820000", "133126.070000", "133127.320000", "133128.570000", "133129.820000", "133131.070000", "133132.320000", "133133.570000", "133134.820000", "133136.070000", "133137.320000", "133138.570000", "133139.820000", "133141.070000", "133142.320000", "133143.570000", "133144.820000", "133146.070000", "133147.320000", "133148.570000", "133149.820000", "133151.070000", "133152.320000", "133153.570000", "133154.820000", "133156.070000", "133157.320000", "133158.570000", "133159.820000", "133201.070000", "133202.320000", "133203.570000", "133204.820000", "133206.070000", "133207.320000", "133208.570000", "133209.820000", "133211.070000", "133212.320000", "133213.570000", "133214.820000", "133216.070000", "133217.320000", "133218.570000", "133219.820000", "133221.070000", "133222.320000", "133223.570000", "133224.820000", "133226.070000", "133227.320000", "133228.570000", "133229.820000", "133231.070000", "133232.320000", "133233.570000", "133234.820000", "133236.070000", "133237.320000", "133238.570000", "133239.820000", "133241.070000", "133242.320000", "133243.570000", "133244.820000", "133246.070000", "133247.320000", "133248.570000", "133249.820000", "133251.070000", "133252.320000", "133253.570000", "133254.820000", "133256.070000", "133257.320000", "133258.570000", "133259.820000", "133301.070000", "133302.320000", "133303.570000", "133304.820000", "133306.070000", "133307.320000", "133308.570000", "133309.820000", "133311.070000", "133312.320000", "133313.570000", "133314.820000", "133316.070000", "133317.320000", "133318.570000", "133319.820000", "133321.070000", "133322.320000", "133323.570000", "133324.820000", "133326.070000", "133327.320000", "133328.570000", "133329.820000", "133331.070000", "133332.320000", "133333.570000", "133334.820000", "133336.070000", "133337.320000", "133338.570000", "133339.820000", "133341.070000", "133342.320000", "133343.570000", "133344.820000", "133346.070000", "133347.320000", "133348.570000", "133349.820000", "133351.070000", "133352.320000", "133353.570000", "133354.820000", "133356.070000", "133357.320000", "133358.570000", "133359.820000", "133401.070000", "133402.320000", "133403.570000", "133404.820000", "133406.070000", "133407.320000", "133408.570000", "133409.820000", "133411.070000", "133412.320000", "133413.570000", "133414.820000", "133416.070000", "133417.320000", "133418.570000", "133419.820000", "133421.070000", "133422.320000", "133423.570000", "133424.820000", "133426.070000", "133427.320000", "133428.570000", "133429.820000", "133431.070000", "133432.320000", "133433.570000", "133434.820000", "133436.070000", "133437.320000", "133438.570000", "133439.820000", "133441.070000", "133442.320000", "133443.570000", "133444.820000", "133446.070000", "133447.320000", "133448.570000", "133449.820000", "133451.070000", "133452.320000", "133453.570000", "133454.820000", "133456.070000", "133457.320000", "133458.570000", "133459.820000", "133501.070000", "133502.320000", "133503.570000", "133504.820000", "133506.070000"],
      "ContentTime": ["132919.229000", "132920.277000", "132921.551000", "132922.795000", "132924.056000", "132925.282000", "132926.537000", "132927.787000", "132929.047000", "132930.299000", "132931.538000", "132932.838000", "132934.039000", "132935.309000", "132936.577000", "132937.785000", "132939.061000", "132940.310000", "132941.547000", "132942.801000", "132944.069000", "132945.311000", "132946.564000", "132947.766000", "132949.034000", "132950.304000", "132951.540000", "132952.791000", "132954.064000", "132955.286000", "132956.555000", "132957.811000", "132959.051000", "133000.289000", "133001.554000", "133002.790000", "133004.051000", "133005.289000", "133006.577000", "133007.876000", "133009.103000", "133010.272000", "133011.539000", "133012.785000", "133014.105000", "133015.289000", "133016.538000", "133017.785000", "133019.041000", "133020.297000", "133021.532000", "133022.839000", "133024.047000", "133025.297000", "133026.560000", "133027.793000", "133029.045000", "133030.289000", "133031.558000", "133032.803000", "133034.034000", "133035.304000", "133036.531000", "133037.760000", "133039.049000", "133040.317000", "133041.558000", "133042.786000", "133044.034000", "133045.282000", "133046.550000", "133047.799000", "133049.061000", "133050.297000", "133051.551000", "133052.780000", "133054.031000", "133055.287000", "133056.546000", "133057.804000", "133059.046000", "133100.292000", "133101.531000", "133102.843000", "133104.037000", "133105.291000", "133106.567000", "133107.784000", "133109.046000", "133110.282000", "133111.564000", "133112.798000", "133114.053000", "133115.306000", "133116.548000", "133117.789000", "133119.040000", "133120.275000", "133121.530000", "133122.798000", "133124.066000", "133125.298000", "133126.566000", "133127.814000", "133129.051000", "133130.296000", "133131.583000", "133132.831000", "133134.082000", "133135.303000", "133136.560000", "133137.811000", "133139.063000", "133140.288000", "133141.585000", "133142.805000", "133144.060000", "133145.319000", "133146.585000", "133147.793000", "133149.050000", "133150.306000", "133151.551000", "133152.787000", "133154.073000", "133155.289000", "133156.566000", "133157.806000", "133159.057000", "133200.313000", "133201.541000", "133202.792000", "133204.053000", "133205.306000", "133206.542000", "133207.791000", "133209.060000", "133210.301000", "133211.552000", "133212.814000", "133214.056000", "133215.374000", "133216.557000", "133217.809000", "133219.054000", "133220.295000", "133221.534000", "133222.806000", "133224.046000", "133225.323000", "133226.560000", "133227.797000", "133229.063000", "133230.278000", "133231.556000", "133232.797000", "133234.048000", "133235.304000", "133236.560000", "133237.815000", "133239.115000", "133240.313000", "133241.538000", "133242.792000", "133244.090000", "133245.305000", "133246.550000", "133247.790000", "133249.066000", "133250.343000", "133251.539000", "133252.811000", "133254.060000", "133255.301000", "133256.547000", "133257.816000", "133259.039000", "133300.331000", "133301.549000", "133302.800000", "133304.056000", "133305.276000", "133306.548000", "133307.820000", "133309.046000", "133310.327000", "133311.583000", "133312.855000", "133314.052000", "133315.291000", "133316.540000", "133317.810000", "133319.040000", "133320.317000", "133321.534000", "133322.833000", "133324.094000", "133325.303000", "133326.591000", "133327.788000", "133329.059000", "133330.304000", "133331.546000", "133332.795000", "133334.061000", "133335.297000", "133336.547000", "133337.865000", "133339.048000", "133340.297000", "133341.552000", "133342.795000", "133344.074000", "133345.299000", "133346.579000", "133347.817000", "133349.045000", "133350.324000", "133351.549000", "133352.831000", "133354.088000", "133355.298000", "133356.555000", "133357.782000", "133359.048000", "133400.301000", "133401.553000", "133402.799000", "133404.049000", "133405.297000", "133406.534000", "133407.799000", "133409.056000", "133410.302000", "133411.564000", "133412.800000", "133414.080000", "133415.298000", "133416.593000", "133417.779000", "133419.045000", "133420.289000", "133421.557000", "133422.791000", "133424.054000", "133425.308000", "133426.577000", "133427.797000", "133429.049000", "133430.307000", "133431.580000", "133432.842000", "133434.039000", "133435.298000", "133436.586000", "133437.804000", "133439.070000", "133440.292000", "133441.552000", "133442.845000", "133444.074000", "133445.304000", "133446.563000", "133447.806000", "133449.065000", "133450.369000", "133451.559000", "133452.799000", "133454.068000", "133455.289000", "133456.572000", "133457.805000", "133459.053000", "133500.319000", "133501.597000", "133502.800000", "133504.037000", "133505.281000", "133506.538000", "133507.871000"],
      "InstanceCreationTime": ["132919.229000", "132920.277000", "132921.551000", "132922.795000", "132924.056000", "132925.282000", "132926.537000", "132927.787000", "132929.047000", "132930.299000", "132931.538000", "132932.838000", "132934.039000", "132935.309000", "132936.577000", "132937.785000", "132939.061000", "132940.310000", "132941.547000", "132942.801000", "132944.069000", "132945.311000", "132946.564000", "132947.766000", "132949.034000", "132950.304000", "132951.540000", "132952.791000", "132954.064000", "132955.286000", "132956.555000", "132957.811000", "132959.051000", "133000.289000", "133001.554000", "133002.790000", "133004.051000", "133005.289000", "133006.577000", "133007.876000", "133009.103000", "133010.272000", "133011.539000", "133012.785000", "133014.105000", "133015.289000", "133016.538000", "133017.785000", "133019.041000", "133020.297000", "133021.532000", "133022.839000", "133024.047000", "133025.297000", "133026.560000", "133027.793000", "133029.045000", "133030.289000", "133031.558000", "133032.803000", "133034.034000", "133035.304000", "133036.531000", "133037.760000", "133039.049000", "133040.317000", "133041.558000", "133042.786000", "133044.034000", "133045.282000", "133046.550000", "133047.799000", "133049.061000", "133050.297000", "133051.551000", "133052.780000", "133054.031000", "133055.287000", "133056.546000", "133057.804000", "133059.046000", "133100.292000", "133101.531000", "133102.843000", "133104.037000", "133105.291000", "133106.567000", "133107.784000", "133109.046000", "133110.282000", "133111.564000", "133112.798000", "133114.053000", "133115.306000", "133116.548000", "133117.789000", "133119.040000", "133120.275000", "133121.530000", "133122.798000", "133124.066000", "133125.298000", "133126.566000", "133127.814000", "133129.051000", "133130.296000", "133131.583000", "133132.831000", "133134.082000", "133135.303000", "133136.560000", "133137.811000", "133139.063000", "133140.288000", "133141.585000", "133142.805000", "133144.060000", "133145.319000", "133146.585000", "133147.793000", "133149.050000", "133150.306000", "133151.551000", "133152.787000", "133154.073000", "133155.289000", "133156.566000", "133157.806000", "133159.057000", "133200.313000", "133201.541000", "133202.792000", "133204.053000", "133205.306000", "133206.542000", "133207.791000", "133209.060000", "133210.301000", "133211.552000", "133212.814000", "133214.056000", "133215.374000", "133216.557000", "133217.809000", "133219.054000", "133220.295000", "133221.534000", "133222.806000", "133224.046000", "133225.323000", "133226.560000", "133227.797000", "133229.063000", "133230.278000", "133231.556000", "133232.797000", "133234.048000", "133235.304000", "133236.560000", "133237.815000", "133239.115000", "133240.313000", "133241.538000", "133242.792000", "133244.090000", "133245.305000", "133246.550000", "133247.790000", "133249.066000", "133250.343000", "133251.539000", "133252.811000", "133254.060000", "133255.301000", "133256.547000", "133257.816000", "133259.039000", "133300.331000", "133301.549000", "133302.800000", "133304.056000", "133305.276000", "133306.548000", "133307.820000", "133309.046000", "133310.327000", "133311.583000", "133312.855000", "133314.052000", "133315.291000", "133316.540000", "133317.810000", "133319.040000", "133320.317000", "133321.534000", "133322.833000", "133324.094000", "133325.303000", "133326.591000", "133327.788000", "133329.059000", "133330.304000", "133331.546000", "133332.795000", "133334.061000", "133335.297000", "133336.547000", "133337.865000", "133339.048000", "133340.297000", "133341.552000", "133342.795000", "133344.074000", "133345.299000", "133346.579000", "133347.817000", "133349.045000", "133350.324000", "133351.549000", "133352.831000", "133354.088000", "133355.298000", "133356.555000", "133357.782000", "133359.048000", "133400.301000", "133401.553000", "133402.799000", "133404.049000", "133405.297000", "133406.534000", "133407.799000", "133409.056000", "133410.302000", "133411.564000", "133412.800000", "133414.080000", "133415.298000", "133416.593000", "133417.779000", "133419.045000", "133420.289000", "133421.557000", "133422.791000", "133424.054000", "133425.308000", "133426.577000", "133427.797000", "133429.049000", "133430.307000", "133431.580000", "133432.842000", "133434.039000", "133435.298000", "133436.586000", "133437.804000", "133439.070000", "133440.292000", "133441.552000", "133442.845000", "133444.074000", "133445.304000", "133446.563000", "133447.806000", "133449.065000", "133450.369000", "133451.559000", "133452.799000", "133454.068000", "133455.289000", "133456.572000", "133457.805000", "133459.053000", "133500.319000", "133501.597000", "133502.800000", "133504.037000", "133505.281000", "133506.538000", "133507.871000"],
      "InstanceNumber": [1, 2, 3, 4, 5, 6, 7, 8, 9, 10, 11, 12, 13, 14, 15, 16, 17, 18, 19, 20, 21, 22, 23, 24, 25, 26, 27, 28, 29, 30, 31, 32, 33, 34, 35, 36, 37, 38, 39, 40, 41, 42, 43, 44, 45, 46, 47, 48, 49, 50, 51, 52, 53, 54, 55, 56, 57, 58, 59, 60, 61, 62, 63, 64, 65, 66, 67, 68, 69, 70, 71, 72, 73, 74, 75, 76, 77, 78, 79, 80, 81, 82, 83, 84, 85, 86, 87, 88, 89, 90, 91, 92, 93, 94, 95, 96, 97, 98, 99, 100, 101, 102, 103, 104, 105, 106, 107, 108, 109, 110, 111, 112, 113, 114, 115, 116, 117, 118, 119, 120, 121, 122, 123, 124, 125, 126, 127, 128, 129, 130, 131, 132, 133, 134, 135, 136, 137, 138, 139, 140, 141, 142, 143, 144, 145, 146, 147, 148, 149, 150, 151, 152, 153, 154, 155, 156, 157, 158, 159, 160, 161, 162, 163, 164, 165, 166, 167, 168, 169, 170, 171, 172, 173, 174, 175, 176, 177, 178, 179, 180, 181, 182, 183, 184, 185, 186, 187, 188, 189, 190, 191, 192, 193, 194, 195, 196, 197, 198, 199, 200, 201, 202, 203, 204, 205, 206, 207, 208, 209, 210, 211, 212, 213, 214, 215, 216, 217, 218, 219, 220, 221, 222, 223, 224, 225, 226, 227, 228, 229, 230, 231, 232, 233, 234, 235, 236, 237, 238, 239, 240, 241, 242, 243, 244, 245, 246, 247, 248, 249, 250, 251, 252, 253, 254, 255, 256, 257, 258, 259, 260, 261, 262, 263, 264, 265, 266, 267, 268, 269, 270, 271, 272, 273, 274, 275, 276, 277, 278, 279, 280],
      "LargestImagePixelValue": [959, 1242, 1092, 913, 1333, 1243, 1022, 1254, 1199, 1421, 1022, 952, 1291, 1020, 1413, 955, 945, 1167, 1165, 1333, 917, 994, 1307, 1286, 1029, 1059, 1023, 1296, 1223, 932, 1036, 1140, 1300, 925, 1020, 1084, 1323, 1298, 1193, 1120, 927, 999, 1308, 955, 1005, 1300, 1231, 988, 1103, 1198, 1160, 971, 1313, 1117, 1191, 1199, 907, 1015, 1150, 989, 957, 1090, 1213, 1165, 1066, 960, 981, 1097, 895, 1064, 1323, 963, 972, 1316, 1224, 1335, 1162, 894, 1002, 1018, 1242, 1054, 923, 1049, 1289, 942, 920, 1272, 1254, 1045, 1389, 1183, 998, 1222, 1118, 994, 1390, 1414, 1199, 1100, 919, 1025, 948, 1005, 1340, 1135, 1106, 1109, 1497, 889, 1025, 1246, 1078, 1151, 1242, 1181, 991, 920, 1253, 1279, 1017, 953, 977, 1054, 1014, 877, 1029, 1101, 1523, 1065, 949, 1070, 1361, 1087, 1139, 896, 975, 1134, 1068, 945, 1035, 1248, 1212, 1117, 1027, 902, 1252, 1275, 1033, 978, 899, 1164, 1396, 984, 959, 1207, 1178, 931, 937, 1024, 1480, 1075, 910, 1333, 1322, 953, 940, 1269, 1178, 918, 1097, 994, 1208, 1374, 933, 944, 1241, 1161, 1067, 889, 1051, 1189, 1116, 875, 1036, 1202, 914, 885, 1342, 848, 1041, 1380, 1193, 1018, 1289, 1259, 913, 1198, 1160, 1412, 1130, 918, 1194, 1230, 939, 1055, 984, 1163, 1353, 1049, 922, 1106, 948, 969, 917, 933, 1004, 933, 1272, 1106, 1281, 1369, 1144, 996, 1180, 1367, 1021, 958, 1201, 1160, 1082, 961, 1032, 1296, 1047, 895, 1135, 1232, 955, 955, 989, 1130, 1018, 963, 1012, 1181, 1053, 939, 1220, 1260, 1340, 1009, 1049, 1344, 1167, 1001, 1282, 1345, 981, 973, 947, 991, 985, 980, 962, 929, 948, 1222, 937, 913, 1288, 1337, 999, 918, 1328, 1021, 895, 1295, 1043, 909],
      "WindowCenter": [410.0, 411.0, 409.0, 407.0, 411.0, 410.0, 407.0, 410.0, 409.0, 410.0, 407.0, 406.0, 409.0, 406.0, 410.0, 406.0, 406.0, 408.0, 408.0, 410.0, 406.0, 407.0, 409.0, 409.0, 406.0, 406.0, 406.0, 408.0, 408.0, 406.0, 407.0, 408.0, 409.0, 406.0, 406.0, 407.0, 408.0, 408.0, 407.0, 406.0, 404.0, 406.0, 408.0, 406.0, 406.0, 409.0, 409.0, 406.0, 406.0, 407.0, 407.0, 405.0, 408.0, 406.0, 406.0, 406.0, 403.0, 405.0, 406.0, 405.0, 405.0, 406.0, 407.0, 406.0, 405.0, 405.0, 405.0, 406.0, 404.0, 406.0, 409.0, 405.0, 406.0, 408.0, 408.0, 407.0, 406.0, 403.0, 405.0, 405.0, 407.0, 405.0, 404.0, 405.0, 407.0, 404.0, 404.0, 408.0, 408.0, 405.0, 408.0, 406.0, 405.0, 408.0, 407.0, 406.0, 409.0, 409.0, 406.0, 405.0, 404.0, 405.0, 405.0, 405.0, 408.0, 406.0, 406.0, 406.0, 408.0, 403.0, 405.0, 408.0, 406.0, 406.0, 407.0, 406.0, 404.0, 404.0, 407.0, 406.0, 404.0, 403.0, 404.0, 405.0, 405.0, 403.0, 405.0, 406.0, 408.0, 404.0, 403.0, 404.0, 406.0, 404.0, 404.0, 402.0, 403.0, 406.0, 407.0, 405.0, 407.0, 408.0, 407.0, 406.0, 405.0, 404.0, 407.0, 407.0, 405.0, 405.0, 404.0, 406.0, 408.0, 405.0, 404.0, 407.0, 406.0, 404.0, 404.0, 405.0, 408.0, 406.0, 404.0, 407.0, 407.0, 404.0, 403.0, 407.0, 406.0, 404.0, 405.0, 404.0, 406.0, 407.0, 403.0, 403.0, 406.0, 405.0, 404.0, 402.0, 405.0, 405.0, 405.0, 403.0, 405.0, 406.0, 404.0, 403.0, 408.0, 404.0, 407.0, 409.0, 407.0, 404.0, 407.0, 406.0, 404.0, 406.0, 406.0, 407.0, 405.0, 402.0, 405.0, 405.0, 402.0, 404.0, 403.0, 405.0, 407.0, 403.0, 402.0, 403.0, 402.0, 403.0, 404.0, 405.0, 407.0, 407.0, 408.0, 406.0, 407.0, 407.0, 405.0, 404.0, 406.0, 407.0, 404.0, 403.0, 405.0, 405.0, 405.0, 403.0, 405.0, 406.0, 404.0, 402.0, 405.0, 406.0, 404.0, 403.0, 404.0, 405.0, 404.0, 404.0, 404.0, 407.0, 406.0, 406.0, 409.0, 407.0, 407.0, 404.0, 405.0, 407.0, 405.0, 403.0, 405.0, 405.0, 401.0, 401.0, 401.0, 403.0, 401.0, 402.0, 401.0, 402.0, 402.0, 406.0, 403.0, 402.0, 406.0, 406.0, 404.0, 402.0, 404.0, 402.0, 401.0, 405.0, 403.0, 402.0],
      "WindowWidth": [869.0, 869.0, 866.0, 863.0, 869.0, 867.0, 862.0, 866.0, 866.0, 867.0, 862.0, 860.0, 865.0, 861.0, 865.0, 860.0, 861.0, 863.0, 864.0, 866.0, 861.0, 862.0, 865.0, 864.0, 861.0, 861.0, 859.0, 863.0, 863.0, 861.0, 862.0, 863.0, 865.0, 860.0, 861.0, 861.0, 864.0, 863.0, 861.0, 859.0, 857.0, 859.0, 864.0, 860.0, 860.0, 864.0, 864.0, 860.0, 860.0, 861.0, 861.0, 859.0, 862.0, 859.0, 859.0, 859.0, 855.0, 858.0, 859.0, 858.0, 858.0, 860.0, 861.0, 860.0, 858.0, 858.0, 859.0, 860.0, 858.0, 860.0, 864.0, 858.0, 860.0, 863.0, 862.0, 861.0, 859.0, 855.0, 857.0, 857.0, 860.0, 858.0, 856.0, 857.0, 861.0, 857.0, 857.0, 863.0, 863.0, 859.0, 862.0, 860.0, 858.0, 863.0, 862.0, 861.0, 863.0, 864.0, 860.0, 858.0, 856.0, 858.0, 858.0, 858.0, 863.0, 860.0, 859.0, 859.0, 862.0, 855.0, 858.0, 862.0, 860.0, 860.0, 860.0, 859.0, 856.0, 856.0, 860.0, 860.0, 856.0, 855.0, 856.0, 857.0, 858.0, 856.0, 859.0, 859.0, 862.0, 856.0, 855.0, 857.0, 859.0, 855.0, 856.0, 853.0, 854.0, 860.0, 861.0, 858.0, 861.0, 862.0, 862.0, 860.0, 858.0, 856.0, 860.0, 861.0, 858.0, 858.0, 856.0, 859.0, 863.0, 858.0, 857.0, 860.0, 860.0, 856.0, 856.0, 857.0, 863.0, 860.0, 856.0, 860.0, 861.0, 857.0, 855.0, 860.0, 858.0, 856.0, 858.0, 856.0, 858.0, 860.0, 855.0, 854.0, 858.0, 857.0, 856.0, 852.0, 857.0, 857.0, 857.0, 854.0, 857.0, 860.0, 856.0, 855.0, 862.0, 857.0, 861.0, 864.0, 861.0, 856.0, 860.0, 860.0, 856.0, 860.0, 859.0, 861.0, 857.0, 853.0, 857.0, 857.0, 853.0, 855.0, 855.0, 858.0, 860.0, 855.0, 852.0, 854.0, 853.0, 854.0, 856.0, 859.0, 861.0, 861.0, 863.0, 860.0, 861.0, 860.0, 858.0, 857.0, 859.0, 860.0, 856.0, 854.0, 857.0, 857.0, 857.0, 855.0, 857.0, 859.0, 856.0, 853.0, 857.0, 859.0, 855.0, 855.0, 856.0, 858.0, 856.0, 855.0, 856.0, 860.0, 860.0, 860.0, 864.0, 862.0, 861.0, 856.0, 857.0, 860.0, 857.0, 854.0, 857.0, 857.0, 851.0, 851.0, 852.0, 853.0, 851.0, 852.0, 851.0, 852.0, 853.0, 859.0, 854.0, 853.0, 858.0, 859.0, 856.0, 853.0, 855.0, 852.0, 851.0, 857.0, 854.0, 852.0]
    },
    "slices": {}
  }
}