{
  "AcquisitionMatrixPE": 96,
  "AcquisitionNumber": 1,
  "AcquisitionTime": "14:22:36.275000",
  "BandwidthPerPixelPhaseEncode": 18.939,
  "BaseResolution": 96,
  "BodyPartExamined": "BRAIN",
  "ConsistencyInfo": "N4_VE11C_LATEST_20160120",
  "ConversionSoftware": "dcm2niix",
  "ConversionSoftwareVersion": "v1.0.20170923 (OpenJPEG build) GCC6.3.0",
  "DerivedVendorReportedEchoSpacing": 0.000550011,
  "DeviceSerialNumber": "66112",
  "DwellTime": 2.3e-06,
  "EchoTime": 0.033,
  "EchoTrainLength": 96,
  "EffectiveEchoSpacing": 0.000550011,
  "FlipAngle": 64,
  "ImageType": [
    "ORIGINAL",
    "PRIMARY",
    "FMRI",
    "NONE",
    "ND",
    "NORM",
    "MOSAIC"
],
  "InstitutionAddress": "Maynard_3_Hanover_NH_US_03755",
  "InstitutionName": "Dartmouth_College_-_PBS",
  "MagneticFieldStrength": 3,
  "Manufacturer": "Siemens",
  "ManufacturersModelName": "Prisma",
  "Modality": "MR",
  "MultibandAccelerationFactor": 4,
  "PartialFourier": 1,
  "PercentPhaseFOV": 100,
  "PhaseEncodingDirection": "j-",
  "PhaseEncodingSteps": 96,
  "PhaseResolution": 1,
  "ProcedureStepDescription": "Gobbini_Matteo_1017_famface-angles",
  "ProtocolName": "func_run-02_task-str1back",
  "PulseSequenceDetails": "%SiemensSeq%_ep2d_bold",
  "ReceiveCoilActiveElements": "HEA;HEP",
  "ReceiveCoilName": "Head_32",
  "ReconMatrixPE": 96,
  "RepetitionTime": 1.25,
  "ScanOptions": "FS",
  "ScanningSequence": "EP",
  "SequenceName": "_epfid2d1_96",
  "SequenceVariant": "SK",
  "SeriesDescription": "func_run-02_task-str1back",
  "SliceTiming": [0.8775, 0, 0.615, 0.0875, 0.7025, 0.175, 0.79, 0.35, 0.965, 0.4375, 1.0525, 0.525, 1.14, 0.2625, 0.8775, 0, 0.615, 0.0875, 0.7025, 0.175, 0.79, 0.35, 0.965, 0.4375, 1.0525, 0.525, 1.14, 0.2625, 0.8775, 0, 0.615, 0.0875, 0.7025, 0.175, 0.79, 0.35, 0.965, 0.4375, 1.0525, 0.525, 1.14, 0.2625, 0.8775, 0, 0.615, 0.0875, 0.7025, 0.175, 0.79, 0.35, 0.965, 0.4375, 1.0525, 0.525, 1.14, 0.2625],
  "SoftwareVersions": "syngo_MR_E11",
  "StationName": "AWP66112",
  "TaskName": "str1back",
  "TotalReadoutTime": 0.0522511,
  "dcmmeta_affine": [
    [-2.492396354675293, -0.05438418686389923, 0.18709082901477814, 122.53514099121094],
    [-0.035028863698244095, 2.4865949153900146, 0.2561623454093933, -109.8663330078125],
    [0.1916600912809372, -0.2527617812156677, 2.4797940254211426, -72.05079650878906],
    [0.0, 0.0, 0.0, 1.0]
],
  "dcmmeta_reorient_transform": [
    [0.0, -1.0, 0.0, 95.0],
    [1.0, 0.0, 0.0, 0.0],
    [0.0, 0.0, 1.0, 0.0],
    [0.0, 0.0, 0.0, 1.0]
],
  "dcmmeta_shape": [96, 96, 56, 280],
  "dcmmeta_slice_dim": 2,
  "dcmmeta_version": 0.6,
  "global": {
    "const": {
      "AccessionNumber": "A000257",
      "AcquisitionMatrix": [96, 0, 0, 96],
      "AngioFlag": "N",
      "BitsAllocated": 16,
      "BitsStored": 12,
      "BodyPartExamined": "BRAIN",
      "Columns": 768,
      "EchoNumbers": 1,
      "EchoTime": 33.0,
      "EchoTrainLength": 96,
      "FlipAngle": 64.0,
      "HighBit": 11,
      "ImageOrientationPatient": [0.99695852557906, 0.01401154592731, 0.07666403887059, -0.0217536742724, 0.99463793100553, 0.10110471730189],
      "ImagePositionPatient": [-936.54071648327, -973.62573296295, -245.38892480986],
      "ImageType": [
        "ORIGINAL",
        "PRIMARY",
        "FMRI",
        "NONE",
        "ND",
        "NORM",
        "MOSAIC"
],
      "ImagedNucleus": "1H",
      "ImagingFrequency": 123.252471,
      "InPlanePhaseEncodingDirection": "COL",
      "MRAcquisitionType": "2D",
      "MagneticFieldStrength": 3.0,
      "Manufacturer": "SIEMENS",
      "ManufacturerModelName": "Prisma",
      "Modality": "MR",
      "NumberOfAverages": 1.0,
      "NumberOfPhaseEncodingSteps": 96,
      "PercentPhaseFieldOfView": 100.0,
      "PercentSampling": 100.0,
      "PerformedProcedureStepStartTime": "135620.771000",
      "PhotometricInterpretation": "MONOCHROME2",
      "PixelBandwidth": 2265.0,
      "PixelRepresentation": 0,
      "PixelSpacing": [2.5, 2.5],
      "PositionReferenceIndicator": "",
      "ProtocolName": "func_run-02_task-str1back",
      "RepetitionTime": 1250.0,
      "Rows": 768,
      "SAR": 0.05811172788279,
      "SamplesPerPixel": 1,
      "ScanOptions": "FS",
      "ScanningSequence": "EP",
      "SequenceName": "*epfid2d1_96",
      "SequenceVariant": "SK",
      "SeriesDescription": "func_run-02_task-str1back",
      "SeriesNumber": 15,
      "SeriesTime": "142237.535000",
      "SliceLocation": -73.555820697713,
      "SliceThickness": 2.5,
      "SmallestImagePixelValue": 0,
      "SoftwareVersions": "syngo MR E11",
      "SpacingBetweenSlices": 2.5000000429934,
      "SpecificCharacterSet": "ISO_IR 100",
      "StudyID": "1",
      "StudyTime": "135620.665000",
      "TransmitCoilName": "Body",
      "VariableFlipAngleFlag": "N",
      "WindowCenterWidthExplanation": "Algo1",
      "dBdt": 0.0},
    "slices": {}
  },
  "time": {
    "samples": {
      "AcquisitionNumber": [1, 2, 3, 4, 5, 6, 7, 8, 9, 10, 11, 12, 13, 14, 15, 16, 17, 18, 19, 20, 21, 22, 23, 24, 25, 26, 27, 28, 29, 30, 31, 32, 33, 34, 35, 36, 37, 38, 39, 40, 41, 42, 43, 44, 45, 46, 47, 48, 49, 50, 51, 52, 53, 54, 55, 56, 57, 58, 59, 60, 61, 62, 63, 64, 65, 66, 67, 68, 69, 70, 71, 72, 73, 74, 75, 76, 77, 78, 79, 80, 81, 82, 83, 84, 85, 86, 87, 88, 89, 90, 91, 92, 93, 94, 95, 96, 97, 98, 99, 100, 101, 102, 103, 104, 105, 106, 107, 108, 109, 110, 111, 112, 113, 114, 115, 116, 117, 118, 119, 120, 121, 122, 123, 124, 125, 126, 127, 128, 129, 130, 131, 132, 133, 134, 135, 136, 137, 138, 139, 140, 141, 142, 143, 144, 145, 146, 147, 148, 149, 150, 151, 152, 153, 154, 155, 156, 157, 158, 159, 160, 161, 162, 163, 164, 165, 166, 167, 168, 169, 170, 171, 172, 173, 174, 175, 176, 177, 178, 179, 180, 181, 182, 183, 184, 185, 186, 187, 188, 189, 190, 191, 192, 193, 194, 195, 196, 197, 198, 199, 200, 201, 202, 203, 204, 205, 206, 207, 208, 209, 210, 211, 212, 213, 214, 215, 216, 217, 218, 219, 220, 221, 222, 223, 224, 225, 226, 227, 228, 229, 230, 231, 232, 233, 234, 235, 236, 237, 238, 239, 240, 241, 242, 243, 244, 245, 246, 247, 248, 249, 250, 251, 252, 253, 254, 255, 256, 257, 258, 259, 260, 261, 262, 263, 264, 265, 266, 267, 268, 269, 270, 271, 272, 273, 274, 275, 276, 277, 278, 279, 280],
      "AcquisitionTime": ["142236.275000", "142237.525000", "142238.775000", "142240.025000", "142241.275000", "142242.525000", "142243.775000", "142245.025000", "142246.275000", "142247.525000", "142248.775000", "142250.025000", "142251.275000", "142252.525000", "142253.775000", "142255.025000", "142256.275000", "142257.525000", "142258.775000", "142300.025000", "142301.275000", "142302.525000", "142303.775000", "142305.025000", "142306.275000", "142307.525000", "142308.775000", "142310.025000", "142311.275000", "142312.525000", "142313.775000", "142315.025000", "142316.275000", "142317.525000", "142318.775000", "142320.025000", "142321.275000", "142322.525000", "142323.775000", "142325.025000", "142326.275000", "142327.525000", "142328.775000", "142330.025000", "142331.275000", "142332.525000", "142333.775000", "142335.025000", "142336.275000", "142337.525000", "142338.775000", "142340.025000", "142341.275000", "142342.525000", "142343.775000", "142345.025000", "142346.275000", "142347.525000", "142348.775000", "142350.025000", "142351.275000", "142352.525000", "142353.775000", "142355.025000", "142356.275000", "142357.525000", "142358.775000", "142400.025000", "142401.275000", "142402.525000", "142403.775000", "142405.025000", "142406.275000", "142407.525000", "142408.775000", "142410.025000", "142411.275000", "142412.525000", "142413.775000", "142415.025000", "142416.275000", "142417.525000", "142418.775000", "142420.025000", "142421.275000", "142422.525000", "142423.775000", "142425.025000", "142426.275000", "142427.525000", "142428.775000", "142430.025000", "142431.275000", "142432.525000", "142433.775000", "142435.025000", "142436.275000", "142437.525000", "142438.775000", "142440.025000", "142441.275000", "142442.525000", "142443.775000", "142445.025000", "142446.275000", "142447.525000", "142448.775000", "142450.025000", "142451.275000", "142452.525000", "142453.775000", "142455.025000", "142456.275000", "142457.525000", "142458.775000", "142500.025000", "142501.275000", "142502.525000", "142503.775000", "142505.025000", "142506.275000", "142507.525000", "142508.775000", "142510.025000", "142511.275000", "142512.525000", "142513.775000", "142515.025000", "142516.275000", "142517.525000", "142518.775000", "142520.025000", "142521.275000", "142522.525000", "142523.775000", "142525.025000", "142526.275000", "142527.525000", "142528.775000", "142530.025000", "142531.275000", "142532.525000", "142533.775000", "142535.025000", "142536.275000", "142537.525000", "142538.775000", "142540.025000", "142541.275000", "142542.525000", "142543.775000", "142545.025000", "142546.275000", "142547.525000", "142548.775000", "142550.025000", "142551.275000", "142552.525000", "142553.775000", "142555.025000", "142556.275000", "142557.525000", "142558.775000", "142600.025000", "142601.275000", "142602.525000", "142603.775000", "142605.025000", "142606.275000", "142607.525000", "142608.775000", "142610.025000", "142611.275000", "142612.525000", "142613.775000", "142615.025000", "142616.275000", "142617.525000", "142618.775000", "142620.025000", "142621.275000", "142622.525000", "142623.775000", "142625.025000", "142626.275000", "142627.525000", "142628.775000", "142630.025000", "142631.275000", "142632.525000", "142633.775000", "142635.025000", "142636.275000", "142637.525000", "142638.775000", "142640.025000", "142641.275000", "142642.525000", "142643.775000", "142645.025000", "142646.275000", "142647.525000", "142648.775000", "142650.025000", "142651.275000", "142652.525000", "142653.775000", "142655.025000", "142656.275000", "142657.525000", "142658.775000", "142700.025000", "142701.275000", "142702.525000", "142703.775000", "142705.025000", "142706.275000", "142707.525000", "142708.775000", "142710.025000", "142711.275000", "142712.525000", "142713.775000", "142715.025000", "142716.275000", "142717.525000", "142718.775000", "142720.025000", "142721.275000", "142722.525000", "142723.775000", "142725.025000", "142726.275000", "142727.525000", "142728.775000", "142730.025000", "142731.275000", "142732.525000", "142733.775000", "142735.025000", "142736.275000", "142737.525000", "142738.775000", "142740.025000", "142741.275000", "142742.525000", "142743.775000", "142745.025000", "142746.275000", "142747.525000", "142748.775000", "142750.025000", "142751.275000", "142752.525000", "142753.775000", "142755.025000", "142756.275000", "142757.525000", "142758.775000", "142800.025000", "142801.275000", "142802.525000", "142803.775000", "142805.025000", "142806.275000", "142807.525000", "142808.775000", "142810.025000", "142811.275000", "142812.525000", "142813.775000", "142815.025000", "142816.275000", "142817.525000", "142818.775000", "142820.025000", "142821.275000", "142822.525000", "142823.775000", "142825.025000"],
      "ContentTime": ["142237.539000", "142238.586000", "142239.837000", "142241.136000", "142242.327000", "142243.550000", "142244.822000", "142246.123000", "142247.314000", "142248.636000", "142249.817000", "142251.073000", "142252.313000", "142253.540000", "142254.824000", "142256.097000", "142257.332000", "142258.564000", "142259.820000", "142301.063000", "142302.327000", "142303.631000", "142304.877000", "142306.102000", "142307.346000", "142308.579000", "142309.822000", "142311.097000", "142312.308000", "142313.554000", "142314.807000", "142316.100000", "142317.338000", "142318.577000", "142319.811000", "142321.065000", "142322.320000", "142323.589000", "142324.821000", "142326.056000", "142327.294000", "142328.567000", "142329.822000", "142331.074000", "142332.314000", "142333.573000", "142334.797000", "142336.107000", "142337.323000", "142338.558000", "142339.816000", "142341.075000", "142342.323000", "142343.570000", "142344.879000", "142346.065000", "142347.327000", "142348.598000", "142349.831000", "142351.077000", "142352.370000", "142353.562000", "142354.843000", "142356.065000", "142357.310000", "142358.579000", "142359.829000", "142401.066000", "142402.372000", "142403.584000", "142404.857000", "142406.081000", "142407.332000", "142408.603000", "142409.871000", "142411.081000", "142412.310000", "142413.584000", "142414.835000", "142416.066000", "142417.305000", "142418.554000", "142419.828000", "142421.059000", "142422.314000", "142423.569000", "142424.855000", "142426.103000", "142427.320000", "142428.595000", "142429.822000", "142431.055000", "142432.350000", "142433.571000", "142434.817000", "142436.049000", "142437.308000", "142438.577000", "142439.791000", "142441.055000", "142442.338000", "142443.557000", "142444.851000", "142446.108000", "142447.325000", "142448.587000", "142449.824000", "142451.073000", "142452.309000", "142453.596000", "142454.840000", "142456.060000", "142457.371000", "142458.581000", "142459.847000", "142501.075000", "142502.336000", "142503.618000", "142504.850000", "142506.093000", "142507.355000", "142508.604000", "142509.827000", "142511.081000", "142512.331000", "142513.593000", "142514.843000", "142516.061000", "142517.335000", "142518.665000", "142519.834000", "142521.086000", "142522.315000", "142523.584000", "142524.860000", "142526.105000", "142527.322000", "142528.588000", "142529.840000", "142531.086000", "142532.330000", "142533.616000", "142534.836000", "142536.076000", "142537.330000", "142538.602000", "142539.804000", "142541.154000", "142542.332000", "142543.589000", "142544.838000", "142546.076000", "142547.324000", "142548.532000", "142549.819000", "142551.062000", "142552.302000", "142553.592000", "142554.845000", "142556.093000", "142557.330000", "142558.564000", "142559.830000", "142601.074000", "142602.286000", "142603.574000", "142604.841000", "142606.079000", "142607.328000", "142608.574000", "142609.853000", "142611.088000", "142612.342000", "142613.590000", "142614.836000", "142616.098000", "142617.328000", "142618.592000", "142619.803000", "142621.117000", "142622.335000", "142623.658000", "142624.832000", "142626.113000", "142627.327000", "142628.608000", "142629.857000", "142631.078000", "142632.336000", "142633.564000", "142634.830000", "142636.097000", "142637.336000", "142638.546000", "142639.804000", "142641.083000", "142642.334000", "142643.587000", "142644.838000", "142646.090000", "142647.351000", "142648.565000", "142649.837000", "142651.070000", "142652.311000", "142653.583000", "142654.787000", "142656.078000", "142657.314000", "142658.625000", "142659.827000", "142701.082000", "142702.345000", "142703.548000", "142704.835000", "142706.079000", "142707.366000", "142708.570000", "142709.829000", "142711.075000", "142712.321000", "142713.630000", "142714.874000", "142716.069000", "142717.307000", "142718.577000", "142719.830000", "142721.076000", "142722.311000", "142723.581000", "142724.838000", "142726.067000", "142727.328000", "142728.626000", "142729.880000", "142731.083000", "142732.300000", "142733.589000", "142734.814000", "142736.106000", "142737.286000", "142738.543000", "142739.844000", "142741.052000", "142742.321000", "142743.580000", "142744.835000", "142746.081000", "142747.338000", "142748.586000", "142749.844000", "142751.059000", "142752.328000", "142753.580000", "142754.822000", "142756.081000", "142757.353000", "142758.556000", "142759.854000", "142801.072000", "142802.338000", "142803.560000", "142804.843000", "142806.058000", "142807.321000", "142808.596000", "142809.824000", "142811.076000", "142812.323000", "142813.551000", "142814.788000", "142816.137000", "142817.310000", "142818.578000", "142819.817000", "142821.081000", "142822.322000", "142823.560000", "142824.815000", "142826.109000"],
      "InstanceCreationTime": ["142237.539000", "142238.586000", "142239.837000", "142241.136000", "142242.327000", "142243.550000", "142244.822000", "142246.123000", "142247.314000", "142248.636000", "142249.817000", "142251.073000", "142252.313000", "142253.540000", "142254.824000", "142256.097000", "142257.332000", "142258.564000", "142259.820000", "142301.063000", "142302.327000", "142303.631000", "142304.877000", "142306.102000", "142307.346000", "142308.579000", "142309.822000", "142311.097000", "142312.308000", "142313.554000", "142314.807000", "142316.100000", "142317.338000", "142318.577000", "142319.811000", "142321.065000", "142322.320000", "142323.589000", "142324.821000", "142326.056000", "142327.294000", "142328.567000", "142329.822000", "142331.074000", "142332.314000", "142333.573000", "142334.797000", "142336.107000", "142337.323000", "142338.558000", "142339.816000", "142341.075000", "142342.323000", "142343.570000", "142344.879000", "142346.065000", "142347.327000", "142348.598000", "142349.831000", "142351.077000", "142352.370000", "142353.562000", "142354.843000", "142356.065000", "142357.310000", "142358.579000", "142359.829000", "142401.066000", "142402.372000", "142403.584000", "142404.857000", "142406.081000", "142407.332000", "142408.603000", "142409.871000", "142411.081000", "142412.310000", "142413.584000", "142414.835000", "142416.066000", "142417.305000", "142418.554000", "142419.828000", "142421.059000", "142422.314000", "142423.569000", "142424.855000", "142426.103000", "142427.320000", "142428.595000", "142429.822000", "142431.055000", "142432.350000", "142433.571000", "142434.817000", "142436.049000", "142437.308000", "142438.577000", "142439.791000", "142441.055000", "142442.338000", "142443.557000", "142444.851000", "142446.108000", "142447.325000", "142448.587000", "142449.824000", "142451.073000", "142452.309000", "142453.596000", "142454.840000", "142456.060000", "142457.371000", "142458.581000", "142459.847000", "142501.075000", "142502.336000", "142503.618000", "142504.850000", "142506.093000", "142507.355000", "142508.604000", "142509.827000", "142511.081000", "142512.331000", "142513.593000", "142514.843000", "142516.061000", "142517.335000", "142518.665000", "142519.834000", "142521.086000", "142522.315000", "142523.584000", "142524.860000", "142526.105000", "142527.322000", "142528.588000", "142529.840000", "142531.086000", "142532.330000", "142533.616000", "142534.836000", "142536.076000", "142537.330000", "142538.602000", "142539.804000", "142541.154000", "142542.332000", "142543.589000", "142544.838000", "142546.076000", "142547.324000", "142548.532000", "142549.819000", "142551.062000", "142552.302000", "142553.592000", "142554.845000", "142556.093000", "142557.330000", "142558.564000", "142559.830000", "142601.074000", "142602.286000", "142603.574000", "142604.841000", "142606.079000", "142607.328000", "142608.574000", "142609.853000", "142611.088000", "142612.342000", "142613.590000", "142614.836000", "142616.098000", "142617.328000", "142618.592000", "142619.803000", "142621.117000", "142622.335000", "142623.658000", "142624.832000", "142626.113000", "142627.327000", "142628.608000", "142629.857000", "142631.078000", "142632.336000", "142633.564000", "142634.830000", "142636.097000", "142637.336000", "142638.546000", "142639.804000", "142641.083000", "142642.334000", "142643.587000", "142644.838000", "142646.090000", "142647.351000", "142648.565000", "142649.837000", "142651.070000", "142652.311000", "142653.583000", "142654.787000", "142656.078000", "142657.314000", "142658.625000", "142659.827000", "142701.082000", "142702.345000", "142703.548000", "142704.835000", "142706.079000", "142707.366000", "142708.570000", "142709.829000", "142711.075000", "142712.321000", "142713.630000", "142714.874000", "142716.069000", "142717.307000", "142718.577000", "142719.830000", "142721.076000", "142722.311000", "142723.581000", "142724.838000", "142726.067000", "142727.328000", "142728.626000", "142729.880000", "142731.083000", "142732.300000", "142733.589000", "142734.814000", "142736.106000", "142737.286000", "142738.543000", "142739.844000", "142741.052000", "142742.321000", "142743.580000", "142744.835000", "142746.081000", "142747.338000", "142748.586000", "142749.844000", "142751.059000", "142752.328000", "142753.580000", "142754.822000", "142756.081000", "142757.353000", "142758.556000", "142759.854000", "142801.072000", "142802.338000", "142803.560000", "142804.843000", "142806.058000", "142807.321000", "142808.596000", "142809.824000", "142811.076000", "142812.323000", "142813.551000", "142814.788000", "142816.137000", "142817.310000", "142818.578000", "142819.817000", "142821.081000", "142822.322000", "142823.560000", "142824.815000", "142826.109000"],
      "InstanceNumber": [1, 2, 3, 4, 5, 6, 7, 8, 9, 10, 11, 12, 13, 14, 15, 16, 17, 18, 19, 20, 21, 22, 23, 24, 25, 26, 27, 28, 29, 30, 31, 32, 33, 34, 35, 36, 37, 38, 39, 40, 41, 42, 43, 44, 45, 46, 47, 48, 49, 50, 51, 52, 53, 54, 55, 56, 57, 58, 59, 60, 61, 62, 63, 64, 65, 66, 67, 68, 69, 70, 71, 72, 73, 74, 75, 76, 77, 78, 79, 80, 81, 82, 83, 84, 85, 86, 87, 88, 89, 90, 91, 92, 93, 94, 95, 96, 97, 98, 99, 100, 101, 102, 103, 104, 105, 106, 107, 108, 109, 110, 111, 112, 113, 114, 115, 116, 117, 118, 119, 120, 121, 122, 123, 124, 125, 126, 127, 128, 129, 130, 131, 132, 133, 134, 135, 136, 137, 138, 139, 140, 141, 142, 143, 144, 145, 146, 147, 148, 149, 150, 151, 152, 153, 154, 155, 156, 157, 158, 159, 160, 161, 162, 163, 164, 165, 166, 167, 168, 169, 170, 171, 172, 173, 174, 175, 176, 177, 178, 179, 180, 181, 182, 183, 184, 185, 186, 187, 188, 189, 190, 191, 192, 193, 194, 195, 196, 197, 198, 199, 200, 201, 202, 203, 204, 205, 206, 207, 208, 209, 210, 211, 212, 213, 214, 215, 216, 217, 218, 219, 220, 221, 222, 223, 224, 225, 226, 227, 228, 229, 230, 231, 232, 233, 234, 235, 236, 237, 238, 239, 240, 241, 242, 243, 244, 245, 246, 247, 248, 249, 250, 251, 252, 253, 254, 255, 256, 257, 258, 259, 260, 261, 262, 263, 264, 265, 266, 267, 268, 269, 270, 271, 272, 273, 274, 275, 276, 277, 278, 279, 280],
      "LargestImagePixelValue": [1764, 1744, 1306, 1271, 1260, 1263, 1185, 1103, 1064, 1018, 1084, 899, 1158, 959, 1031, 1056, 1747, 1642, 1476, 1220, 1221, 1125, 1200, 1158, 1291, 1518, 1127, 1140, 1169, 1232, 1495, 1599, 1286, 963, 967, 1488, 1278, 1683, 1393, 1130, 1072, 847, 1102, 1399, 1151, 1722, 1129, 1214, 1354, 1115, 1086, 1036, 1184, 1358, 1329, 1279, 1415, 1065, 1144, 1207, 1163, 1083, 1165, 1147, 1208, 1171, 1127, 1341, 1112, 1172, 1080, 1135, 866, 1074, 1001, 1131, 1000, 1108, 1220, 1172, 1003, 1770, 1191, 1526, 1781, 1593, 1361, 1213, 1700, 1476, 1338, 1090, 939, 907, 1146, 1065, 1253, 1213, 1227, 1265, 1281, 1439, 1427, 1577, 1384, 1227, 1103, 1240, 1395, 1276, 1334, 1206, 1248, 1254, 1277, 1215, 1306, 1055, 939, 1109, 1134, 1078, 1761, 1667, 1703, 1545, 1203, 1180, 1250, 1126, 1104, 1075, 1355, 1301, 1327, 1279, 1221, 1168, 935, 963, 1377, 1742, 1577, 1514, 1531, 1581, 1117, 1063, 1286, 1439, 1298, 1102, 1572, 1716, 1245, 1627, 1135, 1231, 1389, 1161, 1005, 1145, 1198, 1139, 1195, 1185, 1271, 1482, 1337, 1355, 1270, 1017, 984, 1225, 1180, 1113, 1178, 1137, 1310, 1418, 1633, 1392, 1301, 999, 1105, 1401, 1142, 1416, 1220, 913, 1098, 1038, 1470, 1350, 1085, 1609, 1060, 1382, 1174, 1207, 1420, 1354, 1461, 1296, 1205, 1109, 1165, 1134, 1182, 991, 994, 1145, 1585, 1335, 1752, 1164, 1089, 987, 1085, 1098, 1375, 1169, 1360, 1181, 1313, 1144, 1154, 1205, 1133, 1190, 1107, 913, 897, 1063, 1063, 1120, 1180, 1427, 1164, 1258, 1162, 1246, 1049, 1123, 1362, 1386, 1418, 1306, 1349, 1174, 1158, 1178, 1118, 1442, 1154, 1523, 1259, 1154, 1198, 912, 1208, 967, 1703, 1322, 1496, 1298, 1168, 1223, 1145, 1155, 1137, 1151, 1121, 1140, 1073, 1051, 1168, 1263, 1507, 1383],
      "WindowCenter": [394.0, 392.0, 389.0, 388.0, 388.0, 388.0, 388.0, 387.0, 386.0, 386.0, 387.0, 386.0, 388.0, 387.0, 388.0, 388.0, 392.0, 391.0, 390.0, 390.0, 389.0, 389.0, 390.0, 390.0, 391.0, 392.0, 389.0, 389.0, 390.0, 390.0, 392.0, 392.0, 390.0, 387.0, 388.0, 390.0, 389.0, 391.0, 389.0, 388.0, 387.0, 386.0, 389.0, 390.0, 389.0, 391.0, 387.0, 388.0, 389.0, 387.0, 387.0, 387.0, 389.0, 391.0, 389.0, 389.0, 389.0, 387.0, 388.0, 388.0, 388.0, 387.0, 388.0, 388.0, 388.0, 388.0, 387.0, 389.0, 388.0, 388.0, 387.0, 388.0, 386.0, 388.0, 387.0, 388.0, 388.0, 388.0, 389.0, 389.0, 387.0, 392.0, 389.0, 390.0, 391.0, 391.0, 389.0, 389.0, 391.0, 390.0, 389.0, 387.0, 386.0, 386.0, 388.0, 388.0, 390.0, 389.0, 388.0, 389.0, 389.0, 390.0, 390.0, 391.0, 389.0, 388.0, 388.0, 389.0, 391.0, 390.0, 390.0, 389.0, 390.0, 390.0, 389.0, 389.0, 389.0, 388.0, 387.0, 388.0, 388.0, 389.0, 393.0, 391.0, 391.0, 390.0, 387.0, 387.0, 388.0, 388.0, 388.0, 389.0, 390.0, 390.0, 389.0, 389.0, 389.0, 389.0, 387.0, 388.0, 390.0, 392.0, 391.0, 390.0, 390.0, 391.0, 388.0, 388.0, 388.0, 389.0, 389.0, 388.0, 391.0, 391.0, 388.0, 390.0, 387.0, 388.0, 389.0, 389.0, 387.0, 387.0, 388.0, 388.0, 388.0, 388.0, 388.0, 390.0, 389.0, 389.0, 388.0, 387.0, 387.0, 389.0, 388.0, 388.0, 389.0, 389.0, 391.0, 390.0, 391.0, 390.0, 389.0, 387.0, 388.0, 390.0, 388.0, 389.0, 388.0, 386.0, 388.0, 388.0, 391.0, 390.0, 388.0, 391.0, 388.0, 390.0, 388.0, 389.0, 390.0, 390.0, 390.0, 388.0, 388.0, 386.0, 388.0, 388.0, 388.0, 388.0, 388.0, 389.0, 391.0, 389.0, 390.0, 387.0, 386.0, 386.0, 388.0, 388.0, 390.0, 388.0, 389.0, 388.0, 389.0, 388.0, 388.0, 388.0, 388.0, 388.0, 387.0, 386.0, 386.0, 389.0, 389.0, 389.0, 389.0, 390.0, 388.0, 388.0, 388.0, 388.0, 387.0, 388.0, 390.0, 390.0, 390.0, 389.0, 390.0, 388.0, 389.0, 389.0, 389.0, 390.0, 388.0, 390.0, 388.0, 388.0, 388.0, 387.0, 389.0, 388.0, 392.0, 390.0, 391.0, 389.0, 387.0, 389.0, 389.0, 388.0, 388.0, 388.0, 389.0, 390.0, 388.0, 388.0, 389.0, 391.0, 391.0, 390.0],
      "WindowWidth": [835.0, 830.0, 825.0, 824.0, 824.0, 824.0, 823.0, 823.0, 821.0, 821.0, 822.0, 821.0, 824.0, 822.0, 824.0, 825.0, 831.0, 829.0, 827.0, 827.0, 826.0, 826.0, 827.0, 828.0, 829.0, 830.0, 826.0, 825.0, 827.0, 828.0, 829.0, 830.0, 827.0, 824.0, 824.0, 828.0, 826.0, 828.0, 826.0, 823.0, 823.0, 821.0, 825.0, 828.0, 825.0, 829.0, 823.0, 824.0, 825.0, 822.0, 823.0, 823.0, 826.0, 829.0, 826.0, 826.0, 826.0, 823.0, 823.0, 823.0, 824.0, 823.0, 824.0, 824.0, 825.0, 823.0, 823.0, 825.0, 824.0, 823.0, 822.0, 824.0, 821.0, 824.0, 822.0, 825.0, 824.0, 824.0, 825.0, 825.0, 823.0, 830.0, 825.0, 828.0, 829.0, 828.0, 826.0, 825.0, 829.0, 826.0, 825.0, 822.0, 822.0, 821.0, 824.0, 824.0, 827.0, 826.0, 825.0, 826.0, 826.0, 827.0, 827.0, 828.0, 825.0, 824.0, 825.0, 826.0, 828.0, 827.0, 828.0, 827.0, 827.0, 827.0, 826.0, 826.0, 826.0, 824.0, 822.0, 825.0, 825.0, 826.0, 832.0, 829.0, 828.0, 826.0, 822.0, 822.0, 823.0, 823.0, 824.0, 825.0, 828.0, 827.0, 826.0, 826.0, 825.0, 826.0, 823.0, 824.0, 828.0, 830.0, 829.0, 827.0, 826.0, 828.0, 824.0, 825.0, 825.0, 826.0, 825.0, 824.0, 828.0, 828.0, 824.0, 827.0, 822.0, 823.0, 825.0, 825.0, 822.0, 822.0, 823.0, 823.0, 825.0, 824.0, 824.0, 826.0, 825.0, 825.0, 824.0, 823.0, 823.0, 826.0, 824.0, 824.0, 825.0, 826.0, 828.0, 828.0, 828.0, 826.0, 826.0, 822.0, 823.0, 827.0, 824.0, 825.0, 824.0, 822.0, 825.0, 824.0, 828.0, 827.0, 824.0, 829.0, 824.0, 826.0, 825.0, 825.0, 828.0, 828.0, 827.0, 825.0, 823.0, 821.0, 824.0, 824.0, 824.0, 824.0, 824.0, 826.0, 828.0, 825.0, 827.0, 822.0, 821.0, 821.0, 824.0, 824.0, 827.0, 823.0, 825.0, 823.0, 825.0, 823.0, 823.0, 823.0, 823.0, 824.0, 822.0, 821.0, 822.0, 826.0, 826.0, 825.0, 826.0, 828.0, 824.0, 825.0, 823.0, 825.0, 823.0, 824.0, 826.0, 826.0, 826.0, 826.0, 827.0, 825.0, 826.0, 826.0, 825.0, 828.0, 824.0, 826.0, 824.0, 823.0, 824.0, 823.0, 826.0, 824.0, 831.0, 827.0, 828.0, 825.0, 823.0, 825.0, 825.0, 823.0, 824.0, 824.0, 825.0, 827.0, 824.0, 824.0, 826.0, 828.0, 829.0, 826.0]
    },
    "slices": {}
  }
}