{
  "AcquisitionMatrixPE": 96,
  "AcquisitionNumber": 1,
  "AcquisitionTime": "15:21:57.737500",
  "BandwidthPerPixelPhaseEncode": 18.939,
  "BaseResolution": 96,
  "BodyPartExamined": "BRAIN",
  "ConsistencyInfo": "N4_VE11C_LATEST_20160120",
  "ConversionSoftware": "dcm2niix",
  "ConversionSoftwareVersion": "v1.0.20170923 (OpenJPEG build) GCC6.3.0",
  "DerivedVendorReportedEchoSpacing": 0.000550011,
  "DeviceSerialNumber": "66112",
  "DwellTime": 2.3e-06,
  "EchoTime": 0.033,
  "EchoTrainLength": 96,
  "EffectiveEchoSpacing": 0.000550011,
  "FlipAngle": 64,
  "ImageType": [
    "ORIGINAL",
    "PRIMARY",
    "FMRI",
    "NONE",
    "ND",
    "NORM",
    "MOSAIC"
],
  "InstitutionAddress": "Maynard_3_Hanover_NH_US_03755",
  "InstitutionName": "Dartmouth_College_-_PBS",
  "MagneticFieldStrength": 3,
  "Manufacturer": "Siemens",
  "ManufacturersModelName": "Prisma",
  "Modality": "MR",
  "MultibandAccelerationFactor": 4,
  "PartialFourier": 1,
  "PercentPhaseFOV": 100,
  "PhaseEncodingDirection": "j-",
  "PhaseEncodingSteps": 96,
  "PhaseResolution": 1,
  "ProcedureStepDescription": "Gobbini_Matteo_1017_famface-angles",
  "ProtocolName": "func_run-11_task-fam1back",
  "PulseSequenceDetails": "%SiemensSeq%_ep2d_bold",
  "ReceiveCoilActiveElements": "HEA;HEP",
  "ReceiveCoilName": "Head_32",
  "ReconMatrixPE": 96,
  "RepetitionTime": 1.25,
  "ScanOptions": "FS",
  "ScanningSequence": "EP",
  "SequenceName": "_epfid2d1_96",
  "SequenceVariant": "SK",
  "SeriesDescription": "func_run-11_task-fam1back",
  "SliceTiming": [0.8775, 0, 0.615, 0.0875, 0.7025, 0.175, 0.79, 0.35, 0.965, 0.4375, 1.0525, 0.5275, 1.1425, 0.2625, 0.8775, 0, 0.615, 0.0875, 0.7025, 0.175, 0.79, 0.35, 0.965, 0.4375, 1.0525, 0.5275, 1.1425, 0.2625, 0.8775, 0, 0.615, 0.0875, 0.7025, 0.175, 0.79, 0.35, 0.965, 0.4375, 1.0525, 0.5275, 1.1425, 0.2625, 0.8775, 0, 0.615, 0.0875, 0.7025, 0.175, 0.79, 0.35, 0.965, 0.4375, 1.0525, 0.5275, 1.1425, 0.2625],
  "SoftwareVersions": "syngo_MR_E11",
  "StationName": "AWP66112",
  "TaskName": "fam1back",
  "TotalReadoutTime": 0.0522511,
  "dcmmeta_affine": [
    [-2.492396354675293, -0.05438418686389923, 0.18709082901477814, 122.53514099121094],
    [-0.035028863698244095, 2.4865949153900146, 0.2561623454093933, -109.8663330078125],
    [0.1916600912809372, -0.2527617812156677, 2.4797940254211426, -72.05079650878906],
    [0.0, 0.0, 0.0, 1.0]
],
  "dcmmeta_reorient_transform": [
    [0.0, -1.0, 0.0, 95.0],
    [1.0, 0.0, 0.0, 0.0],
    [0.0, 0.0, 1.0, 0.0],
    [0.0, 0.0, 0.0, 1.0]
],
  "dcmmeta_shape": [96, 96, 56, 280],
  "dcmmeta_slice_dim": 2,
  "dcmmeta_version": 0.6,
  "global": {
    "const": {
      "AccessionNumber": "A000257",
      "AcquisitionMatrix": [96, 0, 0, 96],
      "AngioFlag": "N",
      "BitsAllocated": 16,
      "BitsStored": 12,
      "BodyPartExamined": "BRAIN",
      "Columns": 768,
      "EchoNumbers": 1,
      "EchoTime": 33.0,
      "EchoTrainLength": 96,
      "FlipAngle": 64.0,
      "HighBit": 11,
      "ImageOrientationPatient": [0.99695852557906, 0.01401154592731, 0.07666403887059, -0.0217536742724, 0.99463793100553, 0.10110471730189],
      "ImagePositionPatient": [-936.54071648327, -973.62573296295, -245.38892480986],
      "ImageType": [
        "ORIGINAL",
        "PRIMARY",
        "FMRI",
        "NONE",
        "ND",
        "NORM",
        "MOSAIC"
],
      "ImagedNucleus": "1H",
      "ImagingFrequency": 123.252485,
      "InPlanePhaseEncodingDirection": "COL",
      "MRAcquisitionType": "2D",
      "MagneticFieldStrength": 3.0,
      "Manufacturer": "SIEMENS",
      "ManufacturerModelName": "Prisma",
      "Modality": "MR",
      "NumberOfAverages": 1.0,
      "NumberOfPhaseEncodingSteps": 96,
      "PercentPhaseFieldOfView": 100.0,
      "PercentSampling": 100.0,
      "PerformedProcedureStepStartTime": "135620.771000",
      "PhotometricInterpretation": "MONOCHROME2",
      "PixelBandwidth": 2265.0,
      "PixelRepresentation": 0,
      "PixelSpacing": [2.5, 2.5],
      "PositionReferenceIndicator": "",
      "ProtocolName": "func_run-11_task-fam1back",
      "RepetitionTime": 1250.0,
      "Rows": 768,
      "SAR": 0.05811172788279,
      "SamplesPerPixel": 1,
      "ScanOptions": "FS",
      "ScanningSequence": "EP",
      "SequenceName": "*epfid2d1_96",
      "SequenceVariant": "SK",
      "SeriesDescription": "func_run-11_task-fam1back",
      "SeriesNumber": 78,
      "SeriesTime": "152158.877000",
      "SliceLocation": -73.555820697713,
      "SliceThickness": 2.5,
      "SmallestImagePixelValue": 0,
      "SoftwareVersions": "syngo MR E11",
      "SpacingBetweenSlices": 2.5000000429934,
      "SpecificCharacterSet": "ISO_IR 100",
      "StudyID": "1",
      "StudyTime": "135620.665000",
      "TransmitCoilName": "Body",
      "VariableFlipAngleFlag": "N",
      "WindowCenterWidthExplanation": "Algo1",
      "dBdt": 0.0},
    "slices": {}
  },
  "time": {
    "samples": {
      "AcquisitionNumber": [1, 2, 3, 4, 5, 6, 7, 8, 9, 10, 11, 12, 13, 14, 15, 16, 17, 18, 19, 20, 21, 22, 23, 24, 25, 26, 27, 28, 29, 30, 31, 32, 33, 34, 35, 36, 37, 38, 39, 40, 41, 42, 43, 44, 45, 46, 47, 48, 49, 50, 51, 52, 53, 54, 55, 56, 57, 58, 59, 60, 61, 62, 63, 64, 65, 66, 67, 68, 69, 70, 71, 72, 73, 74, 75, 76, 77, 78, 79, 80, 81, 82, 83, 84, 85, 86, 87, 88, 89, 90, 91, 92, 93, 94, 95, 96, 97, 98, 99, 100, 101, 102, 103, 104, 105, 106, 107, 108, 109, 110, 111, 112, 113, 114, 115, 116, 117, 118, 119, 120, 121, 122, 123, 124, 125, 126, 127, 128, 129, 130, 131, 132, 133, 134, 135, 136, 137, 138, 139, 140, 141, 142, 143, 144, 145, 146, 147, 148, 149, 150, 151, 152, 153, 154, 155, 156, 157, 158, 159, 160, 161, 162, 163, 164, 165, 166, 167, 168, 169, 170, 171, 172, 173, 174, 175, 176, 177, 178, 179, 180, 181, 182, 183, 184, 185, 186, 187, 188, 189, 190, 191, 192, 193, 194, 195, 196, 197, 198, 199, 200, 201, 202, 203, 204, 205, 206, 207, 208, 209, 210, 211, 212, 213, 214, 215, 216, 217, 218, 219, 220, 221, 222, 223, 224, 225, 226, 227, 228, 229, 230, 231, 232, 233, 234, 235, 236, 237, 238, 239, 240, 241, 242, 243, 244, 245, 246, 247, 248, 249, 250, 251, 252, 253, 254, 255, 256, 257, 258, 259, 260, 261, 262, 263, 264, 265, 266, 267, 268, 269, 270, 271, 272, 273, 274, 275, 276, 277, 278, 279, 280],
      "AcquisitionTime": ["152157.737500", "152158.987500", "152200.237500", "152201.487500", "152202.737500", "152203.987500", "152205.237500", "152206.487500", "152207.737500", "152208.987500", "152210.237500", "152211.487500", "152212.737500", "152213.987500", "152215.237500", "152216.487500", "152217.737500", "152218.987500", "152220.237500", "152221.487500", "152222.737500", "152223.987500", "152225.237500", "152226.487500", "152227.737500", "152228.987500", "152230.237500", "152231.487500", "152232.737500", "152233.987500", "152235.237500", "152236.487500", "152237.737500", "152238.987500", "152240.237500", "152241.487500", "152242.737500", "152243.987500", "152245.237500", "152246.487500", "152247.737500", "152248.987500", "152250.237500", "152251.487500", "152252.737500", "152253.987500", "152255.237500", "152256.487500", "152257.737500", "152258.987500", "152300.237500", "152301.487500", "152302.737500", "152303.987500", "152305.237500", "152306.487500", "152307.737500", "152308.987500", "152310.237500", "152311.487500", "152312.737500", "152313.987500", "152315.237500", "152316.487500", "152317.737500", "152318.987500", "152320.237500", "152321.487500", "152322.737500", "152323.987500", "152325.237500", "152326.487500", "152327.737500", "152328.987500", "152330.237500", "152331.487500", "152332.737500", "152333.987500", "152335.237500", "152336.487500", "152337.737500", "152338.987500", "152340.237500", "152341.487500", "152342.737500", "152343.987500", "152345.237500", "152346.487500", "152347.737500", "152348.987500", "152350.237500", "152351.487500", "152352.737500", "152353.987500", "152355.237500", "152356.487500", "152357.737500", "152358.987500", "152400.237500", "152401.487500", "152402.737500", "152403.987500", "152405.237500", "152406.487500", "152407.737500", "152408.987500", "152410.237500", "152411.487500", "152412.737500", "152413.987500", "152415.237500", "152416.487500", "152417.737500", "152418.987500", "152420.237500", "152421.487500", "152422.737500", "152423.987500", "152425.237500", "152426.487500", "152427.737500", "152428.987500", "152430.237500", "152431.487500", "152432.737500", "152433.987500", "152435.237500", "152436.487500", "152437.737500", "152438.987500", "152440.237500", "152441.487500", "152442.737500", "152443.987500", "152445.237500", "152446.487500", "152447.737500", "152448.987500", "152450.237500", "152451.487500", "152452.737500", "152453.987500", "152455.237500", "152456.487500", "152457.737500", "152458.987500", "152500.237500", "152501.487500", "152502.737500", "152503.987500", "152505.237500", "152506.487500", "152507.737500", "152508.987500", "152510.237500", "152511.487500", "152512.737500", "152513.987500", "152515.237500", "152516.487500", "152517.737500", "152518.987500", "152520.237500", "152521.487500", "152522.737500", "152523.987500", "152525.237500", "152526.487500", "152527.737500", "152528.987500", "152530.237500", "152531.487500", "152532.737500", "152533.987500", "152535.237500", "152536.487500", "152537.737500", "152538.987500", "152540.237500", "152541.487500", "152542.737500", "152543.987500", "152545.237500", "152546.487500", "152547.737500", "152548.987500", "152550.237500", "152551.487500", "152552.737500", "152553.987500", "152555.237500", "152556.487500", "152557.737500", "152558.987500", "152600.237500", "152601.487500", "152602.737500", "152603.987500", "152605.237500", "152606.487500", "152607.737500", "152608.987500", "152610.237500", "152611.487500", "152612.737500", "152613.987500", "152615.237500", "152616.487500", "152617.737500", "152618.987500", "152620.237500", "152621.487500", "152622.737500", "152623.987500", "152625.237500", "152626.487500", "152627.737500", "152628.987500", "152630.237500", "152631.487500", "152632.737500", "152633.987500", "152635.237500", "152636.487500", "152637.737500", "152638.987500", "152640.237500", "152641.487500", "152642.737500", "152643.987500", "152645.237500", "152646.487500", "152647.737500", "152648.987500", "152650.237500", "152651.487500", "152652.737500", "152653.987500", "152655.237500", "152656.487500", "152657.737500", "152658.987500", "152700.237500", "152701.487500", "152702.737500", "152703.987500", "152705.237500", "152706.487500", "152707.737500", "152708.987500", "152710.237500", "152711.487500", "152712.737500", "152713.987500", "152715.237500", "152716.487500", "152717.737500", "152718.987500", "152720.237500", "152721.487500", "152722.737500", "152723.987500", "152725.237500", "152726.487500", "152727.737500", "152728.987500", "152730.237500", "152731.487500", "152732.737500", "152733.987500", "152735.237500", "152736.487500", "152737.737500", "152738.987500", "152740.237500", "152741.487500", "152742.737500", "152743.987500", "152745.237500", "152746.487500"],
      "ContentTime": ["152158.881000", "152159.864000", "152201.112000", "152202.347000", "152203.620000", "152204.856000", "152206.131000", "152207.418000", "152208.629000", "152209.889000", "152211.143000", "152212.364000", "152213.604000", "152214.858000", "152216.090000", "152217.355000", "152218.629000", "152219.913000", "152221.087000", "152222.343000", "152223.625000", "152224.869000", "152226.088000", "152227.382000", "152228.592000", "152229.864000", "152231.131000", "152232.359000", "152233.611000", "152234.904000", "152236.159000", "152237.373000", "152238.641000", "152239.879000", "152241.097000", "152242.326000", "152243.630000", "152244.865000", "152246.175000", "152247.362000", "152248.621000", "152249.875000", "152251.104000", "152252.376000", "152253.595000", "152254.881000", "152256.150000", "152257.421000", "152258.665000", "152259.928000", "152301.107000", "152302.371000", "152303.626000", "152304.836000", "152306.164000", "152307.365000", "152308.636000", "152309.864000", "152311.098000", "152312.355000", "152313.607000", "152314.856000", "152316.113000", "152317.390000", "152318.632000", "152319.860000", "152321.157000", "152322.374000", "152323.593000", "152324.854000", "152326.122000", "152327.367000", "152328.630000", "152329.857000", "152331.113000", "152332.376000", "152333.594000", "152334.851000", "152336.125000", "152337.357000", "152338.638000", "152339.861000", "152341.120000", "152342.360000", "152343.595000", "152344.872000", "152346.116000", "152347.354000", "152348.586000", "152349.841000", "152351.167000", "152352.368000", "152353.599000", "152354.866000", "152356.099000", "152357.343000", "152358.625000", "152359.861000", "152401.135000", "152402.363000", "152403.628000", "152404.864000", "152406.119000", "152407.386000", "152408.616000", "152409.902000", "152411.169000", "152412.462000", "152413.608000", "152414.857000", "152416.129000", "152417.425000", "152418.600000", "152419.886000", "152421.142000", "152422.404000", "152423.614000", "152424.872000", "152426.108000", "152427.374000", "152428.625000", "152429.866000", "152431.127000", "152432.380000", "152433.625000", "152434.877000", "152436.108000", "152437.380000", "152438.628000", "152439.878000", "152441.111000", "152442.381000", "152443.670000", "152444.862000", "152446.109000", "152447.359000", "152448.637000", "152449.887000", "152451.148000", "152452.388000", "152453.625000", "152454.924000", "152456.104000", "152457.390000", "152458.644000", "152459.898000", "152501.126000", "152502.379000", "152503.631000", "152504.873000", "152506.129000", "152507.372000", "152508.640000", "152509.901000", "152511.128000", "152512.395000", "152513.636000", "152514.861000", "152516.124000", "152517.400000", "152518.627000", "152519.888000", "152521.141000", "152522.354000", "152523.619000", "152524.875000", "152526.210000", "152527.378000", "152528.661000", "152529.881000", "152531.159000", "152532.362000", "152533.619000", "152534.861000", "152536.128000", "152537.404000", "152538.626000", "152539.853000", "152541.131000", "152542.380000", "152543.633000", "152544.865000", "152546.120000", "152547.357000", "152548.639000", "152549.860000", "152551.102000", "152552.356000", "152553.614000", "152554.921000", "152556.100000", "152557.368000", "152558.607000", "152559.905000", "152601.156000", "152602.361000", "152603.620000", "152604.871000", "152606.135000", "152607.400000", "152608.689000", "152609.876000", "152611.116000", "152612.387000", "152613.607000", "152614.869000", "152616.124000", "152617.367000", "152618.576000", "152619.901000", "152621.150000", "152622.426000", "152623.624000", "152624.859000", "152626.123000", "152627.387000", "152628.631000", "152629.891000", "152631.115000", "152632.468000", "152633.640000", "152634.883000", "152636.159000", "152637.380000", "152638.645000", "152639.850000", "152641.097000", "152642.353000", "152643.685000", "152644.842000", "152646.125000", "152647.377000", "152648.646000", "152649.875000", "152651.152000", "152652.392000", "152653.611000", "152654.934000", "152656.126000", "152657.341000", "152658.605000", "152659.874000", "152701.171000", "152702.387000", "152703.594000", "152704.903000", "152706.118000", "152707.347000", "152708.617000", "152709.862000", "152711.104000", "152712.377000", "152713.620000", "152714.873000", "152716.155000", "152717.398000", "152718.632000", "152719.887000", "152721.109000", "152722.378000", "152723.629000", "152724.863000", "152726.142000", "152727.379000", "152728.630000", "152729.870000", "152731.101000", "152732.410000", "152733.633000", "152734.864000", "152736.134000", "152737.369000", "152738.642000", "152739.890000", "152741.122000", "152742.388000", "152743.639000", "152744.878000", "152746.121000", "152747.433000"],
      "InstanceCreationTime": ["152158.881000", "152159.864000", "152201.112000", "152202.347000", "152203.620000", "152204.856000", "152206.131000", "152207.418000", "152208.629000", "152209.889000", "152211.143000", "152212.364000", "152213.604000", "152214.858000", "152216.090000", "152217.355000", "152218.629000", "152219.913000", "152221.087000", "152222.343000", "152223.625000", "152224.869000", "152226.088000", "152227.382000", "152228.592000", "152229.864000", "152231.131000", "152232.359000", "152233.611000", "152234.904000", "152236.159000", "152237.373000", "152238.641000", "152239.879000", "152241.097000", "152242.326000", "152243.630000", "152244.865000", "152246.175000", "152247.362000", "152248.621000", "152249.875000", "152251.104000", "152252.376000", "152253.595000", "152254.881000", "152256.150000", "152257.421000", "152258.665000", "152259.928000", "152301.107000", "152302.371000", "152303.626000", "152304.836000", "152306.164000", "152307.365000", "152308.636000", "152309.864000", "152311.098000", "152312.355000", "152313.607000", "152314.856000", "152316.113000", "152317.390000", "152318.632000", "152319.860000", "152321.157000", "152322.374000", "152323.593000", "152324.854000", "152326.122000", "152327.367000", "152328.630000", "152329.857000", "152331.113000", "152332.376000", "152333.594000", "152334.851000", "152336.125000", "152337.357000", "152338.638000", "152339.861000", "152341.120000", "152342.360000", "152343.595000", "152344.872000", "152346.116000", "152347.354000", "152348.586000", "152349.841000", "152351.167000", "152352.368000", "152353.599000", "152354.866000", "152356.099000", "152357.343000", "152358.625000", "152359.861000", "152401.135000", "152402.363000", "152403.628000", "152404.864000", "152406.119000", "152407.386000", "152408.616000", "152409.902000", "152411.169000", "152412.462000", "152413.608000", "152414.857000", "152416.129000", "152417.425000", "152418.600000", "152419.886000", "152421.142000", "152422.404000", "152423.614000", "152424.872000", "152426.108000", "152427.374000", "152428.625000", "152429.866000", "152431.127000", "152432.380000", "152433.625000", "152434.877000", "152436.108000", "152437.380000", "152438.628000", "152439.878000", "152441.111000", "152442.381000", "152443.670000", "152444.862000", "152446.109000", "152447.359000", "152448.637000", "152449.887000", "152451.148000", "152452.388000", "152453.625000", "152454.924000", "152456.104000", "152457.390000", "152458.644000", "152459.898000", "152501.126000", "152502.379000", "152503.631000", "152504.873000", "152506.129000", "152507.372000", "152508.640000", "152509.901000", "152511.128000", "152512.395000", "152513.636000", "152514.861000", "152516.124000", "152517.400000", "152518.627000", "152519.888000", "152521.141000", "152522.354000", "152523.619000", "152524.875000", "152526.210000", "152527.378000", "152528.661000", "152529.881000", "152531.159000", "152532.362000", "152533.619000", "152534.861000", "152536.128000", "152537.404000", "152538.626000", "152539.853000", "152541.131000", "152542.380000", "152543.633000", "152544.865000", "152546.120000", "152547.357000", "152548.639000", "152549.860000", "152551.102000", "152552.356000", "152553.614000", "152554.921000", "152556.100000", "152557.368000", "152558.607000", "152559.905000", "152601.156000", "152602.361000", "152603.620000", "152604.871000", "152606.135000", "152607.400000", "152608.689000", "152609.876000", "152611.116000", "152612.387000", "152613.607000", "152614.869000", "152616.124000", "152617.367000", "152618.576000", "152619.901000", "152621.150000", "152622.426000", "152623.624000", "152624.859000", "152626.123000", "152627.387000", "152628.631000", "152629.891000", "152631.115000", "152632.468000", "152633.640000", "152634.883000", "152636.159000", "152637.380000", "152638.645000", "152639.850000", "152641.097000", "152642.353000", "152643.685000", "152644.842000", "152646.125000", "152647.377000", "152648.646000", "152649.875000", "152651.152000", "152652.392000", "152653.611000", "152654.934000", "152656.126000", "152657.341000", "152658.605000", "152659.874000", "152701.171000", "152702.387000", "152703.594000", "152704.903000", "152706.118000", "152707.347000", "152708.617000", "152709.862000", "152711.104000", "152712.377000", "152713.620000", "152714.873000", "152716.155000", "152717.398000", "152718.632000", "152719.887000", "152721.109000", "152722.378000", "152723.629000", "152724.863000", "152726.142000", "152727.379000", "152728.630000", "152729.870000", "152731.101000", "152732.410000", "152733.633000", "152734.864000", "152736.134000", "152737.369000", "152738.642000", "152739.890000", "152741.122000", "152742.388000", "152743.639000", "152744.878000", "152746.121000", "152747.433000"],
      "InstanceNumber": [1, 2, 3, 4, 5, 6, 7, 8, 9, 10, 11, 12, 13, 14, 15, 16, 17, 18, 19, 20, 21, 22, 23, 24, 25, 26, 27, 28, 29, 30, 31, 32, 33, 34, 35, 36, 37, 38, 39, 40, 41, 42, 43, 44, 45, 46, 47, 48, 49, 50, 51, 52, 53, 54, 55, 56, 57, 58, 59, 60, 61, 62, 63, 64, 65, 66, 67, 68, 69, 70, 71, 72, 73, 74, 75, 76, 77, 78, 79, 80, 81, 82, 83, 84, 85, 86, 87, 88, 89, 90, 91, 92, 93, 94, 95, 96, 97, 98, 99, 100, 101, 102, 103, 104, 105, 106, 107, 108, 109, 110, 111, 112, 113, 114, 115, 116, 117, 118, 119, 120, 121, 122, 123, 124, 125, 126, 127, 128, 129, 130, 131, 132, 133, 134, 135, 136, 137, 138, 139, 140, 141, 142, 143, 144, 145, 146, 147, 148, 149, 150, 151, 152, 153, 154, 155, 156, 157, 158, 159, 160, 161, 162, 163, 164, 165, 166, 167, 168, 169, 170, 171, 172, 173, 174, 175, 176, 177, 178, 179, 180, 181, 182, 183, 184, 185, 186, 187, 188, 189, 190, 191, 192, 193, 194, 195, 196, 197, 198, 199, 200, 201, 202, 203, 204, 205, 206, 207, 208, 209, 210, 211, 212, 213, 214, 215, 216, 217, 218, 219, 220, 221, 222, 223, 224, 225, 226, 227, 228, 229, 230, 231, 232, 233, 234, 235, 236, 237, 238, 239, 240, 241, 242, 243, 244, 245, 246, 247, 248, 249, 250, 251, 252, 253, 254, 255, 256, 257, 258, 259, 260, 261, 262, 263, 264, 265, 266, 267, 268, 269, 270, 271, 272, 273, 274, 275, 276, 277, 278, 279, 280],
      "LargestImagePixelValue": [1379, 1291, 1386, 1177, 1321, 1173, 1347, 1343, 1222, 1046, 1839, 1431, 1112, 1230, 1015, 1042, 982, 1020, 1411, 1047, 1507, 1463, 1353, 1084, 1328, 1057, 1056, 1054, 1038, 1657, 1239, 1247, 993, 1201, 1668, 1489, 1540, 1021, 1064, 972, 1062, 1339, 1093, 1069, 1372, 998, 1590, 1293, 1261, 1132, 1006, 973, 1085, 1036, 1476, 1563, 1494, 1275, 970, 1116, 1081, 1051, 1453, 1300, 1473, 1302, 1108, 1058, 1061, 1387, 1337, 1094, 1060, 1042, 1051, 1128, 1470, 1680, 1302, 972, 1497, 1016, 1277, 1379, 1200, 1331, 1427, 1020, 1040, 1140, 1117, 1213, 1353, 1373, 1195, 1167, 989, 1092, 1050, 1311, 1402, 1075, 992, 1071, 1170, 1027, 1042, 1015, 1039, 1427, 1163, 1075, 1181, 972, 1068, 895, 1204, 1080, 1621, 1494, 1006, 1499, 1262, 1080, 1378, 1522, 1640, 1483, 1223, 1179, 935, 1004, 1107, 1646, 1584, 1663, 1369, 1077, 1190, 1080, 1187, 1465, 1308, 1051, 1531, 1246, 1033, 1130, 1096, 1542, 1144, 947, 1011, 1189, 1356, 1265, 1036, 1001, 877, 973, 1100, 1192, 1323, 1440, 1510, 1236, 1102, 1219, 1484, 1583, 1579, 1316, 1264, 1484, 1105, 1099, 1387, 1307, 1253, 1109, 1411, 1487, 1182, 1717, 1462, 1373, 1109, 1042, 1254, 1070, 1098, 1265, 1039, 1189, 1092, 1258, 1440, 1278, 1033, 1073, 1074, 983, 1202, 1125, 1038, 1441, 1446, 1535, 1261, 1028, 995, 977, 996, 1046, 1171, 1361, 1528, 1501, 1370, 1315, 1395, 1267, 1147, 1140, 1414, 1292, 1013, 1500, 1185, 1344, 1143, 1177, 1226, 1226, 992, 1071, 1026, 1351, 1031, 1491, 1505, 1438, 1262, 1163, 1100, 1054, 998, 1179, 1016, 1710, 1420, 1637, 1402, 1244, 1042, 1025, 1024, 1318, 1158, 1686, 1581, 1427, 1026, 1297, 1287, 1144, 1072, 1060, 1374, 973, 934, 978, 997, 1610, 1030, 1436, 1118, 1240, 1178, 1005],
      "WindowCenter": [393.0, 391.0, 390.0, 388.0, 389.0, 389.0, 389.0, 389.0, 388.0, 387.0, 391.0, 388.0, 385.0, 386.0, 386.0, 386.0, 386.0, 387.0, 390.0, 387.0, 390.0, 390.0, 389.0, 387.0, 389.0, 387.0, 387.0, 387.0, 387.0, 391.0, 388.0, 388.0, 387.0, 389.0, 390.0, 389.0, 389.0, 386.0, 386.0, 386.0, 387.0, 389.0, 387.0, 386.0, 389.0, 386.0, 390.0, 389.0, 388.0, 388.0, 387.0, 387.0, 387.0, 386.0, 390.0, 390.0, 390.0, 389.0, 386.0, 388.0, 387.0, 387.0, 390.0, 389.0, 390.0, 389.0, 388.0, 388.0, 387.0, 389.0, 389.0, 387.0, 387.0, 387.0, 387.0, 388.0, 390.0, 391.0, 389.0, 387.0, 391.0, 387.0, 389.0, 389.0, 388.0, 389.0, 389.0, 386.0, 387.0, 388.0, 388.0, 388.0, 389.0, 389.0, 387.0, 388.0, 386.0, 388.0, 387.0, 389.0, 389.0, 386.0, 386.0, 387.0, 388.0, 386.0, 387.0, 387.0, 387.0, 390.0, 388.0, 388.0, 388.0, 387.0, 388.0, 387.0, 389.0, 388.0, 391.0, 390.0, 387.0, 391.0, 389.0, 388.0, 390.0, 390.0, 391.0, 390.0, 389.0, 388.0, 386.0, 387.0, 387.0, 390.0, 390.0, 390.0, 388.0, 386.0, 387.0, 386.0, 388.0, 388.0, 388.0, 386.0, 390.0, 388.0, 386.0, 387.0, 387.0, 389.0, 387.0, 385.0, 387.0, 389.0, 389.0, 387.0, 386.0, 386.0, 385.0, 387.0, 388.0, 388.0, 389.0, 390.0, 391.0, 389.0, 388.0, 389.0, 390.0, 391.0, 390.0, 390.0, 389.0, 390.0, 387.0, 387.0, 389.0, 390.0, 390.0, 388.0, 390.0, 390.0, 388.0, 391.0, 389.0, 389.0, 386.0, 387.0, 389.0, 387.0, 387.0, 388.0, 387.0, 388.0, 387.0, 388.0, 389.0, 388.0, 386.0, 386.0, 387.0, 387.0, 389.0, 389.0, 388.0, 390.0, 390.0, 390.0, 388.0, 387.0, 387.0, 388.0, 388.0, 388.0, 389.0, 390.0, 391.0, 391.0, 390.0, 389.0, 389.0, 388.0, 387.0, 388.0, 389.0, 388.0, 386.0, 390.0, 387.0, 389.0, 388.0, 388.0, 389.0, 388.0, 386.0, 387.0, 386.0, 389.0, 387.0, 391.0, 391.0, 389.0, 388.0, 388.0, 388.0, 387.0, 387.0, 388.0, 387.0, 391.0, 389.0, 390.0, 389.0, 388.0, 386.0, 386.0, 386.0, 388.0, 387.0, 390.0, 390.0, 389.0, 386.0, 389.0, 388.0, 387.0, 387.0, 387.0, 389.0, 386.0, 385.0, 386.0, 386.0, 390.0, 386.0, 389.0, 387.0, 388.0, 388.0, 387.0],
      "WindowWidth": [833.0, 829.0, 828.0, 825.0, 826.0, 825.0, 826.0, 825.0, 824.0, 823.0, 828.0, 822.0, 818.0, 821.0, 820.0, 821.0, 821.0, 822.0, 826.0, 822.0, 827.0, 827.0, 825.0, 823.0, 825.0, 822.0, 822.0, 822.0, 822.0, 829.0, 824.0, 823.0, 822.0, 825.0, 827.0, 824.0, 825.0, 820.0, 821.0, 821.0, 822.0, 825.0, 822.0, 821.0, 825.0, 821.0, 827.0, 824.0, 824.0, 823.0, 822.0, 822.0, 822.0, 821.0, 826.0, 827.0, 826.0, 825.0, 821.0, 823.0, 822.0, 822.0, 826.0, 825.0, 827.0, 825.0, 823.0, 824.0, 823.0, 825.0, 825.0, 822.0, 822.0, 822.0, 823.0, 824.0, 827.0, 828.0, 825.0, 822.0, 828.0, 823.0, 826.0, 826.0, 825.0, 825.0, 824.0, 821.0, 822.0, 823.0, 823.0, 824.0, 825.0, 825.0, 823.0, 823.0, 821.0, 823.0, 822.0, 825.0, 824.0, 821.0, 820.0, 822.0, 823.0, 821.0, 822.0, 823.0, 823.0, 827.0, 825.0, 824.0, 825.0, 822.0, 824.0, 823.0, 825.0, 824.0, 828.0, 827.0, 823.0, 829.0, 826.0, 824.0, 827.0, 827.0, 828.0, 826.0, 825.0, 824.0, 821.0, 822.0, 822.0, 827.0, 826.0, 827.0, 823.0, 821.0, 822.0, 821.0, 823.0, 823.0, 823.0, 821.0, 827.0, 824.0, 821.0, 822.0, 822.0, 825.0, 822.0, 820.0, 823.0, 826.0, 825.0, 823.0, 820.0, 821.0, 820.0, 822.0, 823.0, 825.0, 826.0, 827.0, 828.0, 825.0, 824.0, 825.0, 827.0, 827.0, 827.0, 826.0, 825.0, 826.0, 823.0, 822.0, 826.0, 826.0, 827.0, 824.0, 827.0, 827.0, 824.0, 828.0, 826.0, 824.0, 821.0, 822.0, 824.0, 822.0, 822.0, 824.0, 822.0, 823.0, 822.0, 824.0, 825.0, 824.0, 821.0, 821.0, 822.0, 822.0, 826.0, 825.0, 824.0, 827.0, 827.0, 826.0, 824.0, 822.0, 823.0, 825.0, 825.0, 825.0, 826.0, 828.0, 828.0, 828.0, 826.0, 826.0, 826.0, 824.0, 823.0, 823.0, 825.0, 824.0, 822.0, 826.0, 823.0, 824.0, 823.0, 824.0, 825.0, 824.0, 821.0, 822.0, 821.0, 825.0, 822.0, 827.0, 828.0, 826.0, 824.0, 823.0, 824.0, 823.0, 822.0, 824.0, 822.0, 828.0, 826.0, 827.0, 826.0, 824.0, 822.0, 822.0, 822.0, 824.0, 821.0, 827.0, 826.0, 824.0, 821.0, 825.0, 824.0, 823.0, 823.0, 823.0, 826.0, 821.0, 820.0, 821.0, 820.0, 827.0, 821.0, 825.0, 822.0, 824.0, 824.0, 822.0]
    },
    "slices": {}
  }
}