{
  "AcquisitionMatrixPE": 96,
  "AcquisitionNumber": 1,
  "AcquisitionTime": "16:02:7.535000",
  "BandwidthPerPixelPhaseEncode": 18.939,
  "BaseResolution": 96,
  "BodyPartExamined": "BRAIN",
  "ConsistencyInfo": "N4_VE11C_LATEST_20160120",
  "ConversionSoftware": "dcm2niix",
  "ConversionSoftwareVersion": "v1.0.20170923 (OpenJPEG build) GCC6.3.0",
  "DerivedVendorReportedEchoSpacing": 0.000550011,
  "DeviceSerialNumber": "66112",
  "DwellTime": 2.3e-06,
  "EchoTime": 0.033,
  "EchoTrainLength": 96,
  "EffectiveEchoSpacing": 0.000550011,
  "FlipAngle": 64,
  "ImageType": [
    "ORIGINAL",
    "PRIMARY",
    "FMRI",
    "NONE",
    "ND",
    "NORM",
    "MOSAIC"
],
  "InstitutionAddress": "Maynard_3_Hanover_NH_US_03755",
  "InstitutionName": "Dartmouth_College_-_PBS",
  "MagneticFieldStrength": 3,
  "Manufacturer": "Siemens",
  "ManufacturersModelName": "Prisma",
  "Modality": "MR",
  "MultibandAccelerationFactor": 4,
  "PartialFourier": 1,
  "PercentPhaseFOV": 100,
  "PhaseEncodingDirection": "j-",
  "PhaseEncodingSteps": 96,
  "PhaseResolution": 1,
  "ProcedureStepDescription": "Gobbini_Matteo_1017_famface-angles",
  "ProtocolName": "func_run-11_task-str1back",
  "PulseSequenceDetails": "%SiemensSeq%_ep2d_bold",
  "ReceiveCoilActiveElements": "HEA;HEP",
  "ReceiveCoilName": "Head_32",
  "ReconMatrixPE": 96,
  "RepetitionTime": 1.25,
  "ScanOptions": "FS",
  "ScanningSequence": "EP",
  "SequenceName": "_epfid2d1_96",
  "SequenceVariant": "SK",
  "SeriesDescription": "func_run-11_task-str1back",
  "SliceTiming": [0.8775, 0, 0.615, 0.0875, 0.7025, 0.175, 0.79, 0.3525, 0.9675, 0.44, 1.055, 0.5275, 1.1425, 0.2625, 0.8775, 0, 0.615, 0.0875, 0.7025, 0.175, 0.79, 0.3525, 0.9675, 0.44, 1.055, 0.5275, 1.1425, 0.2625, 0.8775, 0, 0.615, 0.0875, 0.7025, 0.175, 0.79, 0.3525, 0.9675, 0.44, 1.055, 0.5275, 1.1425, 0.2625, 0.8775, 0, 0.615, 0.0875, 0.7025, 0.175, 0.79, 0.3525, 0.9675, 0.44, 1.055, 0.5275, 1.1425, 0.2625],
  "SoftwareVersions": "syngo_MR_E11",
  "StationName": "AWP66112",
  "TaskName": "str1back",
  "TotalReadoutTime": 0.0522511,
  "dcmmeta_affine": [
    [-2.4974052906036377, -0.07324890047311783, 0.08718433976173401, 125.31900787353516],
    [-0.07097452878952026, 2.498126983642578, 0.06575585901737213, -98.83976745605469],
    [0.08904563635587692, -0.06321246922016144, 2.4976139068603516, -99.29717254638672],
    [0.0, 0.0, 0.0, 1.0]
],
  "dcmmeta_reorient_transform": [
    [0.0, -1.0, 0.0, 95.0],
    [1.0, 0.0, 0.0, 0.0],
    [0.0, 0.0, 1.0, 0.0],
    [0.0, 0.0, 0.0, 1.0]
],
  "dcmmeta_shape": [96, 96, 56, 280],
  "dcmmeta_slice_dim": 2,
  "dcmmeta_version": 0.6,
  "global": {
    "const": {
      "AccessionNumber": "A000622",
      "AcquisitionMatrix": [96, 0, 0, 96],
      "AngioFlag": "N",
      "BitsAllocated": 16,
      "BitsStored": 12,
      "BodyPartExamined": "BRAIN",
      "Columns": 768,
      "EchoNumbers": 1,
      "EchoTime": 33.0,
      "EchoTrainLength": 96,
      "FlipAngle": 64.0,
      "HighBit": 11,
      "ImageOrientationPatient": [0.9989621406208, 0.02838981249847, 0.03561825588958, -0.0292995594538, 0.99925082197658, 0.02528498754087],
      "ImagePositionPatient": [-932.87693312773, -1001.7004382113, -156.46107884215],
      "ImageType": [
        "ORIGINAL",
        "PRIMARY",
        "FMRI",
        "NONE",
        "ND",
        "NORM",
        "MOSAIC"
],
      "ImagedNucleus": "1H",
      "ImagingFrequency": 123.252415,
      "InPlanePhaseEncodingDirection": "COL",
      "MRAcquisitionType": "2D",
      "MagneticFieldStrength": 3.0,
      "Manufacturer": "SIEMENS",
      "ManufacturerModelName": "Prisma",
      "Modality": "MR",
      "NumberOfAverages": 1.0,
      "NumberOfPhaseEncodingSteps": 96,
      "PercentPhaseFieldOfView": 100.0,
      "PercentSampling": 100.0,
      "PerformedProcedureStepStartTime": "143042.567000",
      "PhotometricInterpretation": "MONOCHROME2",
      "PixelBandwidth": 2265.0,
      "PixelRepresentation": 0,
      "PixelSpacing": [2.5, 2.5],
      "PositionReferenceIndicator": "",
      "ProtocolName": "func_run-11_task-str1back",
      "RepetitionTime": 1250.0,
      "Rows": 768,
      "SAR": 0.05694067184066,
      "SamplesPerPixel": 1,
      "ScanOptions": "FS",
      "ScanningSequence": "EP",
      "SequenceName": "*epfid2d1_96",
      "SequenceVariant": "SK",
      "SeriesDescription": "func_run-11_task-str1back",
      "SeriesNumber": 81,
      "SeriesTime": "160208.839000",
      "SliceLocation": -97.43177108844,
      "SliceThickness": 2.5,
      "SmallestImagePixelValue": 0,
      "SoftwareVersions": "syngo MR E11",
      "SpacingBetweenSlices": 2.4999999993289,
      "SpecificCharacterSet": "ISO_IR 100",
      "StudyID": "1",
      "StudyTime": "143042.498000",
      "TransmitCoilName": "Body",
      "VariableFlipAngleFlag": "N",
      "WindowCenterWidthExplanation": "Algo1",
      "dBdt": 0.0},
    "slices": {}
  },
  "time": {
    "samples": {
      "AcquisitionNumber": [1, 2, 3, 4, 5, 6, 7, 8, 9, 10, 11, 12, 13, 14, 15, 16, 17, 18, 19, 20, 21, 22, 23, 24, 25, 26, 27, 28, 29, 30, 31, 32, 33, 34, 35, 36, 37, 38, 39, 40, 41, 42, 43, 44, 45, 46, 47, 48, 49, 50, 51, 52, 53, 54, 55, 56, 57, 58, 59, 60, 61, 62, 63, 64, 65, 66, 67, 68, 69, 70, 71, 72, 73, 74, 75, 76, 77, 78, 79, 80, 81, 82, 83, 84, 85, 86, 87, 88, 89, 90, 91, 92, 93, 94, 95, 96, 97, 98, 99, 100, 101, 102, 103, 104, 105, 106, 107, 108, 109, 110, 111, 112, 113, 114, 115, 116, 117, 118, 119, 120, 121, 122, 123, 124, 125, 126, 127, 128, 129, 130, 131, 132, 133, 134, 135, 136, 137, 138, 139, 140, 141, 142, 143, 144, 145, 146, 147, 148, 149, 150, 151, 152, 153, 154, 155, 156, 157, 158, 159, 160, 161, 162, 163, 164, 165, 166, 167, 168, 169, 170, 171, 172, 173, 174, 175, 176, 177, 178, 179, 180, 181, 182, 183, 184, 185, 186, 187, 188, 189, 190, 191, 192, 193, 194, 195, 196, 197, 198, 199, 200, 201, 202, 203, 204, 205, 206, 207, 208, 209, 210, 211, 212, 213, 214, 215, 216, 217, 218, 219, 220, 221, 222, 223, 224, 225, 226, 227, 228, 229, 230, 231, 232, 233, 234, 235, 236, 237, 238, 239, 240, 241, 242, 243, 244, 245, 246, 247, 248, 249, 250, 251, 252, 253, 254, 255, 256, 257, 258, 259, 260, 261, 262, 263, 264, 265, 266, 267, 268, 269, 270, 271, 272, 273, 274, 275, 276, 277, 278, 279, 280],
      "AcquisitionTime": ["160207.535000", "160208.785000", "160210.035000", "160211.285000", "160212.535000", "160213.785000", "160215.035000", "160216.285000", "160217.535000", "160218.785000", "160220.035000", "160221.285000", "160222.535000", "160223.785000", "160225.035000", "160226.285000", "160227.535000", "160228.785000", "160230.035000", "160231.285000", "160232.535000", "160233.785000", "160235.035000", "160236.285000", "160237.535000", "160238.785000", "160240.035000", "160241.285000", "160242.535000", "160243.785000", "160245.035000", "160246.285000", "160247.535000", "160248.785000", "160250.035000", "160251.285000", "160252.535000", "160253.785000", "160255.035000", "160256.285000", "160257.535000", "160258.785000", "160300.035000", "160301.285000", "160302.535000", "160303.785000", "160305.035000", "160306.285000", "160307.535000", "160308.785000", "160310.035000", "160311.285000", "160312.535000", "160313.785000", "160315.035000", "160316.285000", "160317.535000", "160318.785000", "160320.035000", "160321.285000", "160322.535000", "160323.785000", "160325.035000", "160326.285000", "160327.535000", "160328.785000", "160330.035000", "160331.285000", "160332.535000", "160333.785000", "160335.035000", "160336.285000", "160337.535000", "160338.785000", "160340.035000", "160341.285000", "160342.535000", "160343.785000", "160345.035000", "160346.285000", "160347.535000", "160348.785000", "160350.035000", "160351.285000", "160352.535000", "160353.785000", "160355.035000", "160356.285000", "160357.535000", "160358.785000", "160400.035000", "160401.285000", "160402.535000", "160403.785000", "160405.035000", "160406.285000", "160407.535000", "160408.785000", "160410.035000", "160411.285000", "160412.535000", "160413.785000", "160415.035000", "160416.285000", "160417.535000", "160418.785000", "160420.035000", "160421.285000", "160422.535000", "160423.785000", "160425.035000", "160426.285000", "160427.535000", "160428.785000", "160430.035000", "160431.285000", "160432.535000", "160433.785000", "160435.035000", "160436.285000", "160437.535000", "160438.785000", "160440.035000", "160441.285000", "160442.535000", "160443.785000", "160445.035000", "160446.285000", "160447.535000", "160448.785000", "160450.035000", "160451.285000", "160452.535000", "160453.785000", "160455.035000", "160456.285000", "160457.535000", "160458.785000", "160500.035000", "160501.285000", "160502.535000", "160503.785000", "160505.035000", "160506.285000", "160507.535000", "160508.785000", "160510.035000", "160511.285000", "160512.535000", "160513.785000", "160515.035000", "160516.285000", "160517.535000", "160518.785000", "160520.035000", "160521.285000", "160522.535000", "160523.785000", "160525.035000", "160526.285000", "160527.535000", "160528.785000", "160530.035000", "160531.285000", "160532.535000", "160533.785000", "160535.035000", "160536.285000", "160537.535000", "160538.785000", "160540.035000", "160541.285000", "160542.535000", "160543.785000", "160545.035000", "160546.285000", "160547.535000", "160548.785000", "160550.035000", "160551.285000", "160552.535000", "160553.785000", "160555.035000", "160556.285000", "160557.535000", "160558.785000", "160600.035000", "160601.285000", "160602.535000", "160603.785000", "160605.035000", "160606.285000", "160607.535000", "160608.785000", "160610.035000", "160611.285000", "160612.535000", "160613.785000", "160615.035000", "160616.285000", "160617.535000", "160618.785000", "160620.035000", "160621.285000", "160622.535000", "160623.785000", "160625.035000", "160626.285000", "160627.535000", "160628.785000", "160630.035000", "160631.285000", "160632.535000", "160633.785000", "160635.035000", "160636.285000", "160637.535000", "160638.785000", "160640.035000", "160641.285000", "160642.535000", "160643.785000", "160645.035000", "160646.285000", "160647.535000", "160648.785000", "160650.035000", "160651.285000", "160652.535000", "160653.785000", "160655.035000", "160656.285000", "160657.535000", "160658.785000", "160700.035000", "160701.285000", "160702.535000", "160703.785000", "160705.035000", "160706.285000", "160707.535000", "160708.785000", "160710.035000", "160711.285000", "160712.535000", "160713.785000", "160715.035000", "160716.285000", "160717.535000", "160718.785000", "160720.035000", "160721.285000", "160722.535000", "160723.785000", "160725.035000", "160726.285000", "160727.535000", "160728.785000", "160730.035000", "160731.285000", "160732.535000", "160733.785000", "160735.035000", "160736.285000", "160737.535000", "160738.785000", "160740.035000", "160741.285000", "160742.535000", "160743.785000", "160745.035000", "160746.285000", "160747.535000", "160748.785000", "160750.035000", "160751.285000", "160752.535000", "160753.785000", "160755.035000", "160756.285000"],
      "ContentTime": ["160208.842000", "160209.886000", "160211.137000", "160212.407000", "160213.693000", "160214.918000", "160216.133000", "160217.391000", "160218.645000", "160219.918000", "160221.118000", "160222.407000", "160223.655000", "160224.887000", "160226.119000", "160227.401000", "160228.624000", "160229.874000", "160231.136000", "160232.398000", "160233.713000", "160234.904000", "160236.158000", "160237.383000", "160238.654000", "160239.924000", "160241.146000", "160242.404000", "160243.643000", "160244.909000", "160246.170000", "160247.373000", "160248.636000", "160249.886000", "160251.134000", "160252.415000", "160253.660000", "160254.889000", "160256.184000", "160257.380000", "160258.642000", "160259.889000", "160301.166000", "160302.403000", "160303.654000", "160304.893000", "160306.160000", "160307.402000", "160308.692000", "160309.899000", "160311.144000", "160312.415000", "160313.641000", "160314.863000", "160316.145000", "160317.398000", "160318.664000", "160319.945000", "160321.142000", "160322.387000", "160323.652000", "160324.910000", "160326.146000", "160327.355000", "160328.636000", "160329.883000", "160331.145000", "160332.429000", "160333.639000", "160334.910000", "160336.205000", "160337.430000", "160338.644000", "160339.922000", "160341.164000", "160342.417000", "160343.649000", "160344.894000", "160346.147000", "160347.421000", "160348.609000", "160349.940000", "160351.108000", "160352.388000", "160353.645000", "160354.893000", "160356.115000", "160357.415000", "160358.638000", "160359.889000", "160401.165000", "160402.402000", "160403.643000", "160404.895000", "160406.145000", "160407.378000", "160408.630000", "160409.879000", "160411.129000", "160412.409000", "160413.674000", "160414.887000", "160416.213000", "160417.469000", "160418.731000", "160419.904000", "160421.176000", "160422.440000", "160423.631000", "160424.905000", "160426.179000", "160427.401000", "160428.671000", "160429.895000", "160431.216000", "160432.443000", "160433.628000", "160434.897000", "160436.150000", "160437.419000", "160438.681000", "160439.961000", "160441.140000", "160442.412000", "160443.665000", "160444.911000", "160446.147000", "160447.412000", "160448.664000", "160449.901000", "160451.156000", "160452.394000", "160453.687000", "160454.911000", "160456.134000", "160457.422000", "160458.664000", "160459.912000", "160501.176000", "160502.417000", "160503.691000", "160504.894000", "160506.188000", "160507.415000", "160508.647000", "160509.916000", "160511.167000", "160512.418000", "160513.666000", "160514.910000", "160516.136000", "160517.419000", "160518.698000", "160519.916000", "160521.164000", "160522.488000", "160523.658000", "160524.895000", "160526.124000", "160527.427000", "160528.675000", "160529.935000", "160531.111000", "160532.415000", "160533.653000", "160534.881000", "160536.149000", "160537.420000", "160538.658000", "160539.897000", "160541.169000", "160542.367000", "160543.694000", "160544.911000", "160546.166000", "160547.441000", "160548.654000", "160549.857000", "160551.157000", "160552.407000", "160553.645000", "160554.916000", "160556.148000", "160557.359000", "160558.642000", "160559.918000", "160601.153000", "160602.399000", "160603.690000", "160604.894000", "160606.167000", "160607.401000", "160608.648000", "160609.899000", "160611.176000", "160612.386000", "160613.657000", "160614.935000", "160616.192000", "160617.400000", "160618.654000", "160619.909000", "160621.150000", "160622.435000", "160623.650000", "160624.895000", "160626.153000", "160627.427000", "160628.648000", "160629.917000", "160631.107000", "160632.394000", "160633.672000", "160634.926000", "160636.141000", "160637.395000", "160638.650000", "160639.874000", "160641.143000", "160642.414000", "160643.652000", "160644.902000", "160646.155000", "160647.391000", "160648.637000", "160649.939000", "160651.132000", "160652.400000", "160653.659000", "160654.936000", "160656.159000", "160657.414000", "160658.663000", "160659.900000", "160701.167000", "160702.400000", "160703.637000", "160704.909000", "160706.183000", "160707.504000", "160708.650000", "160709.902000", "160711.150000", "160712.400000", "160713.642000", "160714.897000", "160716.179000", "160717.425000", "160718.679000", "160719.920000", "160721.156000", "160722.397000", "160723.646000", "160724.932000", "160726.137000", "160727.400000", "160728.657000", "160729.883000", "160731.103000", "160732.393000", "160733.675000", "160734.925000", "160736.161000", "160737.366000", "160738.662000", "160739.921000", "160741.207000", "160742.405000", "160743.646000", "160744.920000", "160746.183000", "160747.383000", "160748.625000", "160749.894000", "160751.150000", "160752.415000", "160753.644000", "160754.909000", "160756.146000", "160757.437000"],
      "InstanceCreationTime": ["160208.842000", "160209.886000", "160211.137000", "160212.407000", "160213.693000", "160214.918000", "160216.133000", "160217.391000", "160218.645000", "160219.918000", "160221.118000", "160222.407000", "160223.655000", "160224.887000", "160226.119000", "160227.401000", "160228.624000", "160229.874000", "160231.136000", "160232.398000", "160233.713000", "160234.904000", "160236.158000", "160237.383000", "160238.654000", "160239.924000", "160241.146000", "160242.404000", "160243.643000", "160244.909000", "160246.170000", "160247.373000", "160248.636000", "160249.886000", "160251.134000", "160252.415000", "160253.660000", "160254.889000", "160256.184000", "160257.380000", "160258.642000", "160259.889000", "160301.166000", "160302.403000", "160303.654000", "160304.893000", "160306.160000", "160307.402000", "160308.692000", "160309.899000", "160311.144000", "160312.415000", "160313.641000", "160314.863000", "160316.145000", "160317.398000", "160318.664000", "160319.945000", "160321.142000", "160322.387000", "160323.652000", "160324.910000", "160326.146000", "160327.355000", "160328.636000", "160329.883000", "160331.145000", "160332.429000", "160333.639000", "160334.910000", "160336.205000", "160337.430000", "160338.644000", "160339.922000", "160341.164000", "160342.417000", "160343.649000", "160344.894000", "160346.147000", "160347.421000", "160348.609000", "160349.940000", "160351.108000", "160352.388000", "160353.645000", "160354.893000", "160356.115000", "160357.415000", "160358.638000", "160359.889000", "160401.165000", "160402.402000", "160403.643000", "160404.895000", "160406.145000", "160407.378000", "160408.630000", "160409.879000", "160411.129000", "160412.409000", "160413.674000", "160414.887000", "160416.213000", "160417.469000", "160418.731000", "160419.904000", "160421.176000", "160422.440000", "160423.631000", "160424.905000", "160426.179000", "160427.401000", "160428.671000", "160429.895000", "160431.216000", "160432.443000", "160433.628000", "160434.897000", "160436.150000", "160437.419000", "160438.681000", "160439.961000", "160441.140000", "160442.412000", "160443.665000", "160444.911000", "160446.147000", "160447.412000", "160448.664000", "160449.901000", "160451.156000", "160452.394000", "160453.687000", "160454.911000", "160456.134000", "160457.422000", "160458.664000", "160459.912000", "160501.176000", "160502.417000", "160503.691000", "160504.894000", "160506.188000", "160507.415000", "160508.647000", "160509.916000", "160511.167000", "160512.418000", "160513.666000", "160514.910000", "160516.136000", "160517.419000", "160518.698000", "160519.916000", "160521.164000", "160522.488000", "160523.658000", "160524.895000", "160526.124000", "160527.427000", "160528.675000", "160529.935000", "160531.111000", "160532.415000", "160533.653000", "160534.881000", "160536.149000", "160537.420000", "160538.658000", "160539.897000", "160541.169000", "160542.367000", "160543.694000", "160544.911000", "160546.166000", "160547.441000", "160548.654000", "160549.857000", "160551.157000", "160552.407000", "160553.645000", "160554.916000", "160556.148000", "160557.359000", "160558.642000", "160559.918000", "160601.153000", "160602.399000", "160603.690000", "160604.894000", "160606.167000", "160607.401000", "160608.648000", "160609.899000", "160611.176000", "160612.386000", "160613.657000", "160614.935000", "160616.192000", "160617.400000", "160618.654000", "160619.909000", "160621.150000", "160622.435000", "160623.650000", "160624.895000", "160626.153000", "160627.427000", "160628.648000", "160629.917000", "160631.107000", "160632.394000", "160633.672000", "160634.926000", "160636.141000", "160637.395000", "160638.650000", "160639.874000", "160641.143000", "160642.414000", "160643.652000", "160644.902000", "160646.155000", "160647.391000", "160648.637000", "160649.939000", "160651.132000", "160652.400000", "160653.659000", "160654.936000", "160656.159000", "160657.414000", "160658.663000", "160659.900000", "160701.167000", "160702.400000", "160703.637000", "160704.909000", "160706.183000", "160707.504000", "160708.650000", "160709.902000", "160711.150000", "160712.400000", "160713.642000", "160714.897000", "160716.179000", "160717.425000", "160718.679000", "160719.920000", "160721.156000", "160722.397000", "160723.646000", "160724.932000", "160726.137000", "160727.400000", "160728.657000", "160729.883000", "160731.103000", "160732.393000", "160733.675000", "160734.925000", "160736.161000", "160737.366000", "160738.662000", "160739.921000", "160741.207000", "160742.405000", "160743.646000", "160744.920000", "160746.183000", "160747.383000", "160748.625000", "160749.894000", "160751.150000", "160752.415000", "160753.644000", "160754.909000", "160756.146000", "160757.437000"],
      "InstanceNumber": [1, 2, 3, 4, 5, 6, 7, 8, 9, 10, 11, 12, 13, 14, 15, 16, 17, 18, 19, 20, 21, 22, 23, 24, 25, 26, 27, 28, 29, 30, 31, 32, 33, 34, 35, 36, 37, 38, 39, 40, 41, 42, 43, 44, 45, 46, 47, 48, 49, 50, 51, 52, 53, 54, 55, 56, 57, 58, 59, 60, 61, 62, 63, 64, 65, 66, 67, 68, 69, 70, 71, 72, 73, 74, 75, 76, 77, 78, 79, 80, 81, 82, 83, 84, 85, 86, 87, 88, 89, 90, 91, 92, 93, 94, 95, 96, 97, 98, 99, 100, 101, 102, 103, 104, 105, 106, 107, 108, 109, 110, 111, 112, 113, 114, 115, 116, 117, 118, 119, 120, 121, 122, 123, 124, 125, 126, 127, 128, 129, 130, 131, 132, 133, 134, 135, 136, 137, 138, 139, 140, 141, 142, 143, 144, 145, 146, 147, 148, 149, 150, 151, 152, 153, 154, 155, 156, 157, 158, 159, 160, 161, 162, 163, 164, 165, 166, 167, 168, 169, 170, 171, 172, 173, 174, 175, 176, 177, 178, 179, 180, 181, 182, 183, 184, 185, 186, 187, 188, 189, 190, 191, 192, 193, 194, 195, 196, 197, 198, 199, 200, 201, 202, 203, 204, 205, 206, 207, 208, 209, 210, 211, 212, 213, 214, 215, 216, 217, 218, 219, 220, 221, 222, 223, 224, 225, 226, 227, 228, 229, 230, 231, 232, 233, 234, 235, 236, 237, 238, 239, 240, 241, 242, 243, 244, 245, 246, 247, 248, 249, 250, 251, 252, 253, 254, 255, 256, 257, 258, 259, 260, 261, 262, 263, 264, 265, 266, 267, 268, 269, 270, 271, 272, 273, 274, 275, 276, 277, 278, 279, 280],
      "LargestImagePixelValue": [847, 932, 740, 1177, 794, 1072, 808, 887, 838, 876, 825, 912, 839, 961, 879, 850, 839, 904, 862, 1030, 812, 827, 814, 991, 880, 1127, 795, 779, 836, 906, 928, 903, 951, 893, 804, 908, 822, 947, 822, 762, 1085, 774, 797, 743, 809, 894, 986, 842, 1124, 876, 1147, 783, 954, 793, 775, 774, 880, 1009, 773, 886, 766, 905, 745, 861, 841, 1011, 863, 784, 814, 751, 795, 866, 965, 759, 1088, 753, 766, 744, 799, 839, 1051, 1042, 1017, 772, 943, 728, 1001, 814, 946, 813, 834, 911, 843, 882, 922, 824, 1080, 843, 1130, 760, 829, 871, 751, 990, 807, 994, 817, 742, 774, 916, 819, 1001, 733, 1055, 769, 1009, 738, 1090, 758, 785, 892, 749, 815, 885, 773, 1111, 837, 1086, 818, 772, 831, 815, 1006, 760, 912, 732, 802, 922, 780, 845, 751, 894, 752, 920, 731, 864, 740, 803, 800, 852, 825, 810, 824, 824, 1163, 847, 1074, 773, 1114, 732, 737, 776, 928, 946, 1076, 1039, 805, 766, 731, 776, 742, 869, 846, 1051, 830, 1123, 752, 838, 846, 945, 1031, 846, 994, 793, 978, 798, 728, 884, 897, 1076, 980, 1064, 784, 779, 798, 1055, 835, 959, 733, 736, 879, 774, 991, 887, 1114, 728, 840, 853, 960, 901, 801, 787, 747, 774, 734, 906, 921, 910, 1025, 814, 973, 840, 1069, 809, 1041, 780, 970, 1001, 781, 987, 776, 883, 869, 1016, 896, 888, 982, 777, 764, 785, 810, 913, 1085, 963, 895, 847, 878, 789, 786, 1068, 754, 1104, 849, 931, 901, 867, 731, 791, 796, 1134, 915, 1033, 1067, 941, 857, 759, 728, 809, 1036, 1084, 1186, 895, 1090, 882, 1103, 748, 957, 797, 780, 855],
      "WindowCenter": [374.0, 374.0, 372.0, 376.0, 372.0, 375.0, 372.0, 373.0, 373.0, 372.0, 372.0, 374.0, 373.0, 374.0, 374.0, 373.0, 374.0, 375.0, 373.0, 376.0, 373.0, 372.0, 373.0, 374.0, 374.0, 376.0, 372.0, 371.0, 372.0, 374.0, 374.0, 374.0, 375.0, 374.0, 373.0, 373.0, 373.0, 375.0, 373.0, 372.0, 375.0, 371.0, 372.0, 371.0, 373.0, 373.0, 374.0, 373.0, 375.0, 372.0, 375.0, 371.0, 372.0, 371.0, 371.0, 372.0, 373.0, 374.0, 372.0, 373.0, 372.0, 373.0, 371.0, 373.0, 372.0, 374.0, 373.0, 372.0, 372.0, 371.0, 372.0, 373.0, 374.0, 372.0, 376.0, 371.0, 373.0, 373.0, 374.0, 374.0, 376.0, 375.0, 374.0, 372.0, 374.0, 371.0, 374.0, 371.0, 374.0, 372.0, 373.0, 373.0, 371.0, 373.0, 373.0, 372.0, 374.0, 372.0, 375.0, 370.0, 373.0, 373.0, 372.0, 375.0, 372.0, 374.0, 373.0, 372.0, 372.0, 374.0, 372.0, 374.0, 371.0, 374.0, 371.0, 374.0, 370.0, 375.0, 371.0, 372.0, 373.0, 372.0, 374.0, 375.0, 373.0, 375.0, 373.0, 375.0, 372.0, 372.0, 372.0, 373.0, 375.0, 371.0, 373.0, 370.0, 372.0, 374.0, 372.0, 373.0, 372.0, 373.0, 372.0, 373.0, 371.0, 372.0, 372.0, 372.0, 372.0, 372.0, 372.0, 373.0, 372.0, 373.0, 376.0, 373.0, 375.0, 371.0, 375.0, 371.0, 372.0, 373.0, 375.0, 375.0, 375.0, 375.0, 372.0, 370.0, 371.0, 372.0, 372.0, 373.0, 373.0, 375.0, 373.0, 376.0, 372.0, 373.0, 373.0, 374.0, 375.0, 372.0, 374.0, 372.0, 374.0, 372.0, 371.0, 373.0, 374.0, 375.0, 375.0, 375.0, 372.0, 372.0, 372.0, 375.0, 372.0, 374.0, 371.0, 372.0, 374.0, 372.0, 374.0, 373.0, 376.0, 371.0, 372.0, 373.0, 374.0, 373.0, 372.0, 371.0, 371.0, 372.0, 372.0, 372.0, 373.0, 372.0, 374.0, 372.0, 373.0, 372.0, 375.0, 371.0, 374.0, 372.0, 374.0, 375.0, 373.0, 375.0, 373.0, 374.0, 373.0, 374.0, 373.0, 373.0, 374.0, 372.0, 372.0, 372.0, 373.0, 374.0, 375.0, 373.0, 372.0, 373.0, 374.0, 371.0, 372.0, 376.0, 373.0, 376.0, 373.0, 374.0, 373.0, 373.0, 372.0, 371.0, 373.0, 376.0, 374.0, 375.0, 375.0, 374.0, 373.0, 372.0, 373.0, 373.0, 377.0, 376.0, 375.0, 373.0, 374.0, 372.0, 375.0, 370.0, 374.0, 372.0, 372.0, 374.0],
      "WindowWidth": [799.0, 798.0, 795.0, 801.0, 795.0, 798.0, 795.0, 797.0, 796.0, 795.0, 795.0, 798.0, 797.0, 798.0, 797.0, 797.0, 799.0, 799.0, 795.0, 800.0, 796.0, 794.0, 796.0, 797.0, 798.0, 800.0, 795.0, 793.0, 795.0, 798.0, 798.0, 798.0, 799.0, 797.0, 796.0, 796.0, 797.0, 799.0, 795.0, 796.0, 798.0, 792.0, 794.0, 793.0, 796.0, 796.0, 798.0, 796.0, 799.0, 794.0, 798.0, 793.0, 794.0, 793.0, 793.0, 794.0, 797.0, 798.0, 795.0, 797.0, 795.0, 796.0, 793.0, 795.0, 795.0, 798.0, 796.0, 794.0, 795.0, 793.0, 795.0, 796.0, 798.0, 795.0, 800.0, 793.0, 796.0, 796.0, 797.0, 797.0, 800.0, 799.0, 798.0, 794.0, 797.0, 794.0, 798.0, 793.0, 797.0, 795.0, 796.0, 796.0, 793.0, 796.0, 796.0, 794.0, 796.0, 795.0, 799.0, 791.0, 796.0, 797.0, 794.0, 799.0, 795.0, 798.0, 796.0, 795.0, 796.0, 798.0, 795.0, 798.0, 794.0, 797.0, 793.0, 798.0, 791.0, 798.0, 793.0, 794.0, 796.0, 795.0, 797.0, 800.0, 797.0, 799.0, 796.0, 799.0, 795.0, 794.0, 795.0, 796.0, 799.0, 794.0, 797.0, 792.0, 795.0, 798.0, 795.0, 796.0, 794.0, 797.0, 794.0, 797.0, 794.0, 794.0, 795.0, 796.0, 796.0, 794.0, 795.0, 796.0, 794.0, 796.0, 800.0, 796.0, 799.0, 793.0, 798.0, 794.0, 795.0, 797.0, 799.0, 799.0, 798.0, 799.0, 794.0, 791.0, 793.0, 794.0, 795.0, 797.0, 796.0, 799.0, 796.0, 800.0, 795.0, 797.0, 797.0, 798.0, 799.0, 795.0, 798.0, 795.0, 798.0, 795.0, 794.0, 796.0, 798.0, 800.0, 798.0, 799.0, 794.0, 794.0, 795.0, 799.0, 795.0, 797.0, 794.0, 795.0, 798.0, 796.0, 796.0, 796.0, 800.0, 794.0, 795.0, 797.0, 797.0, 796.0, 794.0, 792.0, 794.0, 796.0, 795.0, 795.0, 797.0, 795.0, 797.0, 794.0, 796.0, 795.0, 798.0, 794.0, 797.0, 794.0, 798.0, 799.0, 797.0, 800.0, 796.0, 797.0, 796.0, 798.0, 795.0, 795.0, 797.0, 794.0, 794.0, 796.0, 797.0, 798.0, 798.0, 796.0, 795.0, 796.0, 797.0, 793.0, 795.0, 800.0, 796.0, 800.0, 796.0, 798.0, 797.0, 796.0, 795.0, 794.0, 797.0, 801.0, 798.0, 799.0, 799.0, 797.0, 796.0, 795.0, 797.0, 796.0, 802.0, 800.0, 798.0, 795.0, 797.0, 795.0, 798.0, 792.0, 797.0, 795.0, 794.0, 797.0]
    },
    "slices": {}
  }
}