{
  "AcquisitionMatrixPE": 96,
  "AcquisitionNumber": 1,
  "AcquisitionTime": "11:24:30.652500",
  "BandwidthPerPixelPhaseEncode": 18.939,
  "BaseResolution": 96,
  "BodyPartExamined": "BRAIN",
  "ConsistencyInfo": "N4_VE11C_LATEST_20160120",
  "ConversionSoftware": "dcm2niix",
  "ConversionSoftwareVersion": "v1.0.20170923 (OpenJPEG build) GCC6.3.0",
  "DerivedVendorReportedEchoSpacing": 0.000550011,
  "DeviceSerialNumber": "66112",
  "DwellTime": 2.3e-06,
  "EchoTime": 0.033,
  "EchoTrainLength": 96,
  "EffectiveEchoSpacing": 0.000550011,
  "FlipAngle": 64,
  "ImageType": [
    "ORIGINAL",
    "PRIMARY",
    "FMRI",
    "NONE",
    "ND",
    "NORM",
    "MOSAIC"
],
  "InstitutionAddress": "Maynard_3_Hanover_NH_US_03755",
  "InstitutionName": "Dartmouth_College_-_PBS",
  "MagneticFieldStrength": 3,
  "Manufacturer": "Siemens",
  "ManufacturersModelName": "Prisma",
  "Modality": "MR",
  "MultibandAccelerationFactor": 4,
  "PartialFourier": 1,
  "PercentPhaseFOV": 100,
  "PhaseEncodingDirection": "j-",
  "PhaseEncodingSteps": 96,
  "PhaseResolution": 1,
  "ProcedureStepDescription": "Gobbini_Matteo_1017_famface-angles",
  "ProtocolName": "func_run-02_task-fam1back",
  "PulseSequenceDetails": "%SiemensSeq%_ep2d_bold",
  "ReceiveCoilActiveElements": "HEA;HEP",
  "ReceiveCoilName": "Head_32",
  "ReconMatrixPE": 96,
  "RepetitionTime": 1.25,
  "ScanOptions": "FS",
  "ScanningSequence": "EP",
  "SequenceName": "_epfid2d1_96",
  "SequenceVariant": "SK",
  "SeriesDescription": "func_run-02_task-fam1back",
  "SliceTiming": [0.8775, 0, 0.615, 0.0875, 0.7025, 0.175, 0.79, 0.35, 0.965, 0.44, 1.055, 0.5275, 1.1425, 0.2625, 0.8775, 0, 0.615, 0.0875, 0.7025, 0.175, 0.79, 0.35, 0.965, 0.44, 1.055, 0.5275, 1.1425, 0.2625, 0.8775, 0, 0.615, 0.0875, 0.7025, 0.175, 0.79, 0.35, 0.965, 0.44, 1.055, 0.5275, 1.1425, 0.2625, 0.8775, 0, 0.615, 0.0875, 0.7025, 0.175, 0.79, 0.35, 0.965, 0.44, 1.055, 0.5275, 1.1425, 0.2625],
  "SoftwareVersions": "syngo_MR_E11",
  "StationName": "AWP66112",
  "TaskName": "fam1back",
  "TotalReadoutTime": 0.0522511,
  "dcmmeta_affine": [
    [-2.498357057571411, -0.08942747116088867, 0.01464470662176609, 124.06893920898438],
    [-0.09003416448831558, 2.4954276084899902, -0.12138944119215012, -93.84109497070312],
    [0.010275701992213726, 0.1218370795249939, 2.4970080852508545, -66.8407974243164],
    [0.0, 0.0, 0.0, 1.0]
],
  "dcmmeta_reorient_transform": [
    [0.0, -1.0, 0.0, 95.0],
    [1.0, 0.0, 0.0, 0.0],
    [0.0, 0.0, 1.0, 0.0],
    [0.0, 0.0, 0.0, 1.0]
],
  "dcmmeta_shape": [96, 96, 56, 280],
  "dcmmeta_slice_dim": 2,
  "dcmmeta_version": 0.6,
  "global": {
    "const": {
      "AccessionNumber": "A000464",
      "AcquisitionMatrix": [96, 0, 0, 96],
      "AngioFlag": "N",
      "BitsAllocated": 16,
      "BitsStored": 12,
      "BodyPartExamined": "BRAIN",
      "Columns": 768,
      "EchoNumbers": 1,
      "EchoTime": 33.0,
      "EchoTrainLength": 96,
      "FlipAngle": 64.0,
      "HighBit": 11,
      "ImageOrientationPatient": [0.9993428448202, 0.03601366545023, 0.00411028071051, -0.0357709898351, 0.99817100358569, -0.0487348323785],
      "ImagePositionPatient": [-924.97368611557, -1011.9396386893, -17.7816538484],
      "ImageType": [
        "ORIGINAL",
        "PRIMARY",
        "FMRI",
        "NONE",
        "ND",
        "NORM",
        "MOSAIC"
],
      "ImagedNucleus": "1H",
      "ImagingFrequency": 123.252364,
      "InPlanePhaseEncodingDirection": "COL",
      "MRAcquisitionType": "2D",
      "MagneticFieldStrength": 3.0,
      "Manufacturer": "SIEMENS",
      "ManufacturerModelName": "Prisma",
      "Modality": "MR",
      "NumberOfAverages": 1.0,
      "NumberOfPhaseEncodingSteps": 96,
      "PercentPhaseFieldOfView": 100.0,
      "PercentSampling": 100.0,
      "PerformedProcedureStepStartTime": "110636.792000",
      "PhotometricInterpretation": "MONOCHROME2",
      "PixelBandwidth": 2265.0,
      "PixelRepresentation": 0,
      "PixelSpacing": [2.5, 2.5],
      "PositionReferenceIndicator": "",
      "ProtocolName": "func_run-02_task-fam1back",
      "RepetitionTime": 1250.0,
      "Rows": 768,
      "SAR": 0.05526851944859,
      "SamplesPerPixel": 1,
      "ScanOptions": "FS",
      "ScanningSequence": "EP",
      "SequenceName": "*epfid2d1_96",
      "SequenceVariant": "SK",
      "SeriesDescription": "func_run-02_task-fam1back",
      "SeriesNumber": 15,
      "SeriesTime": "112432.273000",
      "SliceLocation": -61.477502504174,
      "SliceThickness": 2.5,
      "SmallestImagePixelValue": 0,
      "SoftwareVersions": "syngo MR E11",
      "SpacingBetweenSlices": 2.4999999314296,
      "SpecificCharacterSet": "ISO_IR 100",
      "StudyID": "2",
      "StudyTime": "110636.745000",
      "TransmitCoilName": "Body",
      "VariableFlipAngleFlag": "N",
      "WindowCenterWidthExplanation": "Algo1",
      "dBdt": 0.0},
    "slices": {}
  },
  "time": {
    "samples": {
      "AcquisitionNumber": [1, 2, 3, 4, 5, 6, 7, 8, 9, 10, 11, 12, 13, 14, 15, 16, 17, 18, 19, 20, 21, 22, 23, 24, 25, 26, 27, 28, 29, 30, 31, 32, 33, 34, 35, 36, 37, 38, 39, 40, 41, 42, 43, 44, 45, 46, 47, 48, 49, 50, 51, 52, 53, 54, 55, 56, 57, 58, 59, 60, 61, 62, 63, 64, 65, 66, 67, 68, 69, 70, 71, 72, 73, 74, 75, 76, 77, 78, 79, 80, 81, 82, 83, 84, 85, 86, 87, 88, 89, 90, 91, 92, 93, 94, 95, 96, 97, 98, 99, 100, 101, 102, 103, 104, 105, 106, 107, 108, 109, 110, 111, 112, 113, 114, 115, 116, 117, 118, 119, 120, 121, 122, 123, 124, 125, 126, 127, 128, 129, 130, 131, 132, 133, 134, 135, 136, 137, 138, 139, 140, 141, 142, 143, 144, 145, 146, 147, 148, 149, 150, 151, 152, 153, 154, 155, 156, 157, 158, 159, 160, 161, 162, 163, 164, 165, 166, 167, 168, 169, 170, 171, 172, 173, 174, 175, 176, 177, 178, 179, 180, 181, 182, 183, 184, 185, 186, 187, 188, 189, 190, 191, 192, 193, 194, 195, 196, 197, 198, 199, 200, 201, 202, 203, 204, 205, 206, 207, 208, 209, 210, 211, 212, 213, 214, 215, 216, 217, 218, 219, 220, 221, 222, 223, 224, 225, 226, 227, 228, 229, 230, 231, 232, 233, 234, 235, 236, 237, 238, 239, 240, 241, 242, 243, 244, 245, 246, 247, 248, 249, 250, 251, 252, 253, 254, 255, 256, 257, 258, 259, 260, 261, 262, 263, 264, 265, 266, 267, 268, 269, 270, 271, 272, 273, 274, 275, 276, 277, 278, 279, 280],
      "AcquisitionTime": ["112430.652500", "112431.902500", "112433.152500", "112434.402500", "112435.652500", "112436.902500", "112438.152500", "112439.402500", "112440.652500", "112441.902500", "112443.152500", "112444.402500", "112445.652500", "112446.902500", "112448.152500", "112449.402500", "112450.652500", "112451.902500", "112453.152500", "112454.402500", "112455.652500", "112456.902500", "112458.152500", "112459.402500", "112500.652500", "112501.902500", "112503.152500", "112504.402500", "112505.652500", "112506.902500", "112508.152500", "112509.402500", "112510.652500", "112511.902500", "112513.152500", "112514.402500", "112515.652500", "112516.902500", "112518.152500", "112519.402500", "112520.652500", "112521.902500", "112523.152500", "112524.402500", "112525.652500", "112526.902500", "112528.152500", "112529.402500", "112530.652500", "112531.902500", "112533.152500", "112534.402500", "112535.652500", "112536.902500", "112538.152500", "112539.402500", "112540.652500", "112541.902500", "112543.152500", "112544.402500", "112545.652500", "112546.902500", "112548.152500", "112549.402500", "112550.652500", "112551.902500", "112553.152500", "112554.402500", "112555.652500", "112556.902500", "112558.152500", "112559.402500", "112600.652500", "112601.902500", "112603.152500", "112604.402500", "112605.652500", "112606.902500", "112608.152500", "112609.402500", "112610.652500", "112611.902500", "112613.152500", "112614.402500", "112615.652500", "112616.902500", "112618.152500", "112619.402500", "112620.652500", "112621.902500", "112623.152500", "112624.402500", "112625.652500", "112626.902500", "112628.152500", "112629.402500", "112630.652500", "112631.902500", "112633.152500", "112634.402500", "112635.652500", "112636.902500", "112638.152500", "112639.402500", "112640.652500", "112641.902500", "112643.152500", "112644.402500", "112645.652500", "112646.902500", "112648.152500", "112649.402500", "112650.652500", "112651.902500", "112653.152500", "112654.402500", "112655.652500", "112656.902500", "112658.152500", "112659.402500", "112700.652500", "112701.902500", "112703.152500", "112704.402500", "112705.652500", "112706.902500", "112708.152500", "112709.402500", "112710.652500", "112711.902500", "112713.152500", "112714.402500", "112715.652500", "112716.902500", "112718.152500", "112719.402500", "112720.652500", "112721.902500", "112723.152500", "112724.402500", "112725.652500", "112726.902500", "112728.152500", "112729.402500", "112730.652500", "112731.902500", "112733.152500", "112734.402500", "112735.652500", "112736.902500", "112738.152500", "112739.402500", "112740.652500", "112741.902500", "112743.152500", "112744.402500", "112745.652500", "112746.902500", "112748.152500", "112749.402500", "112750.652500", "112751.902500", "112753.152500", "112754.402500", "112755.652500", "112756.902500", "112758.152500", "112759.402500", "112800.652500", "112801.902500", "112803.152500", "112804.402500", "112805.652500", "112806.902500", "112808.152500", "112809.402500", "112810.652500", "112811.902500", "112813.152500", "112814.402500", "112815.652500", "112816.902500", "112818.152500", "112819.402500", "112820.652500", "112821.902500", "112823.152500", "112824.402500", "112825.652500", "112826.902500", "112828.152500", "112829.402500", "112830.652500", "112831.902500", "112833.152500", "112834.402500", "112835.652500", "112836.902500", "112838.152500", "112839.402500", "112840.652500", "112841.902500", "112843.152500", "112844.402500", "112845.652500", "112846.902500", "112848.152500", "112849.402500", "112850.652500", "112851.902500", "112853.152500", "112854.402500", "112855.652500", "112856.902500", "112858.152500", "112859.402500", "112900.652500", "112901.902500", "112903.152500", "112904.402500", "112905.652500", "112906.902500", "112908.152500", "112909.402500", "112910.652500", "112911.902500", "112913.152500", "112914.402500", "112915.652500", "112916.902500", "112918.152500", "112919.402500", "112920.652500", "112921.902500", "112923.152500", "112924.402500", "112925.652500", "112926.902500", "112928.152500", "112929.402500", "112930.652500", "112931.902500", "112933.152500", "112934.402500", "112935.652500", "112936.902500", "112938.152500", "112939.402500", "112940.652500", "112941.902500", "112943.152500", "112944.402500", "112945.652500", "112946.902500", "112948.152500", "112949.402500", "112950.652500", "112951.902500", "112953.152500", "112954.402500", "112955.652500", "112956.902500", "112958.152500", "112959.402500", "113000.652500", "113001.902500", "113003.152500", "113004.402500", "113005.652500", "113006.902500", "113008.152500", "113009.402500", "113010.652500", "113011.902500", "113013.152500", "113014.402500", "113015.652500", "113016.902500", "113018.152500", "113019.402500"],
      "ContentTime": ["112432.277000", "112433.335000", "112434.576000", "112435.840000", "112437.084000", "112438.316000", "112439.576000", "112440.875000", "112442.111000", "112443.324000", "112444.597000", "112445.913000", "112447.069000", "112448.327000", "112449.601000", "112450.832000", "112452.075000", "112453.322000", "112454.584000", "112455.820000", "112457.055000", "112458.323000", "112459.555000", "112500.817000", "112502.076000", "112503.324000", "112504.606000", "112505.820000", "112507.065000", "112508.321000", "112509.564000", "112510.809000", "112512.102000", "112513.325000", "112514.559000", "112515.816000", "112517.055000", "112518.313000", "112519.604000", "112520.824000", "112522.057000", "112523.312000", "112524.546000", "112525.828000", "112527.059000", "112528.313000", "112529.584000", "112530.792000", "112532.094000", "112533.298000", "112534.597000", "112535.808000", "112537.058000", "112538.320000", "112539.577000", "112540.837000", "112542.066000", "112543.307000", "112544.559000", "112545.857000", "112547.059000", "112548.331000", "112549.567000", "112550.825000", "112552.062000", "112553.311000", "112554.575000", "112555.825000", "112557.048000", "112558.354000", "112559.570000", "112600.823000", "112602.125000", "112603.319000", "112604.561000", "112605.818000", "112607.057000", "112608.308000", "112609.551000", "112610.820000", "112612.059000", "112613.296000", "112614.561000", "112615.806000", "112617.065000", "112618.307000", "112619.539000", "112620.778000", "112622.039000", "112623.325000", "112624.580000", "112625.816000", "112627.031000", "112628.309000", "112629.555000", "112630.826000", "112632.070000", "112633.304000", "112634.573000", "112635.803000", "112637.034000", "112638.338000", "112639.594000", "112640.834000", "112642.057000", "112643.311000", "112644.576000", "112645.859000", "112647.075000", "112648.309000", "112649.574000", "112650.808000", "112652.093000", "112653.332000", "112654.598000", "112655.846000", "112657.056000", "112658.309000", "112659.573000", "112700.837000", "112702.077000", "112703.335000", "112704.555000", "112705.853000", "112707.059000", "112708.328000", "112709.597000", "112710.813000", "112712.072000", "112713.322000", "112714.585000", "112715.863000", "112717.065000", "112718.338000", "112719.586000", "112720.852000", "112722.082000", "112723.324000", "112724.572000", "112725.841000", "112727.066000", "112728.322000", "112729.578000", "112730.834000", "112732.060000", "112733.317000", "112734.553000", "112735.806000", "112737.085000", "112738.326000", "112739.562000", "112740.815000", "112742.106000", "112743.334000", "112744.630000", "112745.833000", "112747.097000", "112748.353000", "112749.577000", "112750.797000", "112752.049000", "112753.350000", "112754.589000", "112755.835000", "112757.091000", "112758.333000", "112759.616000", "112800.816000", "112802.102000", "112803.321000", "112804.577000", "112805.911000", "112807.093000", "112808.319000", "112809.592000", "112810.902000", "112812.072000", "112813.351000", "112814.555000", "112815.815000", "112817.052000", "112818.324000", "112819.570000", "112820.818000", "112822.060000", "112823.322000", "112824.560000", "112825.808000", "112827.094000", "112828.356000", "112829.575000", "112830.911000", "112832.084000", "112833.366000", "112834.601000", "112835.834000", "112837.067000", "112838.352000", "112839.586000", "112840.815000", "112842.062000", "112843.331000", "112844.568000", "112845.823000", "112847.068000", "112848.300000", "112849.577000", "112850.864000", "112852.067000", "112853.329000", "112854.567000", "112855.855000", "112857.083000", "112858.338000", "112859.563000", "112900.828000", "112902.076000", "112903.325000", "112904.580000", "112905.811000", "112907.063000", "112908.363000", "112909.600000", "112910.810000", "112912.076000", "112913.341000", "112914.599000", "112915.890000", "112917.065000", "112918.327000", "112919.596000", "112920.813000", "112922.113000", "112923.366000", "112924.601000", "112925.827000", "112927.080000", "112928.330000", "112929.604000", "112930.828000", "112932.134000", "112933.347000", "112934.563000", "112935.830000", "112937.074000", "112938.311000", "112939.592000", "112940.844000", "112942.096000", "112943.322000", "112944.576000", "112945.846000", "112947.092000", "112948.318000", "112949.577000", "112950.843000", "112952.098000", "112953.331000", "112954.604000", "112955.845000", "112957.093000", "112958.351000", "112959.571000", "113000.833000", "113002.100000", "113003.356000", "113004.575000", "113005.837000", "113007.126000", "113008.403000", "113009.583000", "113010.841000", "113012.113000", "113013.331000", "113014.577000", "113015.822000", "113017.070000", "113018.346000", "113019.571000", "113020.877000"],
      "InstanceCreationTime": ["112432.277000", "112433.335000", "112434.576000", "112435.840000", "112437.084000", "112438.316000", "112439.576000", "112440.875000", "112442.111000", "112443.324000", "112444.597000", "112445.913000", "112447.069000", "112448.327000", "112449.601000", "112450.832000", "112452.075000", "112453.322000", "112454.584000", "112455.820000", "112457.055000", "112458.323000", "112459.555000", "112500.817000", "112502.076000", "112503.324000", "112504.606000", "112505.820000", "112507.065000", "112508.321000", "112509.564000", "112510.809000", "112512.102000", "112513.325000", "112514.559000", "112515.816000", "112517.055000", "112518.313000", "112519.604000", "112520.824000", "112522.057000", "112523.312000", "112524.546000", "112525.828000", "112527.059000", "112528.313000", "112529.584000", "112530.792000", "112532.094000", "112533.298000", "112534.597000", "112535.808000", "112537.058000", "112538.320000", "112539.577000", "112540.837000", "112542.066000", "112543.307000", "112544.559000", "112545.857000", "112547.059000", "112548.331000", "112549.567000", "112550.825000", "112552.062000", "112553.311000", "112554.575000", "112555.825000", "112557.048000", "112558.354000", "112559.570000", "112600.823000", "112602.125000", "112603.319000", "112604.561000", "112605.818000", "112607.057000", "112608.308000", "112609.551000", "112610.820000", "112612.059000", "112613.296000", "112614.561000", "112615.806000", "112617.065000", "112618.307000", "112619.539000", "112620.778000", "112622.039000", "112623.325000", "112624.580000", "112625.816000", "112627.031000", "112628.309000", "112629.555000", "112630.826000", "112632.070000", "112633.304000", "112634.573000", "112635.803000", "112637.034000", "112638.338000", "112639.594000", "112640.834000", "112642.057000", "112643.311000", "112644.576000", "112645.859000", "112647.075000", "112648.309000", "112649.574000", "112650.808000", "112652.093000", "112653.332000", "112654.598000", "112655.846000", "112657.056000", "112658.309000", "112659.573000", "112700.837000", "112702.077000", "112703.335000", "112704.555000", "112705.853000", "112707.059000", "112708.328000", "112709.597000", "112710.813000", "112712.072000", "112713.322000", "112714.585000", "112715.863000", "112717.065000", "112718.338000", "112719.586000", "112720.852000", "112722.082000", "112723.324000", "112724.572000", "112725.841000", "112727.066000", "112728.322000", "112729.578000", "112730.834000", "112732.060000", "112733.317000", "112734.553000", "112735.806000", "112737.085000", "112738.326000", "112739.562000", "112740.815000", "112742.106000", "112743.334000", "112744.630000", "112745.833000", "112747.097000", "112748.353000", "112749.577000", "112750.797000", "112752.049000", "112753.350000", "112754.589000", "112755.835000", "112757.091000", "112758.333000", "112759.616000", "112800.816000", "112802.102000", "112803.321000", "112804.577000", "112805.911000", "112807.093000", "112808.319000", "112809.592000", "112810.902000", "112812.072000", "112813.351000", "112814.555000", "112815.815000", "112817.052000", "112818.324000", "112819.570000", "112820.818000", "112822.060000", "112823.322000", "112824.560000", "112825.808000", "112827.094000", "112828.356000", "112829.575000", "112830.911000", "112832.084000", "112833.366000", "112834.601000", "112835.834000", "112837.067000", "112838.352000", "112839.586000", "112840.815000", "112842.062000", "112843.331000", "112844.568000", "112845.823000", "112847.068000", "112848.300000", "112849.577000", "112850.864000", "112852.067000", "112853.329000", "112854.567000", "112855.855000", "112857.083000", "112858.338000", "112859.563000", "112900.828000", "112902.076000", "112903.325000", "112904.580000", "112905.811000", "112907.063000", "112908.363000", "112909.600000", "112910.810000", "112912.076000", "112913.341000", "112914.599000", "112915.890000", "112917.065000", "112918.327000", "112919.596000", "112920.813000", "112922.113000", "112923.366000", "112924.601000", "112925.827000", "112927.080000", "112928.330000", "112929.604000", "112930.828000", "112932.134000", "112933.347000", "112934.563000", "112935.830000", "112937.074000", "112938.311000", "112939.592000", "112940.844000", "112942.096000", "112943.322000", "112944.576000", "112945.846000", "112947.092000", "112948.318000", "112949.577000", "112950.843000", "112952.098000", "112953.331000", "112954.604000", "112955.845000", "112957.093000", "112958.351000", "112959.571000", "113000.833000", "113002.100000", "113003.356000", "113004.575000", "113005.837000", "113007.126000", "113008.403000", "113009.583000", "113010.841000", "113012.113000", "113013.331000", "113014.577000", "113015.822000", "113017.070000", "113018.346000", "113019.571000", "113020.877000"],
      "InstanceNumber": [1, 2, 3, 4, 5, 6, 7, 8, 9, 10, 11, 12, 13, 14, 15, 16, 17, 18, 19, 20, 21, 22, 23, 24, 25, 26, 27, 28, 29, 30, 31, 32, 33, 34, 35, 36, 37, 38, 39, 40, 41, 42, 43, 44, 45, 46, 47, 48, 49, 50, 51, 52, 53, 54, 55, 56, 57, 58, 59, 60, 61, 62, 63, 64, 65, 66, 67, 68, 69, 70, 71, 72, 73, 74, 75, 76, 77, 78, 79, 80, 81, 82, 83, 84, 85, 86, 87, 88, 89, 90, 91, 92, 93, 94, 95, 96, 97, 98, 99, 100, 101, 102, 103, 104, 105, 106, 107, 108, 109, 110, 111, 112, 113, 114, 115, 116, 117, 118, 119, 120, 121, 122, 123, 124, 125, 126, 127, 128, 129, 130, 131, 132, 133, 134, 135, 136, 137, 138, 139, 140, 141, 142, 143, 144, 145, 146, 147, 148, 149, 150, 151, 152, 153, 154, 155, 156, 157, 158, 159, 160, 161, 162, 163, 164, 165, 166, 167, 168, 169, 170, 171, 172, 173, 174, 175, 176, 177, 178, 179, 180, 181, 182, 183, 184, 185, 186, 187, 188, 189, 190, 191, 192, 193, 194, 195, 196, 197, 198, 199, 200, 201, 202, 203, 204, 205, 206, 207, 208, 209, 210, 211, 212, 213, 214, 215, 216, 217, 218, 219, 220, 221, 222, 223, 224, 225, 226, 227, 228, 229, 230, 231, 232, 233, 234, 235, 236, 237, 238, 239, 240, 241, 242, 243, 244, 245, 246, 247, 248, 249, 250, 251, 252, 253, 254, 255, 256, 257, 258, 259, 260, 261, 262, 263, 264, 265, 266, 267, 268, 269, 270, 271, 272, 273, 274, 275, 276, 277, 278, 279, 280],
      "LargestImagePixelValue": [1433, 1073, 794, 1422, 1336, 1130, 1452, 1041, 1452, 1062, 799, 1457, 1056, 1126, 1437, 1126, 864, 887, 1458, 1383, 1386, 1059, 1136, 1366, 929, 1310, 1144, 910, 1280, 1356, 879, 1341, 1306, 877, 1479, 1134, 850, 1471, 905, 1278, 1224, 824, 1491, 1074, 794, 1119, 1370, 994, 1486, 1076, 1268, 1394, 993, 916, 1460, 983, 1340, 1273, 919, 1366, 1123, 922, 1053, 1458, 1017, 1419, 1190, 928, 1443, 850, 1461, 1055, 781, 1454, 1026, 1050, 1434, 895, 1462, 1019, 864, 1452, 950, 1098, 1264, 1274, 1389, 924, 1386, 1065, 841, 1487, 1150, 1168, 1324, 874, 1438, 1066, 826, 1446, 1014, 1236, 1267, 1094, 1426, 932, 985, 1407, 826, 1406, 1018, 973, 1441, 891, 1432, 1120, 1317, 1124, 985, 1432, 1043, 1011, 1082, 1445, 1211, 1188, 1380, 930, 1394, 1092, 866, 1438, 1012, 807, 1445, 1215, 1037, 1131, 1273, 1271, 884, 1451, 925, 1008, 1435, 918, 1390, 1421, 882, 1473, 988, 932, 1443, 1008, 907, 1245, 1049, 1402, 926, 1385, 980, 760, 1490, 1209, 1066, 1315, 901, 1479, 1025, 1197, 1333, 976, 1401, 1028, 1165, 1370, 925, 1406, 1008, 794, 1469, 941, 1201, 1236, 856, 1422, 1026, 827, 1482, 1351, 1095, 1188, 989, 1262, 1097, 1066, 1408, 1011, 1446, 991, 846, 1394, 1290, 949, 1432, 1212, 1198, 1111, 925, 1443, 967, 1430, 1041, 1341, 999, 1194, 1277, 956, 1376, 954, 1384, 1128, 1004, 1342, 803, 1400, 1069, 830, 1471, 1024, 1202, 1398, 1099, 1371, 1038, 1143, 1380, 955, 1413, 1027, 797, 1464, 971, 941, 1387, 918, 1449, 999, 1329, 1174, 1304, 1340, 948, 1370, 1100, 831, 1460, 1174, 884, 1450, 1231, 985, 1230, 1288, 1240, 1106, 1090, 1415, 976, 1256, 1161, 785, 1461, 960, 862, 1418, 1152, 1170, 1107, 1301],
      "WindowCenter": [387.0, 384.0, 381.0, 387.0, 386.0, 385.0, 387.0, 384.0, 386.0, 384.0, 382.0, 387.0, 385.0, 385.0, 387.0, 386.0, 383.0, 384.0, 387.0, 386.0, 385.0, 383.0, 382.0, 384.0, 381.0, 385.0, 384.0, 384.0, 387.0, 387.0, 384.0, 387.0, 387.0, 383.0, 387.0, 385.0, 382.0, 386.0, 382.0, 385.0, 384.0, 382.0, 386.0, 385.0, 383.0, 385.0, 387.0, 385.0, 387.0, 384.0, 385.0, 386.0, 383.0, 383.0, 387.0, 384.0, 386.0, 386.0, 383.0, 386.0, 385.0, 384.0, 386.0, 388.0, 385.0, 387.0, 385.0, 382.0, 385.0, 382.0, 385.0, 383.0, 381.0, 386.0, 384.0, 385.0, 387.0, 383.0, 386.0, 384.0, 383.0, 387.0, 384.0, 386.0, 386.0, 386.0, 386.0, 383.0, 386.0, 384.0, 382.0, 387.0, 386.0, 385.0, 385.0, 382.0, 386.0, 384.0, 383.0, 387.0, 385.0, 386.0, 385.0, 384.0, 386.0, 383.0, 384.0, 386.0, 382.0, 386.0, 384.0, 384.0, 388.0, 384.0, 387.0, 384.0, 386.0, 384.0, 384.0, 386.0, 384.0, 384.0, 385.0, 387.0, 385.0, 385.0, 386.0, 382.0, 386.0, 384.0, 382.0, 386.0, 384.0, 383.0, 386.0, 385.0, 384.0, 385.0, 386.0, 386.0, 382.0, 386.0, 383.0, 384.0, 386.0, 383.0, 386.0, 386.0, 382.0, 385.0, 383.0, 383.0, 386.0, 383.0, 383.0, 385.0, 384.0, 387.0, 384.0, 387.0, 384.0, 383.0, 388.0, 386.0, 385.0, 386.0, 383.0, 386.0, 384.0, 385.0, 386.0, 384.0, 387.0, 384.0, 385.0, 386.0, 383.0, 386.0, 384.0, 383.0, 387.0, 384.0, 385.0, 386.0, 383.0, 387.0, 384.0, 383.0, 387.0, 386.0, 384.0, 385.0, 384.0, 386.0, 386.0, 386.0, 388.0, 385.0, 387.0, 383.0, 382.0, 386.0, 385.0, 382.0, 385.0, 383.0, 383.0, 383.0, 382.0, 387.0, 384.0, 386.0, 384.0, 385.0, 383.0, 385.0, 385.0, 384.0, 387.0, 384.0, 387.0, 384.0, 383.0, 385.0, 381.0, 386.0, 384.0, 383.0, 386.0, 384.0, 385.0, 386.0, 384.0, 386.0, 384.0, 384.0, 386.0, 383.0, 386.0, 384.0, 382.0, 387.0, 384.0, 383.0, 386.0, 384.0, 387.0, 384.0, 387.0, 385.0, 385.0, 386.0, 383.0, 386.0, 385.0, 382.0, 386.0, 385.0, 383.0, 387.0, 385.0, 384.0, 385.0, 385.0, 385.0, 384.0, 384.0, 386.0, 384.0, 385.0, 385.0, 382.0, 386.0, 384.0, 384.0, 388.0, 386.0, 386.0, 386.0, 386.0],
      "WindowWidth": [822.0, 817.0, 811.0, 821.0, 819.0, 817.0, 820.0, 816.0, 820.0, 816.0, 814.0, 821.0, 818.0, 818.0, 820.0, 819.0, 815.0, 816.0, 821.0, 819.0, 817.0, 814.0, 813.0, 815.0, 812.0, 817.0, 816.0, 816.0, 820.0, 821.0, 817.0, 821.0, 821.0, 815.0, 821.0, 817.0, 814.0, 819.0, 814.0, 817.0, 816.0, 813.0, 819.0, 817.0, 815.0, 819.0, 821.0, 817.0, 821.0, 817.0, 817.0, 818.0, 815.0, 815.0, 820.0, 817.0, 819.0, 819.0, 815.0, 819.0, 817.0, 816.0, 819.0, 822.0, 818.0, 820.0, 817.0, 814.0, 818.0, 812.0, 818.0, 815.0, 812.0, 819.0, 817.0, 817.0, 821.0, 815.0, 819.0, 816.0, 815.0, 821.0, 816.0, 819.0, 819.0, 819.0, 819.0, 815.0, 819.0, 816.0, 814.0, 821.0, 819.0, 818.0, 818.0, 813.0, 818.0, 816.0, 814.0, 821.0, 818.0, 819.0, 818.0, 816.0, 819.0, 815.0, 815.0, 819.0, 813.0, 819.0, 817.0, 817.0, 822.0, 817.0, 820.0, 817.0, 818.0, 816.0, 816.0, 819.0, 816.0, 816.0, 818.0, 821.0, 818.0, 817.0, 818.0, 813.0, 818.0, 816.0, 814.0, 820.0, 817.0, 814.0, 819.0, 818.0, 817.0, 817.0, 819.0, 819.0, 814.0, 820.0, 815.0, 815.0, 820.0, 815.0, 818.0, 818.0, 814.0, 818.0, 814.0, 814.0, 818.0, 814.0, 815.0, 818.0, 816.0, 820.0, 816.0, 820.0, 817.0, 815.0, 823.0, 820.0, 818.0, 819.0, 815.0, 819.0, 816.0, 817.0, 818.0, 816.0, 820.0, 816.0, 817.0, 819.0, 815.0, 820.0, 816.0, 814.0, 821.0, 816.0, 818.0, 819.0, 815.0, 820.0, 817.0, 815.0, 821.0, 819.0, 817.0, 817.0, 816.0, 819.0, 819.0, 819.0, 823.0, 819.0, 821.0, 815.0, 813.0, 818.0, 817.0, 814.0, 817.0, 814.0, 814.0, 814.0, 813.0, 820.0, 816.0, 820.0, 816.0, 818.0, 815.0, 817.0, 817.0, 816.0, 820.0, 816.0, 820.0, 817.0, 814.0, 818.0, 812.0, 818.0, 816.0, 814.0, 819.0, 817.0, 818.0, 819.0, 817.0, 819.0, 815.0, 816.0, 818.0, 814.0, 819.0, 815.0, 813.0, 820.0, 816.0, 815.0, 820.0, 816.0, 821.0, 817.0, 820.0, 817.0, 818.0, 818.0, 815.0, 819.0, 817.0, 814.0, 820.0, 817.0, 815.0, 820.0, 818.0, 816.0, 818.0, 818.0, 818.0, 816.0, 816.0, 818.0, 816.0, 818.0, 817.0, 813.0, 819.0, 816.0, 816.0, 822.0, 820.0, 820.0, 819.0, 820.0]
    },
    "slices": {}
  }
}