{
  "AcquisitionMatrixPE": 96,
  "AcquisitionNumber": 1,
  "AcquisitionTime": "11:57:22.902500",
  "BandwidthPerPixelPhaseEncode": 18.939,
  "BaseResolution": 96,
  "BodyPartExamined": "BRAIN",
  "ConsistencyInfo": "N4_VE11C_LATEST_20160120",
  "ConversionSoftware": "dcm2niix",
  "ConversionSoftwareVersion": "v1.0.20170923 (OpenJPEG build) GCC6.3.0",
  "DerivedVendorReportedEchoSpacing": 0.000550011,
  "DeviceSerialNumber": "66112",
  "DwellTime": 2.3e-06,
  "EchoTime": 0.033,
  "EchoTrainLength": 96,
  "EffectiveEchoSpacing": 0.000550011,
  "FlipAngle": 64,
  "ImageType": [
    "ORIGINAL",
    "PRIMARY",
    "FMRI",
    "NONE",
    "ND",
    "NORM",
    "MOSAIC"
],
  "InstitutionAddress": "Maynard_3_Hanover_NH_US_03755",
  "InstitutionName": "Dartmouth_College_-_PBS",
  "MagneticFieldStrength": 3,
  "Manufacturer": "Siemens",
  "ManufacturersModelName": "Prisma",
  "Modality": "MR",
  "MultibandAccelerationFactor": 4,
  "PartialFourier": 1,
  "PercentPhaseFOV": 100,
  "PhaseEncodingDirection": "j-",
  "PhaseEncodingSteps": 96,
  "PhaseResolution": 1,
  "ProcedureStepDescription": "Gobbini_Matteo_1017_famface-angles",
  "ProtocolName": "func_run-07_task-fam1back",
  "PulseSequenceDetails": "%SiemensSeq%_ep2d_bold",
  "ReceiveCoilActiveElements": "HEA;HEP",
  "ReceiveCoilName": "Head_32",
  "ReconMatrixPE": 96,
  "RepetitionTime": 1.25,
  "ScanOptions": "FS",
  "ScanningSequence": "EP",
  "SequenceName": "_epfid2d1_96",
  "SequenceVariant": "SK",
  "SeriesDescription": "func_run-07_task-fam1back",
  "SliceTiming": [0.8775, 0, 0.615, 0.0875, 0.7025, 0.175, 0.79, 0.35, 0.965, 0.4375, 1.0525, 0.525, 1.14, 0.2625, 0.8775, 0, 0.615, 0.0875, 0.7025, 0.175, 0.79, 0.35, 0.965, 0.4375, 1.0525, 0.525, 1.14, 0.2625, 0.8775, 0, 0.615, 0.0875, 0.7025, 0.175, 0.79, 0.35, 0.965, 0.4375, 1.0525, 0.525, 1.14, 0.2625, 0.8775, 0, 0.615, 0.0875, 0.7025, 0.175, 0.79, 0.35, 0.965, 0.4375, 1.0525, 0.525, 1.14, 0.2625],
  "SoftwareVersions": "syngo_MR_E11",
  "StationName": "AWP66112",
  "TaskName": "fam1back",
  "TotalReadoutTime": 0.0522511,
  "dcmmeta_affine": [
    [-2.498357057571411, -0.08942747116088867, 0.01464470662176609, 124.06893920898438],
    [-0.09003416448831558, 2.4954276084899902, -0.12138944119215012, -93.84109497070312],
    [0.010275701992213726, 0.1218370795249939, 2.4970080852508545, -66.8407974243164],
    [0.0, 0.0, 0.0, 1.0]
],
  "dcmmeta_reorient_transform": [
    [0.0, -1.0, 0.0, 95.0],
    [1.0, 0.0, 0.0, 0.0],
    [0.0, 0.0, 1.0, 0.0],
    [0.0, 0.0, 0.0, 1.0]
],
  "dcmmeta_shape": [96, 96, 56, 280],
  "dcmmeta_slice_dim": 2,
  "dcmmeta_version": 0.6,
  "global": {
    "const": {
      "AccessionNumber": "A000464",
      "AcquisitionMatrix": [96, 0, 0, 96],
      "AngioFlag": "N",
      "BitsAllocated": 16,
      "BitsStored": 12,
      "BodyPartExamined": "BRAIN",
      "Columns": 768,
      "EchoNumbers": 1,
      "EchoTime": 33.0,
      "EchoTrainLength": 96,
      "FlipAngle": 64.0,
      "HighBit": 11,
      "ImageOrientationPatient": [0.9993428448202, 0.03601366545023, 0.00411028071051, -0.0357709898351, 0.99817100358569, -0.0487348323785],
      "ImagePositionPatient": [-924.97368611557, -1011.9396386893, -17.7816538484],
      "ImageType": [
        "ORIGINAL",
        "PRIMARY",
        "FMRI",
        "NONE",
        "ND",
        "NORM",
        "MOSAIC"
],
      "ImagedNucleus": "1H",
      "ImagingFrequency": 123.25237,
      "InPlanePhaseEncodingDirection": "COL",
      "MRAcquisitionType": "2D",
      "MagneticFieldStrength": 3.0,
      "Manufacturer": "SIEMENS",
      "ManufacturerModelName": "Prisma",
      "Modality": "MR",
      "NumberOfAverages": 1.0,
      "NumberOfPhaseEncodingSteps": 96,
      "PercentPhaseFieldOfView": 100.0,
      "PercentSampling": 100.0,
      "PerformedProcedureStepStartTime": "110636.792000",
      "PhotometricInterpretation": "MONOCHROME2",
      "PixelBandwidth": 2265.0,
      "PixelRepresentation": 0,
      "PixelSpacing": [2.5, 2.5],
      "PositionReferenceIndicator": "",
      "ProtocolName": "func_run-07_task-fam1back",
      "RepetitionTime": 1250.0,
      "Rows": 768,
      "SAR": 0.05526851944859,
      "SamplesPerPixel": 1,
      "ScanOptions": "FS",
      "ScanningSequence": "EP",
      "SequenceName": "*epfid2d1_96",
      "SequenceVariant": "SK",
      "SeriesDescription": "func_run-07_task-fam1back",
      "SeriesNumber": 50,
      "SeriesTime": "115724.089000",
      "SliceLocation": -61.477502504174,
      "SliceThickness": 2.5,
      "SmallestImagePixelValue": 0,
      "SoftwareVersions": "syngo MR E11",
      "SpacingBetweenSlices": 2.4999999314296,
      "SpecificCharacterSet": "ISO_IR 100",
      "StudyID": "2",
      "StudyTime": "110636.745000",
      "TransmitCoilName": "Body",
      "VariableFlipAngleFlag": "N",
      "WindowCenterWidthExplanation": "Algo1",
      "dBdt": 0.0},
    "slices": {}
  },
  "time": {
    "samples": {
      "AcquisitionNumber": [1, 2, 3, 4, 5, 6, 7, 8, 9, 10, 11, 12, 13, 14, 15, 16, 17, 18, 19, 20, 21, 22, 23, 24, 25, 26, 27, 28, 29, 30, 31, 32, 33, 34, 35, 36, 37, 38, 39, 40, 41, 42, 43, 44, 45, 46, 47, 48, 49, 50, 51, 52, 53, 54, 55, 56, 57, 58, 59, 60, 61, 62, 63, 64, 65, 66, 67, 68, 69, 70, 71, 72, 73, 74, 75, 76, 77, 78, 79, 80, 81, 82, 83, 84, 85, 86, 87, 88, 89, 90, 91, 92, 93, 94, 95, 96, 97, 98, 99, 100, 101, 102, 103, 104, 105, 106, 107, 108, 109, 110, 111, 112, 113, 114, 115, 116, 117, 118, 119, 120, 121, 122, 123, 124, 125, 126, 127, 128, 129, 130, 131, 132, 133, 134, 135, 136, 137, 138, 139, 140, 141, 142, 143, 144, 145, 146, 147, 148, 149, 150, 151, 152, 153, 154, 155, 156, 157, 158, 159, 160, 161, 162, 163, 164, 165, 166, 167, 168, 169, 170, 171, 172, 173, 174, 175, 176, 177, 178, 179, 180, 181, 182, 183, 184, 185, 186, 187, 188, 189, 190, 191, 192, 193, 194, 195, 196, 197, 198, 199, 200, 201, 202, 203, 204, 205, 206, 207, 208, 209, 210, 211, 212, 213, 214, 215, 216, 217, 218, 219, 220, 221, 222, 223, 224, 225, 226, 227, 228, 229, 230, 231, 232, 233, 234, 235, 236, 237, 238, 239, 240, 241, 242, 243, 244, 245, 246, 247, 248, 249, 250, 251, 252, 253, 254, 255, 256, 257, 258, 259, 260, 261, 262, 263, 264, 265, 266, 267, 268, 269, 270, 271, 272, 273, 274, 275, 276, 277, 278, 279, 280],
      "AcquisitionTime": ["115722.902500", "115724.152500", "115725.402500", "115726.652500", "115727.902500", "115729.152500", "115730.402500", "115731.652500", "115732.902500", "115734.152500", "115735.402500", "115736.652500", "115737.902500", "115739.152500", "115740.402500", "115741.652500", "115742.902500", "115744.152500", "115745.402500", "115746.652500", "115747.902500", "115749.152500", "115750.402500", "115751.652500", "115752.902500", "115754.152500", "115755.402500", "115756.652500", "115757.902500", "115759.152500", "115800.402500", "115801.652500", "115802.902500", "115804.152500", "115805.402500", "115806.652500", "115807.902500", "115809.152500", "115810.402500", "115811.652500", "115812.902500", "115814.152500", "115815.402500", "115816.652500", "115817.902500", "115819.152500", "115820.402500", "115821.652500", "115822.902500", "115824.152500", "115825.402500", "115826.652500", "115827.902500", "115829.152500", "115830.402500", "115831.652500", "115832.902500", "115834.152500", "115835.402500", "115836.652500", "115837.902500", "115839.152500", "115840.402500", "115841.652500", "115842.902500", "115844.152500", "115845.402500", "115846.652500", "115847.902500", "115849.152500", "115850.402500", "115851.652500", "115852.902500", "115854.152500", "115855.402500", "115856.652500", "115857.902500", "115859.152500", "115900.402500", "115901.652500", "115902.902500", "115904.152500", "115905.402500", "115906.652500", "115907.902500", "115909.152500", "115910.402500", "115911.652500", "115912.902500", "115914.152500", "115915.402500", "115916.652500", "115917.902500", "115919.152500", "115920.402500", "115921.652500", "115922.902500", "115924.152500", "115925.402500", "115926.652500", "115927.902500", "115929.152500", "115930.402500", "115931.652500", "115932.902500", "115934.152500", "115935.402500", "115936.652500", "115937.902500", "115939.152500", "115940.402500", "115941.652500", "115942.902500", "115944.152500", "115945.402500", "115946.652500", "115947.902500", "115949.152500", "115950.402500", "115951.652500", "115952.902500", "115954.152500", "115955.402500", "115956.652500", "115957.902500", "115959.152500", "120000.402500", "120001.652500", "120002.902500", "120004.152500", "120005.402500", "120006.652500", "120007.902500", "120009.152500", "120010.402500", "120011.652500", "120012.902500", "120014.152500", "120015.402500", "120016.652500", "120017.902500", "120019.152500", "120020.402500", "120021.652500", "120022.902500", "120024.152500", "120025.402500", "120026.652500", "120027.902500", "120029.152500", "120030.402500", "120031.652500", "120032.902500", "120034.152500", "120035.402500", "120036.652500", "120037.902500", "120039.152500", "120040.402500", "120041.652500", "120042.902500", "120044.152500", "120045.402500", "120046.652500", "120047.902500", "120049.152500", "120050.402500", "120051.652500", "120052.902500", "120054.152500", "120055.402500", "120056.652500", "120057.902500", "120059.152500", "120100.402500", "120101.652500", "120102.902500", "120104.152500", "120105.402500", "120106.652500", "120107.902500", "120109.152500", "120110.402500", "120111.652500", "120112.902500", "120114.152500", "120115.402500", "120116.652500", "120117.902500", "120119.152500", "120120.402500", "120121.652500", "120122.902500", "120124.152500", "120125.402500", "120126.652500", "120127.902500", "120129.152500", "120130.402500", "120131.652500", "120132.902500", "120134.152500", "120135.402500", "120136.652500", "120137.902500", "120139.152500", "120140.402500", "120141.652500", "120142.902500", "120144.152500", "120145.402500", "120146.652500", "120147.902500", "120149.152500", "120150.402500", "120151.652500", "120152.902500", "120154.152500", "120155.402500", "120156.652500", "120157.902500", "120159.152500", "120200.402500", "120201.652500", "120202.902500", "120204.152500", "120205.402500", "120206.652500", "120207.902500", "120209.152500", "120210.402500", "120211.652500", "120212.902500", "120214.152500", "120215.402500", "120216.652500", "120217.902500", "120219.152500", "120220.402500", "120221.652500", "120222.902500", "120224.152500", "120225.402500", "120226.652500", "120227.902500", "120229.152500", "120230.402500", "120231.652500", "120232.902500", "120234.152500", "120235.402500", "120236.652500", "120237.902500", "120239.152500", "120240.402500", "120241.652500", "120242.902500", "120244.152500", "120245.402500", "120246.652500", "120247.902500", "120249.152500", "120250.402500", "120251.652500", "120252.902500", "120254.152500", "120255.402500", "120256.652500", "120257.902500", "120259.152500", "120300.402500", "120301.652500", "120302.902500", "120304.152500", "120305.402500", "120306.652500", "120307.902500", "120309.152500", "120310.402500", "120311.652500"],
      "ContentTime": ["115724.093000", "115725.118000", "115726.348000", "115727.614000", "115728.866000", "115730.122000", "115731.353000", "115732.640000", "115733.880000", "115735.146000", "115736.394000", "115737.632000", "115738.865000", "115740.146000", "115741.376000", "115742.625000", "115743.845000", "115745.105000", "115746.345000", "115747.612000", "115748.866000", "115750.093000", "115751.364000", "115752.609000", "115753.860000", "115755.075000", "115756.362000", "115757.640000", "115758.843000", "115800.102000", "115801.331000", "115802.612000", "115803.880000", "115805.132000", "115806.364000", "115807.605000", "115808.858000", "115810.088000", "115811.351000", "115812.628000", "115813.854000", "115815.095000", "115816.337000", "115817.669000", "115818.872000", "115820.108000", "115821.398000", "115822.674000", "115823.860000", "115825.094000", "115826.355000", "115827.625000", "115828.848000", "115830.120000", "115831.376000", "115832.607000", "115833.845000", "115835.117000", "115836.363000", "115837.608000", "115838.848000", "115840.087000", "115841.353000", "115842.591000", "115843.877000", "115845.098000", "115846.369000", "115847.625000", "115848.886000", "115850.103000", "115851.373000", "115852.595000", "115853.878000", "115855.095000", "115856.356000", "115857.619000", "115858.847000", "115900.109000", "115901.384000", "115902.596000", "115903.888000", "115905.100000", "115906.389000", "115907.605000", "115908.849000", "115910.111000", "115911.349000", "115912.647000", "115913.891000", "115915.123000", "115916.363000", "115917.617000", "115918.862000", "115920.093000", "115921.341000", "115922.611000", "115923.849000", "115925.065000", "115926.356000", "115927.603000", "115928.917000", "115930.115000", "115931.386000", "115932.608000", "115933.868000", "115935.113000", "115936.382000", "115937.635000", "115938.871000", "115940.124000", "115941.370000", "115942.632000", "115943.863000", "115945.121000", "115946.357000", "115947.607000", "115948.853000", "115950.122000", "115951.376000", "115952.621000", "115953.877000", "115955.118000", "115956.370000", "115957.619000", "115958.854000", "120000.131000", "120001.388000", "120002.617000", "120003.855000", "120005.123000", "120006.373000", "120007.651000", "120008.861000", "120010.157000", "120011.395000", "120012.618000", "120013.867000", "120015.112000", "120016.360000", "120017.637000", "120018.872000", "120020.117000", "120021.353000", "120022.623000", "120023.893000", "120025.129000", "120026.359000", "120027.610000", "120028.880000", "120030.122000", "120031.378000", "120032.620000", "120033.850000", "120035.117000", "120036.376000", "120037.611000", "120038.858000", "120040.158000", "120041.366000", "120042.617000", "120043.901000", "120045.128000", "120046.348000", "120047.626000", "120048.855000", "120050.118000", "120051.349000", "120052.608000", "120053.882000", "120055.108000", "120056.355000", "120057.610000", "120058.862000", "120100.098000", "120101.346000", "120102.610000", "120103.840000", "120105.077000", "120106.370000", "120107.601000", "120108.868000", "120110.115000", "120111.368000", "120112.642000", "120113.888000", "120115.131000", "120116.353000", "120117.617000", "120118.897000", "120120.123000", "120121.378000", "120122.622000", "120123.844000", "120125.118000", "120127.026000", "120127.624000", "120128.878000", "120130.096000", "120131.387000", "120133.229000", "120133.874000", "120135.100000", "120136.362000", "120137.623000", "120138.894000", "120140.139000", "120141.357000", "120142.616000", "120143.857000", "120145.119000", "120146.373000", "120147.609000", "120148.862000", "120150.120000", "120151.363000", "120152.583000", "120153.854000", "120155.111000", "120156.359000", "120157.631000", "120158.860000", "120200.118000", "120201.358000", "120202.622000", "120203.871000", "120205.136000", "120206.362000", "120207.608000", "120208.868000", "120210.097000", "120211.364000", "120212.629000", "120213.869000", "120215.125000", "120216.385000", "120217.627000", "120218.873000", "120220.205000", "120221.355000", "120222.613000", "120223.888000", "120225.120000", "120226.384000", "120227.617000", "120228.850000", "120230.090000", "120231.355000", "120232.615000", "120233.883000", "120235.114000", "120236.401000", "120237.583000", "120238.867000", "120240.171000", "120241.354000", "120242.605000", "120243.904000", "120245.111000", "120246.376000", "120247.608000", "120248.854000", "120250.113000", "120251.363000", "120252.655000", "120253.851000", "120255.082000", "120256.396000", "120257.610000", "120258.861000", "120300.108000", "120301.395000", "120302.629000", "120303.885000", "120305.097000", "120306.361000", "120307.666000", "120308.881000", "120310.099000", "120311.380000", "120312.686000"],
      "InstanceCreationTime": ["115724.093000", "115725.118000", "115726.348000", "115727.614000", "115728.866000", "115730.122000", "115731.353000", "115732.640000", "115733.880000", "115735.146000", "115736.394000", "115737.632000", "115738.865000", "115740.146000", "115741.376000", "115742.625000", "115743.845000", "115745.105000", "115746.345000", "115747.612000", "115748.866000", "115750.093000", "115751.364000", "115752.609000", "115753.860000", "115755.075000", "115756.362000", "115757.640000", "115758.843000", "115800.102000", "115801.331000", "115802.612000", "115803.880000", "115805.132000", "115806.364000", "115807.605000", "115808.858000", "115810.088000", "115811.351000", "115812.628000", "115813.854000", "115815.095000", "115816.337000", "115817.669000", "115818.872000", "115820.108000", "115821.398000", "115822.674000", "115823.860000", "115825.094000", "115826.355000", "115827.625000", "115828.848000", "115830.120000", "115831.376000", "115832.607000", "115833.845000", "115835.117000", "115836.363000", "115837.608000", "115838.848000", "115840.087000", "115841.353000", "115842.591000", "115843.877000", "115845.098000", "115846.369000", "115847.625000", "115848.886000", "115850.103000", "115851.373000", "115852.595000", "115853.878000", "115855.095000", "115856.356000", "115857.619000", "115858.847000", "115900.109000", "115901.384000", "115902.596000", "115903.888000", "115905.100000", "115906.389000", "115907.605000", "115908.849000", "115910.111000", "115911.349000", "115912.647000", "115913.891000", "115915.123000", "115916.363000", "115917.617000", "115918.862000", "115920.093000", "115921.341000", "115922.611000", "115923.849000", "115925.065000", "115926.356000", "115927.603000", "115928.917000", "115930.115000", "115931.386000", "115932.608000", "115933.868000", "115935.113000", "115936.382000", "115937.635000", "115938.871000", "115940.124000", "115941.370000", "115942.632000", "115943.863000", "115945.121000", "115946.357000", "115947.607000", "115948.853000", "115950.122000", "115951.376000", "115952.621000", "115953.877000", "115955.118000", "115956.370000", "115957.619000", "115958.854000", "120000.131000", "120001.388000", "120002.617000", "120003.855000", "120005.123000", "120006.373000", "120007.651000", "120008.861000", "120010.157000", "120011.395000", "120012.618000", "120013.867000", "120015.112000", "120016.360000", "120017.637000", "120018.872000", "120020.117000", "120021.353000", "120022.623000", "120023.893000", "120025.129000", "120026.359000", "120027.610000", "120028.880000", "120030.122000", "120031.378000", "120032.620000", "120033.850000", "120035.117000", "120036.376000", "120037.611000", "120038.858000", "120040.158000", "120041.366000", "120042.617000", "120043.901000", "120045.128000", "120046.348000", "120047.626000", "120048.855000", "120050.118000", "120051.349000", "120052.608000", "120053.882000", "120055.108000", "120056.355000", "120057.610000", "120058.862000", "120100.098000", "120101.346000", "120102.610000", "120103.840000", "120105.077000", "120106.370000", "120107.601000", "120108.868000", "120110.115000", "120111.368000", "120112.642000", "120113.888000", "120115.131000", "120116.353000", "120117.617000", "120118.897000", "120120.123000", "120121.378000", "120122.622000", "120123.844000", "120125.118000", "120127.026000", "120127.624000", "120128.878000", "120130.096000", "120131.387000", "120133.229000", "120133.874000", "120135.100000", "120136.362000", "120137.623000", "120138.894000", "120140.139000", "120141.357000", "120142.616000", "120143.857000", "120145.119000", "120146.373000", "120147.609000", "120148.862000", "120150.120000", "120151.363000", "120152.583000", "120153.854000", "120155.111000", "120156.359000", "120157.631000", "120158.860000", "120200.118000", "120201.358000", "120202.622000", "120203.871000", "120205.136000", "120206.362000", "120207.608000", "120208.868000", "120210.097000", "120211.364000", "120212.629000", "120213.869000", "120215.125000", "120216.385000", "120217.627000", "120218.873000", "120220.205000", "120221.355000", "120222.613000", "120223.888000", "120225.120000", "120226.384000", "120227.617000", "120228.850000", "120230.090000", "120231.355000", "120232.615000", "120233.883000", "120235.114000", "120236.401000", "120237.583000", "120238.867000", "120240.171000", "120241.354000", "120242.605000", "120243.904000", "120245.111000", "120246.376000", "120247.608000", "120248.854000", "120250.113000", "120251.363000", "120252.655000", "120253.851000", "120255.082000", "120256.396000", "120257.610000", "120258.861000", "120300.108000", "120301.395000", "120302.629000", "120303.885000", "120305.097000", "120306.361000", "120307.666000", "120308.881000", "120310.099000", "120311.380000", "120312.686000"],
      "InstanceNumber": [1, 2, 3, 4, 5, 6, 7, 8, 9, 10, 11, 12, 13, 14, 15, 16, 17, 18, 19, 20, 21, 22, 23, 24, 25, 26, 27, 28, 29, 30, 31, 32, 33, 34, 35, 36, 37, 38, 39, 40, 41, 42, 43, 44, 45, 46, 47, 48, 49, 50, 51, 52, 53, 54, 55, 56, 57, 58, 59, 60, 61, 62, 63, 64, 65, 66, 67, 68, 69, 70, 71, 72, 73, 74, 75, 76, 77, 78, 79, 80, 81, 82, 83, 84, 85, 86, 87, 88, 89, 90, 91, 92, 93, 94, 95, 96, 97, 98, 99, 100, 101, 102, 103, 104, 105, 106, 107, 108, 109, 110, 111, 112, 113, 114, 115, 116, 117, 118, 119, 120, 121, 122, 123, 124, 125, 126, 127, 128, 129, 130, 131, 132, 133, 134, 135, 136, 137, 138, 139, 140, 141, 142, 143, 144, 145, 146, 147, 148, 149, 150, 151, 152, 153, 154, 155, 156, 157, 158, 159, 160, 161, 162, 163, 164, 165, 166, 167, 168, 169, 170, 171, 172, 173, 174, 175, 176, 177, 178, 179, 180, 181, 182, 183, 184, 185, 186, 187, 188, 189, 190, 191, 192, 193, 194, 195, 196, 197, 198, 199, 200, 201, 202, 203, 204, 205, 206, 207, 208, 209, 210, 211, 212, 213, 214, 215, 216, 217, 218, 219, 220, 221, 222, 223, 224, 225, 226, 227, 228, 229, 230, 231, 232, 233, 234, 235, 236, 237, 238, 239, 240, 241, 242, 243, 244, 245, 246, 247, 248, 249, 250, 251, 252, 253, 254, 255, 256, 257, 258, 259, 260, 261, 262, 263, 264, 265, 266, 267, 268, 269, 270, 271, 272, 273, 274, 275, 276, 277, 278, 279, 280],
      "LargestImagePixelValue": [1260, 1426, 963, 938, 977, 890, 1198, 1208, 864, 1448, 949, 984, 1338, 895, 1288, 1116, 871, 1449, 1069, 1458, 979, 820, 786, 1490, 995, 1218, 1276, 957, 1489, 1026, 950, 1455, 885, 1207, 1146, 1259, 1392, 969, 1098, 1271, 967, 1316, 1036, 1212, 1333, 839, 1477, 930, 1391, 941, 785, 1470, 913, 1040, 1152, 1344, 1157, 817, 1470, 1216, 1326, 950, 1263, 1247, 925, 940, 1366, 1236, 813, 1456, 1013, 1080, 1374, 813, 1434, 1154, 1415, 887, 1454, 1124, 1314, 966, 1291, 1023, 1289, 1220, 830, 1456, 979, 1379, 999, 1053, 1389, 1051, 1154, 1322, 1035, 1147, 1272, 948, 1172, 1262, 900, 1009, 1382, 897, 1108, 1180, 912, 1202, 1340, 984, 1193, 1268, 834, 1243, 1053, 856, 1245, 1080, 952, 1365, 929, 1345, 993, 975, 1287, 1161, 1384, 917, 1321, 923, 1022, 1269, 868, 1365, 1003, 1365, 977, 853, 1350, 918, 1339, 1027, 1434, 1106, 965, 1337, 807, 1390, 990, 1377, 1308, 909, 1467, 1013, 898, 1344, 1009, 954, 1320, 931, 903, 1364, 1113, 868, 1366, 1181, 1371, 1047, 1388, 1362, 876, 1359, 961, 1211, 1044, 845, 1393, 1245, 1160, 1051, 1266, 858, 1348, 937, 1338, 874, 1375, 885, 1375, 1030, 1367, 942, 1326, 1059, 1122, 1311, 928, 1363, 930, 1368, 987, 1101, 1252, 1052, 1325, 873, 1383, 1120, 1317, 995, 1366, 1017, 821, 1392, 1003, 847, 1209, 1071, 1301, 1225, 1229, 1164, 867, 1358, 980, 1350, 936, 1381, 1097, 1015, 1213, 1267, 1335, 1011, 928, 1361, 1185, 1019, 1272, 1047, 1355, 945, 1338, 1006, 1113, 1212, 838, 1394, 1080, 1340, 1106, 1381, 1125, 1339, 1050, 957, 1361, 1038, 1301, 973, 1371, 1096, 791, 1383, 1029, 1167, 1061, 1243, 1119, 1029, 1300, 809, 1384, 1025, 1320, 975, 1233, 1091],
      "WindowCenter": [383.0, 383.0, 380.0, 380.0, 380.0, 381.0, 384.0, 384.0, 381.0, 385.0, 382.0, 383.0, 385.0, 382.0, 385.0, 385.0, 383.0, 386.0, 384.0, 386.0, 384.0, 382.0, 382.0, 388.0, 384.0, 385.0, 386.0, 383.0, 386.0, 383.0, 383.0, 386.0, 382.0, 384.0, 383.0, 384.0, 384.0, 382.0, 383.0, 385.0, 383.0, 385.0, 383.0, 384.0, 384.0, 380.0, 385.0, 381.0, 384.0, 381.0, 380.0, 385.0, 383.0, 384.0, 385.0, 386.0, 385.0, 382.0, 386.0, 384.0, 385.0, 383.0, 385.0, 385.0, 383.0, 383.0, 386.0, 384.0, 381.0, 385.0, 383.0, 383.0, 386.0, 382.0, 386.0, 383.0, 385.0, 382.0, 385.0, 383.0, 384.0, 382.0, 384.0, 382.0, 384.0, 384.0, 381.0, 385.0, 381.0, 384.0, 382.0, 382.0, 371.0, 388.0, 386.0, 386.0, 384.0, 385.0, 385.0, 383.0, 385.0, 385.0, 382.0, 384.0, 387.0, 384.0, 387.0, 386.0, 384.0, 385.0, 386.0, 384.0, 385.0, 379.0, 383.0, 385.0, 385.0, 383.0, 386.0, 385.0, 385.0, 386.0, 384.0, 386.0, 384.0, 384.0, 386.0, 385.0, 387.0, 384.0, 386.0, 384.0, 385.0, 386.0, 383.0, 387.0, 384.0, 386.0, 384.0, 383.0, 387.0, 384.0, 387.0, 385.0, 387.0, 385.0, 384.0, 386.0, 382.0, 386.0, 384.0, 387.0, 386.0, 384.0, 387.0, 384.0, 384.0, 386.0, 384.0, 384.0, 386.0, 384.0, 384.0, 387.0, 385.0, 383.0, 386.0, 384.0, 386.0, 384.0, 386.0, 385.0, 382.0, 385.0, 383.0, 385.0, 384.0, 383.0, 387.0, 384.0, 385.0, 383.0, 384.0, 381.0, 385.0, 383.0, 386.0, 382.0, 386.0, 382.0, 386.0, 384.0, 386.0, 384.0, 386.0, 384.0, 385.0, 386.0, 383.0, 386.0, 384.0, 387.0, 384.0, 385.0, 386.0, 384.0, 386.0, 383.0, 386.0, 385.0, 386.0, 384.0, 386.0, 383.0, 383.0, 387.0, 384.0, 384.0, 386.0, 385.0, 386.0, 385.0, 385.0, 384.0, 382.0, 386.0, 383.0, 386.0, 383.0, 386.0, 383.0, 383.0, 384.0, 385.0, 386.0, 384.0, 384.0, 387.0, 385.0, 384.0, 385.0, 383.0, 385.0, 383.0, 386.0, 384.0, 386.0, 386.0, 383.0, 387.0, 385.0, 387.0, 385.0, 386.0, 384.0, 385.0, 383.0, 383.0, 386.0, 383.0, 386.0, 383.0, 386.0, 384.0, 382.0, 386.0, 384.0, 385.0, 384.0, 385.0, 384.0, 383.0, 385.0, 381.0, 386.0, 384.0, 387.0, 384.0, 386.0, 384.0],
      "WindowWidth": [815.0, 814.0, 808.0, 808.0, 809.0, 810.0, 816.0, 815.0, 811.0, 817.0, 813.0, 814.0, 817.0, 813.0, 817.0, 817.0, 815.0, 819.0, 816.0, 819.0, 815.0, 814.0, 814.0, 822.0, 817.0, 819.0, 819.0, 814.0, 818.0, 814.0, 814.0, 818.0, 812.0, 815.0, 814.0, 815.0, 816.0, 813.0, 814.0, 817.0, 814.0, 817.0, 814.0, 815.0, 815.0, 810.0, 816.0, 811.0, 815.0, 811.0, 810.0, 817.0, 814.0, 816.0, 817.0, 819.0, 817.0, 812.0, 819.0, 816.0, 817.0, 815.0, 818.0, 816.0, 814.0, 814.0, 818.0, 816.0, 812.0, 817.0, 814.0, 813.0, 818.0, 813.0, 818.0, 814.0, 817.0, 812.0, 817.0, 814.0, 816.0, 813.0, 816.0, 813.0, 815.0, 815.0, 811.0, 816.0, 811.0, 815.0, 813.0, 812.0, 790.0, 824.0, 819.0, 819.0, 817.0, 818.0, 818.0, 815.0, 817.0, 818.0, 814.0, 817.0, 821.0, 817.0, 821.0, 819.0, 816.0, 818.0, 819.0, 815.0, 817.0, 806.0, 816.0, 818.0, 817.0, 815.0, 820.0, 818.0, 817.0, 819.0, 816.0, 819.0, 817.0, 817.0, 820.0, 818.0, 820.0, 816.0, 819.0, 816.0, 818.0, 819.0, 815.0, 820.0, 817.0, 820.0, 816.0, 815.0, 821.0, 817.0, 821.0, 818.0, 821.0, 817.0, 816.0, 818.0, 813.0, 819.0, 817.0, 820.0, 820.0, 816.0, 821.0, 817.0, 816.0, 820.0, 817.0, 816.0, 820.0, 816.0, 816.0, 821.0, 818.0, 815.0, 819.0, 816.0, 818.0, 816.0, 818.0, 818.0, 813.0, 818.0, 815.0, 817.0, 817.0, 815.0, 821.0, 816.0, 817.0, 815.0, 816.0, 812.0, 817.0, 814.0, 818.0, 813.0, 818.0, 813.0, 818.0, 816.0, 820.0, 816.0, 819.0, 816.0, 817.0, 818.0, 815.0, 820.0, 816.0, 820.0, 816.0, 817.0, 819.0, 817.0, 819.0, 815.0, 820.0, 817.0, 819.0, 815.0, 819.0, 815.0, 814.0, 821.0, 817.0, 817.0, 820.0, 818.0, 819.0, 818.0, 817.0, 816.0, 812.0, 818.0, 814.0, 818.0, 814.0, 818.0, 815.0, 815.0, 816.0, 817.0, 818.0, 815.0, 816.0, 820.0, 818.0, 816.0, 817.0, 814.0, 817.0, 814.0, 819.0, 817.0, 819.0, 820.0, 816.0, 821.0, 819.0, 820.0, 818.0, 818.0, 816.0, 817.0, 815.0, 814.0, 818.0, 815.0, 818.0, 815.0, 818.0, 816.0, 813.0, 820.0, 817.0, 818.0, 816.0, 818.0, 816.0, 814.0, 817.0, 812.0, 819.0, 817.0, 820.0, 816.0, 819.0, 816.0]
    },
    "slices": {}
  }
}