{
  "AcquisitionMatrixPE": 96,
  "AcquisitionNumber": 1,
  "AcquisitionTime": "14:22:58.635000",
  "BandwidthPerPixelPhaseEncode": 18.939,
  "BaseResolution": 96,
  "BodyPartExamined": "BRAIN",
  "ConsistencyInfo": "N4_VE11C_LATEST_20160120",
  "ConversionSoftware": "dcm2niix",
  "ConversionSoftwareVersion": "v1.0.20170923 (OpenJPEG build) GCC6.3.0",
  "DerivedVendorReportedEchoSpacing": 0.000550011,
  "DeviceSerialNumber": "66112",
  "DwellTime": 2.3e-06,
  "EchoTime": 0.033,
  "EchoTrainLength": 96,
  "EffectiveEchoSpacing": 0.000550011,
  "FlipAngle": 64,
  "ImageType": [
    "ORIGINAL",
    "PRIMARY",
    "FMRI",
    "NONE",
    "ND",
    "NORM",
    "MOSAIC"
],
  "InstitutionAddress": "Maynard_3_Hanover_NH_US_03755",
  "InstitutionName": "Dartmouth_College_-_PBS",
  "MagneticFieldStrength": 3,
  "Manufacturer": "Siemens",
  "ManufacturersModelName": "Prisma",
  "Modality": "MR",
  "MultibandAccelerationFactor": 4,
  "PartialFourier": 1,
  "PercentPhaseFOV": 100,
  "PhaseEncodingDirection": "j-",
  "PhaseEncodingSteps": 96,
  "PhaseResolution": 1,
  "ProcedureStepDescription": "Gobbini_Matteo_1017_famface-angles",
  "ProtocolName": "func_run-11_task-str1back",
  "PulseSequenceDetails": "%SiemensSeq%_ep2d_bold",
  "ReceiveCoilActiveElements": "HEA;HEP",
  "ReceiveCoilName": "Head_32",
  "ReconMatrixPE": 96,
  "RepetitionTime": 1.25,
  "ScanOptions": "FS",
  "ScanningSequence": "EP",
  "SequenceName": "_epfid2d1_96",
  "SequenceVariant": "SK",
  "SeriesDescription": "func_run-11_task-str1back",
  "SliceTiming": [0.88, 0, 0.615, 0.09, 0.705, 0.1775, 0.7925, 0.3525, 0.9675, 0.44, 1.055, 0.5275, 1.1425, 0.265, 0.88, 0, 0.615, 0.09, 0.705, 0.1775, 0.7925, 0.3525, 0.9675, 0.44, 1.055, 0.5275, 1.1425, 0.265, 0.88, 0, 0.615, 0.09, 0.705, 0.1775, 0.7925, 0.3525, 0.9675, 0.44, 1.055, 0.5275, 1.1425, 0.265, 0.88, 0, 0.615, 0.09, 0.705, 0.1775, 0.7925, 0.3525, 0.9675, 0.44, 1.055, 0.5275, 1.1425, 0.265],
  "SoftwareVersions": "syngo_MR_E11",
  "StationName": "AWP66112",
  "TaskName": "str1back",
  "TotalReadoutTime": 0.0522511,
  "dcmmeta_affine": [
    [-2.4999608993530273, 0.01396265346556902, 0.0006559203611686826, 120.99462890625],
    [0.013977774418890476, 2.4978954792022705, 0.1016010120511055, -97.42794036865234],
    [8.79202998476103e-05, -0.10160309076309204, 2.497934579849243, -86.63306427001953],
    [0.0, 0.0, 0.0, 1.0]
],
  "dcmmeta_reorient_transform": [
    [0.0, -1.0, 0.0, 95.0],
    [1.0, 0.0, 0.0, 0.0],
    [0.0, 0.0, 1.0, 0.0],
    [0.0, 0.0, 0.0, 1.0]
],
  "dcmmeta_shape": [96, 96, 56, 280],
  "dcmmeta_slice_dim": 2,
  "dcmmeta_version": 0.6,
  "global": {
    "const": {
      "AccessionNumber": "A000640",
      "AcquisitionMatrix": [96, 0, 0, 96],
      "AngioFlag": "N",
      "BitsAllocated": 16,
      "BitsStored": 12,
      "BodyPartExamined": "BRAIN",
      "Columns": 768,
      "EchoNumbers": 1,
      "EchoTime": 33.0,
      "EchoTrainLength": 96,
      "FlipAngle": 64.0,
      "HighBit": 11,
      "ImageOrientationPatient": [0.9999843690042, -0.0055911099511, 3.516812105e-05, 0.00558506134659, 0.99915819421312, 0.04064123554384],
      "ImagePositionPatient": [-966.99940398648, -974.46848391459, -130.45353758176],
      "ImageType": [
        "ORIGINAL",
        "PRIMARY",
        "FMRI",
        "NONE",
        "ND",
        "NORM",
        "MOSAIC"
],
      "ImagedNucleus": "1H",
      "ImagingFrequency": 123.252316,
      "InPlanePhaseEncodingDirection": "COL",
      "MRAcquisitionType": "2D",
      "MagneticFieldStrength": 3.0,
      "Manufacturer": "SIEMENS",
      "ManufacturerModelName": "Prisma",
      "Modality": "MR",
      "NumberOfAverages": 1.0,
      "NumberOfPhaseEncodingSteps": 96,
      "PercentPhaseFieldOfView": 100.0,
      "PercentSampling": 100.0,
      "PerformedProcedureStepStartTime": "125753.859000",
      "PhotometricInterpretation": "MONOCHROME2",
      "PixelBandwidth": 2265.0,
      "PixelRepresentation": 0,
      "PixelSpacing": [2.5, 2.5],
      "PositionReferenceIndicator": "",
      "ProtocolName": "func_run-11_task-str1back",
      "RepetitionTime": 1250.0,
      "Rows": 768,
      "SAR": 0.07222446161671,
      "SamplesPerPixel": 1,
      "ScanOptions": "FS",
      "ScanningSequence": "EP",
      "SequenceName": "*epfid2d1_96",
      "SequenceVariant": "SK",
      "SeriesDescription": "func_run-11_task-str1back",
      "SeriesNumber": 81,
      "SeriesTime": "142300.392000",
      "SliceLocation": -90.489254701413,
      "SliceThickness": 2.5,
      "SmallestImagePixelValue": 0,
      "SoftwareVersions": "syngo MR E11",
      "SpacingBetweenSlices": 2.5000000065041,
      "SpecificCharacterSet": "ISO_IR 100",
      "StudyID": "1",
      "StudyTime": "125753.772000",
      "TransmitCoilName": "Body",
      "VariableFlipAngleFlag": "N",
      "WindowCenterWidthExplanation": "Algo1",
      "dBdt": 0.0},
    "slices": {}
  },
  "time": {
    "samples": {
      "AcquisitionNumber": [1, 2, 3, 4, 5, 6, 7, 8, 9, 10, 11, 12, 13, 14, 15, 16, 17, 18, 19, 20, 21, 22, 23, 24, 25, 26, 27, 28, 29, 30, 31, 32, 33, 34, 35, 36, 37, 38, 39, 40, 41, 42, 43, 44, 45, 46, 47, 48, 49, 50, 51, 52, 53, 54, 55, 56, 57, 58, 59, 60, 61, 62, 63, 64, 65, 66, 67, 68, 69, 70, 71, 72, 73, 74, 75, 76, 77, 78, 79, 80, 81, 82, 83, 84, 85, 86, 87, 88, 89, 90, 91, 92, 93, 94, 95, 96, 97, 98, 99, 100, 101, 102, 103, 104, 105, 106, 107, 108, 109, 110, 111, 112, 113, 114, 115, 116, 117, 118, 119, 120, 121, 122, 123, 124, 125, 126, 127, 128, 129, 130, 131, 132, 133, 134, 135, 136, 137, 138, 139, 140, 141, 142, 143, 144, 145, 146, 147, 148, 149, 150, 151, 152, 153, 154, 155, 156, 157, 158, 159, 160, 161, 162, 163, 164, 165, 166, 167, 168, 169, 170, 171, 172, 173, 174, 175, 176, 177, 178, 179, 180, 181, 182, 183, 184, 185, 186, 187, 188, 189, 190, 191, 192, 193, 194, 195, 196, 197, 198, 199, 200, 201, 202, 203, 204, 205, 206, 207, 208, 209, 210, 211, 212, 213, 214, 215, 216, 217, 218, 219, 220, 221, 222, 223, 224, 225, 226, 227, 228, 229, 230, 231, 232, 233, 234, 235, 236, 237, 238, 239, 240, 241, 242, 243, 244, 245, 246, 247, 248, 249, 250, 251, 252, 253, 254, 255, 256, 257, 258, 259, 260, 261, 262, 263, 264, 265, 266, 267, 268, 269, 270, 271, 272, 273, 274, 275, 276, 277, 278, 279, 280],
      "AcquisitionTime": ["142258.635000", "142259.885000", "142301.135000", "142302.385000", "142303.635000", "142304.885000", "142306.135000", "142307.385000", "142308.635000", "142309.885000", "142311.135000", "142312.385000", "142313.635000", "142314.885000", "142316.135000", "142317.385000", "142318.635000", "142319.885000", "142321.135000", "142322.385000", "142323.635000", "142324.885000", "142326.135000", "142327.385000", "142328.635000", "142329.885000", "142331.135000", "142332.385000", "142333.635000", "142334.885000", "142336.135000", "142337.385000", "142338.635000", "142339.885000", "142341.135000", "142342.385000", "142343.635000", "142344.885000", "142346.135000", "142347.385000", "142348.635000", "142349.885000", "142351.135000", "142352.385000", "142353.635000", "142354.885000", "142356.135000", "142357.385000", "142358.635000", "142359.885000", "142401.135000", "142402.385000", "142403.635000", "142404.885000", "142406.135000", "142407.385000", "142408.635000", "142409.885000", "142411.135000", "142412.385000", "142413.635000", "142414.885000", "142416.135000", "142417.385000", "142418.635000", "142419.885000", "142421.135000", "142422.385000", "142423.635000", "142424.885000", "142426.135000", "142427.385000", "142428.635000", "142429.885000", "142431.135000", "142432.385000", "142433.635000", "142434.885000", "142436.135000", "142437.385000", "142438.635000", "142439.885000", "142441.135000", "142442.385000", "142443.635000", "142444.885000", "142446.135000", "142447.385000", "142448.635000", "142449.885000", "142451.135000", "142452.385000", "142453.635000", "142454.885000", "142456.135000", "142457.385000", "142458.635000", "142459.885000", "142501.135000", "142502.385000", "142503.635000", "142504.885000", "142506.135000", "142507.385000", "142508.635000", "142509.885000", "142511.135000", "142512.385000", "142513.635000", "142514.885000", "142516.135000", "142517.385000", "142518.635000", "142519.885000", "142521.135000", "142522.385000", "142523.635000", "142524.885000", "142526.135000", "142527.385000", "142528.635000", "142529.885000", "142531.135000", "142532.385000", "142533.635000", "142534.885000", "142536.135000", "142537.385000", "142538.635000", "142539.885000", "142541.135000", "142542.385000", "142543.635000", "142544.885000", "142546.135000", "142547.385000", "142548.635000", "142549.885000", "142551.135000", "142552.385000", "142553.635000", "142554.885000", "142556.135000", "142557.385000", "142558.635000", "142559.885000", "142601.135000", "142602.385000", "142603.635000", "142604.885000", "142606.135000", "142607.385000", "142608.635000", "142609.885000", "142611.135000", "142612.385000", "142613.635000", "142614.885000", "142616.135000", "142617.385000", "142618.635000", "142619.885000", "142621.135000", "142622.385000", "142623.635000", "142624.885000", "142626.135000", "142627.385000", "142628.635000", "142629.885000", "142631.135000", "142632.385000", "142633.635000", "142634.885000", "142636.135000", "142637.385000", "142638.635000", "142639.885000", "142641.135000", "142642.385000", "142643.635000", "142644.885000", "142646.135000", "142647.385000", "142648.635000", "142649.885000", "142651.135000", "142652.385000", "142653.635000", "142654.885000", "142656.135000", "142657.385000", "142658.635000", "142659.885000", "142701.135000", "142702.385000", "142703.635000", "142704.885000", "142706.135000", "142707.385000", "142708.635000", "142709.885000", "142711.135000", "142712.385000", "142713.635000", "142714.885000", "142716.135000", "142717.385000", "142718.635000", "142719.885000", "142721.135000", "142722.385000", "142723.635000", "142724.885000", "142726.135000", "142727.385000", "142728.635000", "142729.885000", "142731.135000", "142732.385000", "142733.635000", "142734.885000", "142736.135000", "142737.385000", "142738.635000", "142739.885000", "142741.135000", "142742.385000", "142743.635000", "142744.885000", "142746.135000", "142747.385000", "142748.635000", "142749.885000", "142751.135000", "142752.385000", "142753.635000", "142754.885000", "142756.135000", "142757.385000", "142758.635000", "142759.885000", "142801.135000", "142802.385000", "142803.635000", "142804.885000", "142806.135000", "142807.385000", "142808.635000", "142809.885000", "142811.135000", "142812.385000", "142813.635000", "142814.885000", "142816.135000", "142817.385000", "142818.635000", "142819.885000", "142821.135000", "142822.385000", "142823.635000", "142824.885000", "142826.135000", "142827.385000", "142828.635000", "142829.885000", "142831.135000", "142832.385000", "142833.635000", "142834.885000", "142836.135000", "142837.385000", "142838.635000", "142839.885000", "142841.135000", "142842.385000", "142843.635000", "142844.885000", "142846.135000", "142847.385000"],
      "ContentTime": ["142300.396000", "142301.432000", "142302.677000", "142303.916000", "142305.190000", "142306.432000", "142307.660000", "142308.939000", "142310.162000", "142311.438000", "142312.681000", "142313.931000", "142315.178000", "142316.474000", "142317.680000", "142318.951000", "142320.192000", "142321.440000", "142322.681000", "142323.906000", "142325.165000", "142326.469000", "142327.703000", "142328.968000", "142330.203000", "142331.425000", "142332.699000", "142333.914000", "142335.190000", "142336.439000", "142337.703000", "142338.953000", "142340.223000", "142341.446000", "142342.689000", "142343.916000", "142345.162000", "142346.443000", "142347.706000", "142348.962000", "142350.220000", "142351.447000", "142352.676000", "142353.937000", "142355.161000", "142356.452000", "142357.677000", "142358.928000", "142400.192000", "142401.434000", "142402.704000", "142403.936000", "142405.201000", "142406.446000", "142407.686000", "142408.924000", "142410.169000", "142411.435000", "142412.709000", "142413.922000", "142415.181000", "142416.413000", "142417.651000", "142418.920000", "142420.165000", "142421.465000", "142422.691000", "142423.952000", "142425.212000", "142426.445000", "142427.668000", "142428.945000", "142430.195000", "142431.464000", "142432.703000", "142433.921000", "142435.203000", "142436.442000", "142437.659000", "142438.975000", "142440.249000", "142441.438000", "142442.695000", "142443.916000", "142445.179000", "142446.426000", "142447.657000", "142448.944000", "142450.188000", "142451.427000", "142452.662000", "142453.954000", "142455.185000", "142456.429000", "142457.684000", "142458.929000", "142500.227000", "142501.439000", "142502.710000", "142503.988000", "142505.153000", "142506.452000", "142507.708000", "142508.952000", "142510.136000", "142511.452000", "142512.674000", "142513.947000", "142515.168000", "142516.452000", "142517.677000", "142518.958000", "142520.227000", "142521.527000", "142522.713000", "142523.959000", "142525.190000", "142526.447000", "142527.672000", "142528.934000", "142530.187000", "142531.441000", "142532.680000", "142533.947000", "142535.209000", "142536.432000", "142537.682000", "142538.940000", "142540.146000", "142541.455000", "142542.769000", "142543.952000", "142545.180000", "142546.418000", "142547.710000", "142548.927000", "142550.165000", "142551.431000", "142552.703000", "142553.985000", "142555.209000", "142556.410000", "142557.691000", "142558.925000", "142600.183000", "142601.447000", "142602.734000", "142603.975000", "142605.196000", "142606.473000", "142607.684000", "142609.003000", "142610.244000", "142611.447000", "142612.694000", "142613.951000", "142615.161000", "142616.435000", "142617.677000", "142618.970000", "142620.170000", "142621.433000", "142622.720000", "142623.949000", "142625.168000", "142626.431000", "142627.699000", "142628.926000", "142630.186000", "142631.459000", "142632.685000", "142634.000000", "142635.225000", "142636.437000", "142637.741000", "142638.945000", "142640.194000", "142641.444000", "142642.666000", "142643.982000", "142645.164000", "142646.494000", "142647.696000", "142648.926000", "142650.193000", "142651.430000", "142652.693000", "142653.942000", "142655.162000", "142656.484000", "142657.686000", "142658.978000", "142700.225000", "142701.435000", "142702.671000", "142703.972000", "142705.246000", "142706.434000", "142707.679000", "142708.943000", "142710.248000", "142711.451000", "142712.702000", "142713.954000", "142715.182000", "142716.419000", "142717.680000", "142718.951000", "142720.203000", "142721.455000", "142722.727000", "142723.948000", "142725.195000", "142726.442000", "142727.688000", "142728.912000", "142730.177000", "142731.458000", "142732.694000", "142733.912000", "142735.177000", "142736.440000", "142737.693000", "142738.959000", "142740.206000", "142741.431000", "142742.745000", "142743.955000", "142745.220000", "142746.443000", "142747.668000", "142748.900000", "142750.203000", "142751.450000", "142752.687000", "142753.976000", "142755.163000", "142756.431000", "142757.672000", "142758.934000", "142800.178000", "142801.459000", "142802.695000", "142803.961000", "142805.229000", "142806.449000", "142807.665000", "142808.954000", "142810.197000", "142811.445000", "142812.685000", "142813.951000", "142815.176000", "142816.448000", "142817.734000", "142818.930000", "142820.190000", "142821.463000", "142822.689000", "142823.942000", "142825.276000", "142826.428000", "142827.737000", "142829.025000", "142830.219000", "142831.434000", "142832.700000", "142833.961000", "142835.202000", "142836.434000", "142837.662000", "142838.922000", "142840.207000", "142841.442000", "142842.727000", "142843.938000", "142845.205000", "142846.437000", "142847.683000", "142848.970000"],
      "InstanceCreationTime": ["142300.396000", "142301.432000", "142302.677000", "142303.916000", "142305.190000", "142306.432000", "142307.660000", "142308.939000", "142310.162000", "142311.438000", "142312.681000", "142313.931000", "142315.178000", "142316.474000", "142317.680000", "142318.951000", "142320.192000", "142321.440000", "142322.681000", "142323.906000", "142325.165000", "142326.469000", "142327.703000", "142328.968000", "142330.203000", "142331.425000", "142332.699000", "142333.914000", "142335.190000", "142336.439000", "142337.703000", "142338.953000", "142340.223000", "142341.446000", "142342.689000", "142343.916000", "142345.162000", "142346.443000", "142347.706000", "142348.962000", "142350.220000", "142351.447000", "142352.676000", "142353.937000", "142355.161000", "142356.452000", "142357.677000", "142358.928000", "142400.192000", "142401.434000", "142402.704000", "142403.936000", "142405.201000", "142406.446000", "142407.686000", "142408.924000", "142410.169000", "142411.435000", "142412.709000", "142413.922000", "142415.181000", "142416.413000", "142417.651000", "142418.920000", "142420.165000", "142421.465000", "142422.691000", "142423.952000", "142425.212000", "142426.445000", "142427.668000", "142428.945000", "142430.195000", "142431.464000", "142432.703000", "142433.921000", "142435.203000", "142436.442000", "142437.659000", "142438.975000", "142440.249000", "142441.438000", "142442.695000", "142443.916000", "142445.179000", "142446.426000", "142447.657000", "142448.944000", "142450.188000", "142451.427000", "142452.662000", "142453.954000", "142455.185000", "142456.429000", "142457.684000", "142458.929000", "142500.227000", "142501.439000", "142502.710000", "142503.988000", "142505.153000", "142506.452000", "142507.708000", "142508.952000", "142510.136000", "142511.452000", "142512.674000", "142513.947000", "142515.168000", "142516.452000", "142517.677000", "142518.958000", "142520.227000", "142521.527000", "142522.713000", "142523.959000", "142525.190000", "142526.447000", "142527.672000", "142528.934000", "142530.187000", "142531.441000", "142532.680000", "142533.947000", "142535.209000", "142536.432000", "142537.682000", "142538.940000", "142540.146000", "142541.455000", "142542.769000", "142543.952000", "142545.180000", "142546.418000", "142547.710000", "142548.927000", "142550.165000", "142551.431000", "142552.703000", "142553.985000", "142555.209000", "142556.410000", "142557.691000", "142558.925000", "142600.183000", "142601.447000", "142602.734000", "142603.975000", "142605.196000", "142606.473000", "142607.684000", "142609.003000", "142610.244000", "142611.447000", "142612.694000", "142613.951000", "142615.161000", "142616.435000", "142617.677000", "142618.970000", "142620.170000", "142621.433000", "142622.720000", "142623.949000", "142625.168000", "142626.431000", "142627.699000", "142628.926000", "142630.186000", "142631.459000", "142632.685000", "142634.000000", "142635.225000", "142636.437000", "142637.741000", "142638.945000", "142640.194000", "142641.444000", "142642.666000", "142643.982000", "142645.164000", "142646.494000", "142647.696000", "142648.926000", "142650.193000", "142651.430000", "142652.693000", "142653.942000", "142655.162000", "142656.484000", "142657.686000", "142658.978000", "142700.225000", "142701.435000", "142702.671000", "142703.972000", "142705.246000", "142706.434000", "142707.679000", "142708.943000", "142710.248000", "142711.451000", "142712.702000", "142713.954000", "142715.182000", "142716.419000", "142717.680000", "142718.951000", "142720.203000", "142721.455000", "142722.727000", "142723.948000", "142725.195000", "142726.442000", "142727.688000", "142728.912000", "142730.177000", "142731.458000", "142732.694000", "142733.912000", "142735.177000", "142736.440000", "142737.693000", "142738.959000", "142740.206000", "142741.431000", "142742.745000", "142743.955000", "142745.220000", "142746.443000", "142747.668000", "142748.900000", "142750.203000", "142751.450000", "142752.687000", "142753.976000", "142755.163000", "142756.431000", "142757.672000", "142758.934000", "142800.178000", "142801.459000", "142802.695000", "142803.961000", "142805.229000", "142806.449000", "142807.665000", "142808.954000", "142810.197000", "142811.445000", "142812.685000", "142813.951000", "142815.176000", "142816.448000", "142817.734000", "142818.930000", "142820.190000", "142821.463000", "142822.689000", "142823.942000", "142825.276000", "142826.428000", "142827.737000", "142829.025000", "142830.219000", "142831.434000", "142832.700000", "142833.961000", "142835.202000", "142836.434000", "142837.662000", "142838.922000", "142840.207000", "142841.442000", "142842.727000", "142843.938000", "142845.205000", "142846.437000", "142847.683000", "142848.970000"],
      "InstanceNumber": [1, 2, 3, 4, 5, 6, 7, 8, 9, 10, 11, 12, 13, 14, 15, 16, 17, 18, 19, 20, 21, 22, 23, 24, 25, 26, 27, 28, 29, 30, 31, 32, 33, 34, 35, 36, 37, 38, 39, 40, 41, 42, 43, 44, 45, 46, 47, 48, 49, 50, 51, 52, 53, 54, 55, 56, 57, 58, 59, 60, 61, 62, 63, 64, 65, 66, 67, 68, 69, 70, 71, 72, 73, 74, 75, 76, 77, 78, 79, 80, 81, 82, 83, 84, 85, 86, 87, 88, 89, 90, 91, 92, 93, 94, 95, 96, 97, 98, 99, 100, 101, 102, 103, 104, 105, 106, 107, 108, 109, 110, 111, 112, 113, 114, 115, 116, 117, 118, 119, 120, 121, 122, 123, 124, 125, 126, 127, 128, 129, 130, 131, 132, 133, 134, 135, 136, 137, 138, 139, 140, 141, 142, 143, 144, 145, 146, 147, 148, 149, 150, 151, 152, 153, 154, 155, 156, 157, 158, 159, 160, 161, 162, 163, 164, 165, 166, 167, 168, 169, 170, 171, 172, 173, 174, 175, 176, 177, 178, 179, 180, 181, 182, 183, 184, 185, 186, 187, 188, 189, 190, 191, 192, 193, 194, 195, 196, 197, 198, 199, 200, 201, 202, 203, 204, 205, 206, 207, 208, 209, 210, 211, 212, 213, 214, 215, 216, 217, 218, 219, 220, 221, 222, 223, 224, 225, 226, 227, 228, 229, 230, 231, 232, 233, 234, 235, 236, 237, 238, 239, 240, 241, 242, 243, 244, 245, 246, 247, 248, 249, 250, 251, 252, 253, 254, 255, 256, 257, 258, 259, 260, 261, 262, 263, 264, 265, 266, 267, 268, 269, 270, 271, 272, 273, 274, 275, 276, 277, 278, 279, 280],
      "LargestImagePixelValue": [904, 849, 854, 832, 858, 782, 841, 817, 748, 765, 794, 835, 1077, 999, 846, 812, 872, 787, 763, 756, 886, 1039, 1014, 804, 806, 827, 734, 720, 702, 821, 1154, 1022, 832, 821, 759, 722, 906, 1282, 865, 807, 824, 873, 881, 1049, 856, 818, 780, 727, 964, 973, 798, 773, 722, 1136, 840, 823, 782, 788, 697, 739, 727, 952, 1119, 1038, 888, 826, 819, 762, 732, 902, 1005, 818, 809, 720, 928, 942, 774, 779, 751, 624, 1246, 972, 885, 837, 1025, 794, 986, 878, 810, 826, 971, 824, 785, 726, 955, 1191, 893, 804, 760, 819, 751, 763, 699, 928, 904, 1056, 856, 831, 776, 811, 807, 793, 723, 750, 707, 713, 833, 1000, 1044, 824, 791, 818, 793, 702, 771, 798, 1044, 1110, 1134, 832, 783, 788, 744, 832, 871, 1016, 969, 829, 773, 830, 696, 728, 654, 807, 1001, 1296, 804, 824, 677, 774, 894, 1157, 922, 858, 766, 825, 823, 845, 783, 821, 799, 787, 737, 704, 697, 792, 1207, 846, 828, 791, 832, 720, 1001, 985, 1023, 769, 802, 729, 671, 753, 1011, 1017, 834, 793, 814, 741, 745, 657, 676, 716, 815, 1069, 1265, 903, 818, 714, 588, 967, 1026, 829, 792, 939, 1155, 764, 808, 621, 766, 1001, 1145, 805, 823, 801, 811, 689, 779, 632, 734, 718, 804, 751, 857, 901, 1108, 987, 836, 834, 816, 837, 788, 838, 738, 781, 700, 893, 1076, 1284, 939, 809, 794, 766, 665, 1151, 1156, 817, 811, 710, 879, 1184, 812, 822, 753, 724, 715, 673, 1314, 1039, 846, 866, 892, 913, 794, 834, 795, 736, 680, 810, 849, 979, 1009, 1105, 938, 823, 832, 836, 831, 834, 829, 832, 833, 821],
      "WindowCenter": [301.0, 299.0, 300.0, 299.0, 299.0, 298.0, 299.0, 300.0, 297.0, 298.0, 298.0, 299.0, 302.0, 301.0, 300.0, 300.0, 300.0, 298.0, 298.0, 298.0, 300.0, 301.0, 301.0, 298.0, 298.0, 299.0, 299.0, 298.0, 298.0, 299.0, 302.0, 301.0, 299.0, 299.0, 298.0, 298.0, 300.0, 303.0, 299.0, 298.0, 298.0, 298.0, 298.0, 300.0, 299.0, 298.0, 298.0, 297.0, 300.0, 300.0, 297.0, 298.0, 297.0, 301.0, 299.0, 299.0, 299.0, 298.0, 297.0, 298.0, 297.0, 300.0, 301.0, 301.0, 299.0, 299.0, 298.0, 298.0, 297.0, 299.0, 299.0, 298.0, 297.0, 297.0, 300.0, 299.0, 298.0, 298.0, 298.0, 296.0, 302.0, 300.0, 299.0, 298.0, 299.0, 298.0, 299.0, 298.0, 298.0, 298.0, 300.0, 298.0, 298.0, 297.0, 300.0, 301.0, 299.0, 297.0, 298.0, 298.0, 298.0, 297.0, 296.0, 300.0, 300.0, 301.0, 300.0, 299.0, 298.0, 298.0, 298.0, 298.0, 297.0, 298.0, 297.0, 297.0, 299.0, 300.0, 301.0, 299.0, 298.0, 298.0, 298.0, 297.0, 299.0, 298.0, 300.0, 301.0, 301.0, 298.0, 297.0, 297.0, 298.0, 298.0, 298.0, 299.0, 299.0, 298.0, 298.0, 298.0, 297.0, 297.0, 297.0, 299.0, 300.0, 302.0, 299.0, 299.0, 297.0, 298.0, 300.0, 301.0, 300.0, 299.0, 298.0, 298.0, 299.0, 298.0, 298.0, 298.0, 297.0, 298.0, 297.0, 297.0, 297.0, 299.0, 301.0, 299.0, 298.0, 298.0, 298.0, 296.0, 299.0, 299.0, 299.0, 297.0, 298.0, 296.0, 296.0, 298.0, 301.0, 301.0, 299.0, 298.0, 299.0, 297.0, 297.0, 296.0, 297.0, 297.0, 299.0, 301.0, 302.0, 299.0, 298.0, 297.0, 294.0, 300.0, 300.0, 299.0, 298.0, 299.0, 301.0, 297.0, 298.0, 295.0, 297.0, 300.0, 302.0, 298.0, 298.0, 298.0, 298.0, 297.0, 298.0, 295.0, 297.0, 297.0, 298.0, 297.0, 298.0, 298.0, 300.0, 299.0, 298.0, 298.0, 298.0, 299.0, 299.0, 299.0, 299.0, 298.0, 298.0, 300.0, 301.0, 301.0, 299.0, 298.0, 298.0, 298.0, 296.0, 302.0, 301.0, 298.0, 298.0, 297.0, 299.0, 301.0, 298.0, 298.0, 298.0, 297.0, 297.0, 297.0, 302.0, 300.0, 298.0, 299.0, 300.0, 300.0, 298.0, 298.0, 298.0, 297.0, 297.0, 298.0, 298.0, 300.0, 300.0, 301.0, 300.0, 298.0, 298.0, 298.0, 299.0, 299.0, 298.0, 299.0, 298.0, 299.0],
      "WindowWidth": [655.0, 652.0, 652.0, 651.0, 651.0, 650.0, 651.0, 652.0, 648.0, 649.0, 649.0, 650.0, 654.0, 653.0, 652.0, 652.0, 652.0, 650.0, 649.0, 649.0, 652.0, 653.0, 653.0, 649.0, 650.0, 651.0, 650.0, 649.0, 650.0, 651.0, 655.0, 654.0, 651.0, 651.0, 650.0, 649.0, 653.0, 656.0, 650.0, 650.0, 650.0, 648.0, 649.0, 652.0, 651.0, 650.0, 650.0, 648.0, 651.0, 651.0, 647.0, 649.0, 648.0, 653.0, 650.0, 651.0, 650.0, 650.0, 649.0, 649.0, 649.0, 652.0, 653.0, 653.0, 650.0, 650.0, 650.0, 649.0, 648.0, 650.0, 651.0, 649.0, 647.0, 648.0, 651.0, 650.0, 649.0, 650.0, 649.0, 647.0, 654.0, 653.0, 650.0, 649.0, 651.0, 648.0, 650.0, 649.0, 649.0, 648.0, 651.0, 649.0, 649.0, 647.0, 651.0, 653.0, 650.0, 647.0, 649.0, 648.0, 649.0, 648.0, 647.0, 651.0, 652.0, 653.0, 652.0, 650.0, 649.0, 650.0, 650.0, 650.0, 648.0, 649.0, 649.0, 648.0, 651.0, 651.0, 653.0, 651.0, 650.0, 649.0, 650.0, 648.0, 650.0, 649.0, 652.0, 653.0, 653.0, 649.0, 648.0, 648.0, 649.0, 648.0, 649.0, 651.0, 650.0, 650.0, 649.0, 650.0, 649.0, 648.0, 648.0, 650.0, 652.0, 655.0, 650.0, 650.0, 648.0, 649.0, 651.0, 653.0, 652.0, 651.0, 649.0, 650.0, 650.0, 649.0, 649.0, 649.0, 647.0, 649.0, 648.0, 649.0, 647.0, 650.0, 653.0, 651.0, 649.0, 649.0, 648.0, 647.0, 651.0, 649.0, 651.0, 647.0, 648.0, 647.0, 646.0, 649.0, 653.0, 653.0, 651.0, 650.0, 651.0, 648.0, 647.0, 647.0, 648.0, 648.0, 651.0, 653.0, 655.0, 650.0, 648.0, 648.0, 644.0, 652.0, 652.0, 651.0, 649.0, 650.0, 653.0, 648.0, 649.0, 646.0, 648.0, 651.0, 654.0, 650.0, 648.0, 648.0, 650.0, 647.0, 649.0, 645.0, 648.0, 648.0, 650.0, 648.0, 649.0, 649.0, 652.0, 651.0, 650.0, 649.0, 648.0, 651.0, 650.0, 651.0, 650.0, 649.0, 650.0, 653.0, 653.0, 654.0, 650.0, 649.0, 649.0, 649.0, 646.0, 654.0, 653.0, 650.0, 649.0, 648.0, 649.0, 654.0, 650.0, 650.0, 649.0, 648.0, 648.0, 648.0, 655.0, 652.0, 650.0, 651.0, 651.0, 652.0, 650.0, 649.0, 650.0, 648.0, 647.0, 650.0, 650.0, 651.0, 652.0, 653.0, 651.0, 649.0, 649.0, 650.0, 651.0, 651.0, 650.0, 651.0, 650.0, 650.0]
    },
    "slices": {}
  }
}