{
  "AcquisitionMatrixPE": 96,
  "AcquisitionNumber": 1,
  "AcquisitionTime": "13:43:8.925000",
  "BandwidthPerPixelPhaseEncode": 18.939,
  "BaseResolution": 96,
  "BodyPartExamined": "BRAIN",
  "ConsistencyInfo": "N4_VE11C_LATEST_20160120",
  "ConversionSoftware": "dcm2niix",
  "ConversionSoftwareVersion": "v1.0.20170923 (OpenJPEG build) GCC6.3.0",
  "DerivedVendorReportedEchoSpacing": 0.000550011,
  "DeviceSerialNumber": "66112",
  "DwellTime": 2.3e-06,
  "EchoTime": 0.033,
  "EchoTrainLength": 96,
  "EffectiveEchoSpacing": 0.000550011,
  "FlipAngle": 64,
  "ImageType": [
    "ORIGINAL",
    "PRIMARY",
    "FMRI",
    "NONE",
    "ND",
    "NORM",
    "MOSAIC"
],
  "InstitutionAddress": "Maynard_3_Hanover_NH_US_03755",
  "InstitutionName": "Dartmouth_College_-_PBS",
  "MagneticFieldStrength": 3,
  "Manufacturer": "Siemens",
  "ManufacturersModelName": "Prisma",
  "Modality": "MR",
  "MultibandAccelerationFactor": 4,
  "PartialFourier": 1,
  "PercentPhaseFOV": 100,
  "PhaseEncodingDirection": "j-",
  "PhaseEncodingSteps": 96,
  "PhaseResolution": 1,
  "ProcedureStepDescription": "Gobbini_Matteo_1017_famface-angles",
  "ProtocolName": "func_run-05_task-fam1back",
  "PulseSequenceDetails": "%SiemensSeq%_ep2d_bold",
  "ReceiveCoilActiveElements": "HEA;HEP",
  "ReceiveCoilName": "Head_32",
  "ReconMatrixPE": 96,
  "RepetitionTime": 1.25,
  "ScanOptions": "FS",
  "ScanningSequence": "EP",
  "SequenceName": "_epfid2d1_96",
  "SequenceVariant": "SK",
  "SeriesDescription": "func_run-05_task-fam1back",
  "SliceTiming": [0.8775, 0, 0.615, 0.0875, 0.7025, 0.175, 0.79, 0.3525, 0.9675, 0.44, 1.055, 0.5275, 1.1425, 0.2625, 0.8775, 0, 0.615, 0.0875, 0.7025, 0.175, 0.79, 0.3525, 0.9675, 0.44, 1.055, 0.5275, 1.1425, 0.2625, 0.8775, 0, 0.615, 0.0875, 0.7025, 0.175, 0.79, 0.3525, 0.9675, 0.44, 1.055, 0.5275, 1.1425, 0.2625, 0.8775, 0, 0.615, 0.0875, 0.7025, 0.175, 0.79, 0.3525, 0.9675, 0.44, 1.055, 0.5275, 1.1425, 0.2625],
  "SoftwareVersions": "syngo_MR_E11",
  "StationName": "AWP66112",
  "TaskName": "fam1back",
  "TotalReadoutTime": 0.0522511,
  "dcmmeta_affine": [
    [-2.4999608993530273, 0.01396265346556902, 0.0006559203611686826, 120.99462890625],
    [0.013977774418890476, 2.4978954792022705, 0.1016010120511055, -97.42794036865234],
    [8.79202998476103e-05, -0.10160309076309204, 2.497934579849243, -86.63306427001953],
    [0.0, 0.0, 0.0, 1.0]
],
  "dcmmeta_reorient_transform": [
    [0.0, -1.0, 0.0, 95.0],
    [1.0, 0.0, 0.0, 0.0],
    [0.0, 0.0, 1.0, 0.0],
    [0.0, 0.0, 0.0, 1.0]
],
  "dcmmeta_shape": [96, 96, 56, 280],
  "dcmmeta_slice_dim": 2,
  "dcmmeta_version": 0.6,
  "global": {
    "const": {
      "AccessionNumber": "A000640",
      "AcquisitionMatrix": [96, 0, 0, 96],
      "AngioFlag": "N",
      "BitsAllocated": 16,
      "BitsStored": 12,
      "BodyPartExamined": "BRAIN",
      "Columns": 768,
      "EchoNumbers": 1,
      "EchoTime": 33.0,
      "EchoTrainLength": 96,
      "FlipAngle": 64.0,
      "HighBit": 11,
      "ImageOrientationPatient": [0.9999843690042, -0.0055911099511, 3.516812105e-05, 0.00558506134659, 0.99915819421312, 0.04064123554384],
      "ImagePositionPatient": [-966.99940398648, -974.46848391459, -130.45353758176],
      "ImageType": [
        "ORIGINAL",
        "PRIMARY",
        "FMRI",
        "NONE",
        "ND",
        "NORM",
        "MOSAIC"
],
      "ImagedNucleus": "1H",
      "ImagingFrequency": 123.252309,
      "InPlanePhaseEncodingDirection": "COL",
      "MRAcquisitionType": "2D",
      "MagneticFieldStrength": 3.0,
      "Manufacturer": "SIEMENS",
      "ManufacturerModelName": "Prisma",
      "Modality": "MR",
      "NumberOfAverages": 1.0,
      "NumberOfPhaseEncodingSteps": 96,
      "PercentPhaseFieldOfView": 100.0,
      "PercentSampling": 100.0,
      "PerformedProcedureStepStartTime": "125753.859000",
      "PhotometricInterpretation": "MONOCHROME2",
      "PixelBandwidth": 2265.0,
      "PixelRepresentation": 0,
      "PixelSpacing": [2.5, 2.5],
      "PositionReferenceIndicator": "",
      "ProtocolName": "func_run-05_task-fam1back",
      "RepetitionTime": 1250.0,
      "Rows": 768,
      "SAR": 0.07222446161671,
      "SamplesPerPixel": 1,
      "ScanOptions": "FS",
      "ScanningSequence": "EP",
      "SequenceName": "*epfid2d1_96",
      "SequenceVariant": "SK",
      "SeriesDescription": "func_run-05_task-fam1back",
      "SeriesNumber": 39,
      "SeriesTime": "134310.578000",
      "SliceLocation": -90.489254701413,
      "SliceThickness": 2.5,
      "SmallestImagePixelValue": 0,
      "SoftwareVersions": "syngo MR E11",
      "SpacingBetweenSlices": 2.5000000065041,
      "SpecificCharacterSet": "ISO_IR 100",
      "StudyID": "1",
      "StudyTime": "125753.772000",
      "TransmitCoilName": "Body",
      "VariableFlipAngleFlag": "N",
      "WindowCenterWidthExplanation": "Algo1",
      "dBdt": 0.0},
    "slices": {}
  },
  "time": {
    "samples": {
      "AcquisitionNumber": [1, 2, 3, 4, 5, 6, 7, 8, 9, 10, 11, 12, 13, 14, 15, 16, 17, 18, 19, 20, 21, 22, 23, 24, 25, 26, 27, 28, 29, 30, 31, 32, 33, 34, 35, 36, 37, 38, 39, 40, 41, 42, 43, 44, 45, 46, 47, 48, 49, 50, 51, 52, 53, 54, 55, 56, 57, 58, 59, 60, 61, 62, 63, 64, 65, 66, 67, 68, 69, 70, 71, 72, 73, 74, 75, 76, 77, 78, 79, 80, 81, 82, 83, 84, 85, 86, 87, 88, 89, 90, 91, 92, 93, 94, 95, 96, 97, 98, 99, 100, 101, 102, 103, 104, 105, 106, 107, 108, 109, 110, 111, 112, 113, 114, 115, 116, 117, 118, 119, 120, 121, 122, 123, 124, 125, 126, 127, 128, 129, 130, 131, 132, 133, 134, 135, 136, 137, 138, 139, 140, 141, 142, 143, 144, 145, 146, 147, 148, 149, 150, 151, 152, 153, 154, 155, 156, 157, 158, 159, 160, 161, 162, 163, 164, 165, 166, 167, 168, 169, 170, 171, 172, 173, 174, 175, 176, 177, 178, 179, 180, 181, 182, 183, 184, 185, 186, 187, 188, 189, 190, 191, 192, 193, 194, 195, 196, 197, 198, 199, 200, 201, 202, 203, 204, 205, 206, 207, 208, 209, 210, 211, 212, 213, 214, 215, 216, 217, 218, 219, 220, 221, 222, 223, 224, 225, 226, 227, 228, 229, 230, 231, 232, 233, 234, 235, 236, 237, 238, 239, 240, 241, 242, 243, 244, 245, 246, 247, 248, 249, 250, 251, 252, 253, 254, 255, 256, 257, 258, 259, 260, 261, 262, 263, 264, 265, 266, 267, 268, 269, 270, 271, 272, 273, 274, 275, 276, 277, 278, 279, 280],
      "AcquisitionTime": ["134308.925000", "134310.175000", "134311.425000", "134312.675000", "134313.925000", "134315.175000", "134316.425000", "134317.675000", "134318.925000", "134320.175000", "134321.425000", "134322.675000", "134323.925000", "134325.175000", "134326.425000", "134327.675000", "134328.925000", "134330.175000", "134331.425000", "134332.675000", "134333.925000", "134335.175000", "134336.425000", "134337.675000", "134338.925000", "134340.175000", "134341.425000", "134342.675000", "134343.925000", "134345.175000", "134346.425000", "134347.675000", "134348.925000", "134350.175000", "134351.425000", "134352.675000", "134353.925000", "134355.175000", "134356.425000", "134357.675000", "134358.925000", "134400.175000", "134401.425000", "134402.675000", "134403.925000", "134405.175000", "134406.425000", "134407.675000", "134408.925000", "134410.175000", "134411.425000", "134412.675000", "134413.925000", "134415.175000", "134416.425000", "134417.675000", "134418.925000", "134420.175000", "134421.425000", "134422.675000", "134423.925000", "134425.175000", "134426.425000", "134427.675000", "134428.925000", "134430.175000", "134431.425000", "134432.675000", "134433.925000", "134435.175000", "134436.425000", "134437.675000", "134438.925000", "134440.175000", "134441.425000", "134442.675000", "134443.925000", "134445.175000", "134446.425000", "134447.675000", "134448.925000", "134450.175000", "134451.425000", "134452.675000", "134453.925000", "134455.175000", "134456.425000", "134457.675000", "134458.925000", "134500.175000", "134501.425000", "134502.675000", "134503.925000", "134505.175000", "134506.425000", "134507.675000", "134508.925000", "134510.175000", "134511.425000", "134512.675000", "134513.925000", "134515.175000", "134516.425000", "134517.675000", "134518.925000", "134520.175000", "134521.425000", "134522.675000", "134523.925000", "134525.175000", "134526.425000", "134527.675000", "134528.925000", "134530.175000", "134531.425000", "134532.675000", "134533.925000", "134535.175000", "134536.425000", "134537.675000", "134538.925000", "134540.175000", "134541.425000", "134542.675000", "134543.925000", "134545.175000", "134546.425000", "134547.675000", "134548.925000", "134550.175000", "134551.425000", "134552.675000", "134553.925000", "134555.175000", "134556.425000", "134557.675000", "134558.925000", "134600.175000", "134601.425000", "134602.675000", "134603.925000", "134605.175000", "134606.425000", "134607.675000", "134608.925000", "134610.175000", "134611.425000", "134612.675000", "134613.925000", "134615.175000", "134616.425000", "134617.675000", "134618.925000", "134620.175000", "134621.425000", "134622.675000", "134623.925000", "134625.175000", "134626.425000", "134627.675000", "134628.925000", "134630.175000", "134631.425000", "134632.675000", "134633.925000", "134635.175000", "134636.425000", "134637.675000", "134638.925000", "134640.175000", "134641.425000", "134642.675000", "134643.925000", "134645.175000", "134646.425000", "134647.675000", "134648.925000", "134650.175000", "134651.425000", "134652.675000", "134653.925000", "134655.175000", "134656.425000", "134657.675000", "134658.925000", "134700.175000", "134701.425000", "134702.675000", "134703.925000", "134705.175000", "134706.425000", "134707.675000", "134708.925000", "134710.175000", "134711.425000", "134712.675000", "134713.925000", "134715.175000", "134716.425000", "134717.675000", "134718.925000", "134720.175000", "134721.425000", "134722.675000", "134723.925000", "134725.175000", "134726.425000", "134727.675000", "134728.925000", "134730.175000", "134731.425000", "134732.675000", "134733.925000", "134735.175000", "134736.425000", "134737.675000", "134738.925000", "134740.175000", "134741.425000", "134742.675000", "134743.925000", "134745.175000", "134746.425000", "134747.675000", "134748.925000", "134750.175000", "134751.425000", "134752.675000", "134753.925000", "134755.175000", "134756.425000", "134757.675000", "134758.925000", "134800.175000", "134801.425000", "134802.675000", "134803.925000", "134805.175000", "134806.425000", "134807.675000", "134808.925000", "134810.175000", "134811.425000", "134812.675000", "134813.925000", "134815.175000", "134816.425000", "134817.675000", "134818.925000", "134820.175000", "134821.425000", "134822.675000", "134823.925000", "134825.175000", "134826.425000", "134827.675000", "134828.925000", "134830.175000", "134831.425000", "134832.675000", "134833.925000", "134835.175000", "134836.425000", "134837.675000", "134838.925000", "134840.175000", "134841.425000", "134842.675000", "134843.925000", "134845.175000", "134846.425000", "134847.675000", "134848.925000", "134850.175000", "134851.425000", "134852.675000", "134853.925000", "134855.175000", "134856.425000", "134857.675000"],
      "ContentTime": ["134310.581000", "134311.669000", "134312.861000", "134314.080000", "134315.380000", "134316.660000", "134317.898000", "134319.122000", "134320.383000", "134321.629000", "134322.880000", "134324.108000", "134325.362000", "134326.625000", "134327.888000", "134329.112000", "134330.379000", "134331.621000", "134332.882000", "134334.107000", "134335.365000", "134336.609000", "134337.890000", "134339.147000", "134340.391000", "134341.598000", "134342.864000", "134344.191000", "134345.362000", "134346.624000", "134347.882000", "134349.131000", "134350.370000", "134351.626000", "134352.861000", "134354.128000", "134355.373000", "134356.614000", "134357.863000", "134359.094000", "134400.364000", "134401.626000", "134402.877000", "134404.171000", "134405.421000", "134406.613000", "134407.842000", "134409.107000", "134410.408000", "134411.659000", "134412.895000", "134414.125000", "134415.386000", "134416.607000", "134417.861000", "134419.106000", "134420.398000", "134421.637000", "134422.876000", "134424.107000", "134425.388000", "134426.610000", "134427.861000", "134429.112000", "134430.402000", "134431.604000", "134432.853000", "134434.105000", "134435.381000", "134436.635000", "134437.894000", "134439.119000", "134440.346000", "134441.647000", "134442.872000", "134444.134000", "134445.366000", "134446.634000", "134447.870000", "134449.124000", "134450.430000", "134451.632000", "134452.878000", "134454.074000", "134455.390000", "134456.616000", "134457.869000", "134459.141000", "134500.359000", "134501.647000", "134502.870000", "134504.116000", "134505.373000", "134506.617000", "134507.864000", "134509.107000", "134510.355000", "134511.636000", "134512.886000", "134514.121000", "134515.347000", "134516.622000", "134517.891000", "134519.133000", "134520.456000", "134521.644000", "134522.885000", "134524.094000", "134525.368000", "134526.681000", "134527.881000", "134529.148000", "134530.394000", "134531.672000", "134532.903000", "134534.148000", "134535.397000", "134536.605000", "134537.904000", "134539.122000", "134540.393000", "134541.648000", "134542.868000", "134544.153000", "134545.388000", "134546.694000", "134547.902000", "134549.126000", "134550.405000", "134551.611000", "134552.875000", "134554.123000", "134555.437000", "134556.611000", "134557.882000", "134559.121000", "134600.407000", "134601.637000", "134602.850000", "134604.140000", "134605.385000", "134606.663000", "134607.901000", "134609.108000", "134610.424000", "134611.675000", "134612.914000", "134614.132000", "134615.384000", "134616.646000", "134617.885000", "134619.183000", "134620.355000", "134621.646000", "134622.926000", "134624.128000", "134625.342000", "134626.627000", "134627.842000", "134629.124000", "134630.372000", "134631.682000", "134632.849000", "134634.134000", "134635.380000", "134636.657000", "134637.841000", "134639.138000", "134640.391000", "134641.641000", "134642.869000", "134644.119000", "134645.377000", "134646.620000", "134647.847000", "134649.154000", "134650.389000", "134651.636000", "134652.877000", "134654.132000", "134655.388000", "134656.580000", "134657.883000", "134659.135000", "134700.391000", "134701.620000", "134702.839000", "134704.133000", "134705.394000", "134706.632000", "134707.901000", "134709.120000", "134710.373000", "134711.646000", "134712.881000", "134714.116000", "134715.372000", "134716.626000", "134717.878000", "134719.116000", "134720.381000", "134721.617000", "134722.880000", "134724.119000", "134725.396000", "134726.609000", "134727.875000", "134729.102000", "134730.406000", "134731.633000", "134732.881000", "134734.140000", "134735.403000", "134736.618000", "134737.892000", "134739.116000", "134740.438000", "134741.685000", "134742.875000", "134744.127000", "134745.386000", "134746.643000", "134747.871000", "134749.104000", "134750.371000", "134751.631000", "134752.875000", "134754.142000", "134755.397000", "134756.634000", "134757.869000", "134759.122000", "134800.388000", "134801.628000", "134802.903000", "134804.129000", "134805.363000", "134806.627000", "134807.888000", "134809.138000", "134810.367000", "134811.625000", "134812.965000", "134814.122000", "134815.377000", "134816.644000", "134817.841000", "134819.134000", "134820.409000", "134821.640000", "134822.889000", "134824.118000", "134825.399000", "134826.668000", "134827.878000", "134829.166000", "134830.426000", "134831.605000", "134832.868000", "134834.157000", "134835.353000", "134836.635000", "134837.881000", "134839.154000", "134840.370000", "134841.651000", "134842.868000", "134844.181000", "134845.389000", "134846.625000", "134847.899000", "134849.133000", "134850.377000", "134851.650000", "134852.860000", "134854.160000", "134855.434000", "134856.639000", "134857.859000", "134859.173000"],
      "InstanceCreationTime": ["134310.581000", "134311.669000", "134312.861000", "134314.080000", "134315.380000", "134316.660000", "134317.898000", "134319.122000", "134320.383000", "134321.629000", "134322.880000", "134324.108000", "134325.362000", "134326.625000", "134327.888000", "134329.112000", "134330.379000", "134331.621000", "134332.882000", "134334.107000", "134335.365000", "134336.609000", "134337.890000", "134339.147000", "134340.391000", "134341.598000", "134342.864000", "134344.191000", "134345.362000", "134346.624000", "134347.882000", "134349.131000", "134350.370000", "134351.626000", "134352.861000", "134354.128000", "134355.373000", "134356.614000", "134357.863000", "134359.094000", "134400.364000", "134401.626000", "134402.877000", "134404.171000", "134405.421000", "134406.613000", "134407.842000", "134409.107000", "134410.408000", "134411.659000", "134412.895000", "134414.125000", "134415.386000", "134416.607000", "134417.861000", "134419.106000", "134420.398000", "134421.637000", "134422.876000", "134424.107000", "134425.388000", "134426.610000", "134427.861000", "134429.112000", "134430.402000", "134431.604000", "134432.853000", "134434.105000", "134435.381000", "134436.635000", "134437.894000", "134439.119000", "134440.346000", "134441.647000", "134442.872000", "134444.134000", "134445.366000", "134446.634000", "134447.870000", "134449.124000", "134450.430000", "134451.632000", "134452.878000", "134454.074000", "134455.390000", "134456.616000", "134457.869000", "134459.141000", "134500.359000", "134501.647000", "134502.870000", "134504.116000", "134505.373000", "134506.617000", "134507.864000", "134509.107000", "134510.355000", "134511.636000", "134512.886000", "134514.121000", "134515.347000", "134516.622000", "134517.891000", "134519.133000", "134520.456000", "134521.644000", "134522.885000", "134524.094000", "134525.368000", "134526.681000", "134527.881000", "134529.148000", "134530.394000", "134531.672000", "134532.903000", "134534.148000", "134535.397000", "134536.605000", "134537.904000", "134539.122000", "134540.393000", "134541.648000", "134542.868000", "134544.153000", "134545.388000", "134546.694000", "134547.902000", "134549.126000", "134550.405000", "134551.611000", "134552.875000", "134554.123000", "134555.437000", "134556.611000", "134557.882000", "134559.121000", "134600.407000", "134601.637000", "134602.850000", "134604.140000", "134605.385000", "134606.663000", "134607.901000", "134609.108000", "134610.424000", "134611.675000", "134612.914000", "134614.132000", "134615.384000", "134616.646000", "134617.885000", "134619.183000", "134620.355000", "134621.646000", "134622.926000", "134624.128000", "134625.342000", "134626.627000", "134627.842000", "134629.124000", "134630.372000", "134631.682000", "134632.849000", "134634.134000", "134635.380000", "134636.657000", "134637.841000", "134639.138000", "134640.391000", "134641.641000", "134642.869000", "134644.119000", "134645.377000", "134646.620000", "134647.847000", "134649.154000", "134650.389000", "134651.636000", "134652.877000", "134654.132000", "134655.388000", "134656.580000", "134657.883000", "134659.135000", "134700.391000", "134701.620000", "134702.839000", "134704.133000", "134705.394000", "134706.632000", "134707.901000", "134709.120000", "134710.373000", "134711.646000", "134712.881000", "134714.116000", "134715.372000", "134716.626000", "134717.878000", "134719.116000", "134720.381000", "134721.617000", "134722.880000", "134724.119000", "134725.396000", "134726.609000", "134727.875000", "134729.102000", "134730.406000", "134731.633000", "134732.881000", "134734.140000", "134735.403000", "134736.618000", "134737.892000", "134739.116000", "134740.438000", "134741.685000", "134742.875000", "134744.127000", "134745.386000", "134746.643000", "134747.871000", "134749.104000", "134750.371000", "134751.631000", "134752.875000", "134754.142000", "134755.397000", "134756.634000", "134757.869000", "134759.122000", "134800.388000", "134801.628000", "134802.903000", "134804.129000", "134805.363000", "134806.627000", "134807.888000", "134809.138000", "134810.367000", "134811.625000", "134812.965000", "134814.122000", "134815.377000", "134816.644000", "134817.841000", "134819.134000", "134820.409000", "134821.640000", "134822.889000", "134824.118000", "134825.399000", "134826.668000", "134827.878000", "134829.166000", "134830.426000", "134831.605000", "134832.868000", "134834.157000", "134835.353000", "134836.635000", "134837.881000", "134839.154000", "134840.370000", "134841.651000", "134842.868000", "134844.181000", "134845.389000", "134846.625000", "134847.899000", "134849.133000", "134850.377000", "134851.650000", "134852.860000", "134854.160000", "134855.434000", "134856.639000", "134857.859000", "134859.173000"],
      "InstanceNumber": [1, 2, 3, 4, 5, 6, 7, 8, 9, 10, 11, 12, 13, 14, 15, 16, 17, 18, 19, 20, 21, 22, 23, 24, 25, 26, 27, 28, 29, 30, 31, 32, 33, 34, 35, 36, 37, 38, 39, 40, 41, 42, 43, 44, 45, 46, 47, 48, 49, 50, 51, 52, 53, 54, 55, 56, 57, 58, 59, 60, 61, 62, 63, 64, 65, 66, 67, 68, 69, 70, 71, 72, 73, 74, 75, 76, 77, 78, 79, 80, 81, 82, 83, 84, 85, 86, 87, 88, 89, 90, 91, 92, 93, 94, 95, 96, 97, 98, 99, 100, 101, 102, 103, 104, 105, 106, 107, 108, 109, 110, 111, 112, 113, 114, 115, 116, 117, 118, 119, 120, 121, 122, 123, 124, 125, 126, 127, 128, 129, 130, 131, 132, 133, 134, 135, 136, 137, 138, 139, 140, 141, 142, 143, 144, 145, 146, 147, 148, 149, 150, 151, 152, 153, 154, 155, 156, 157, 158, 159, 160, 161, 162, 163, 164, 165, 166, 167, 168, 169, 170, 171, 172, 173, 174, 175, 176, 177, 178, 179, 180, 181, 182, 183, 184, 185, 186, 187, 188, 189, 190, 191, 192, 193, 194, 195, 196, 197, 198, 199, 200, 201, 202, 203, 204, 205, 206, 207, 208, 209, 210, 211, 212, 213, 214, 215, 216, 217, 218, 219, 220, 221, 222, 223, 224, 225, 226, 227, 228, 229, 230, 231, 232, 233, 234, 235, 236, 237, 238, 239, 240, 241, 242, 243, 244, 245, 246, 247, 248, 249, 250, 251, 252, 253, 254, 255, 256, 257, 258, 259, 260, 261, 262, 263, 264, 265, 266, 267, 268, 269, 270, 271, 272, 273, 274, 275, 276, 277, 278, 279, 280],
      "LargestImagePixelValue": [674, 721, 658, 668, 762, 635, 670, 778, 676, 680, 628, 619, 800, 768, 932, 810, 900, 781, 664, 677, 678, 657, 637, 716, 621, 784, 970, 802, 701, 718, 686, 593, 717, 777, 934, 935, 739, 703, 594, 623, 630, 989, 856, 727, 720, 728, 625, 956, 820, 703, 647, 600, 827, 798, 753, 751, 707, 665, 594, 684, 867, 914, 723, 685, 628, 607, 966, 767, 688, 670, 596, 739, 909, 745, 717, 690, 600, 605, 895, 888, 727, 695, 638, 629, 795, 884, 811, 715, 721, 669, 717, 1037, 723, 666, 687, 596, 853, 977, 863, 683, 646, 674, 630, 662, 863, 841, 812, 731, 669, 625, 630, 631, 728, 1078, 735, 655, 631, 702, 744, 965, 862, 727, 673, 720, 601, 680, 899, 835, 796, 738, 722, 608, 659, 633, 852, 921, 742, 689, 672, 694, 661, 705, 598, 767, 822, 968, 690, 718, 688, 730, 625, 758, 665, 774, 652, 738, 626, 670, 628, 605, 922, 918, 788, 673, 665, 685, 598, 611, 646, 897, 867, 939, 757, 860, 741, 828, 698, 800, 721, 897, 693, 888, 728, 883, 704, 745, 718, 632, 683, 617, 655, 672, 713, 668, 714, 630, 711, 678, 726, 763, 868, 995, 799, 791, 701, 667, 670, 668, 719, 620, 891, 954, 733, 736, 704, 727, 664, 685, 653, 899, 831, 852, 1023, 836, 762, 683, 728, 670, 701, 674, 648, 649, 695, 962, 836, 894, 780, 881, 682, 716, 639, 680, 685, 722, 759, 674, 771, 645, 777, 680, 710, 588, 663, 730, 913, 903, 806, 760, 816, 722, 804, 728, 864, 795, 865, 797, 840, 799, 852, 803, 837, 802, 807, 778, 691, 755, 681, 819, 734, 797],
      "WindowCenter": [296.0, 297.0, 295.0, 296.0, 296.0, 295.0, 296.0, 297.0, 297.0, 297.0, 295.0, 295.0, 297.0, 297.0, 299.0, 298.0, 298.0, 297.0, 295.0, 296.0, 296.0, 296.0, 296.0, 297.0, 294.0, 297.0, 299.0, 298.0, 297.0, 297.0, 296.0, 294.0, 297.0, 297.0, 299.0, 299.0, 297.0, 296.0, 294.0, 295.0, 295.0, 300.0, 299.0, 297.0, 297.0, 296.0, 295.0, 298.0, 298.0, 296.0, 295.0, 294.0, 298.0, 297.0, 297.0, 297.0, 296.0, 296.0, 294.0, 296.0, 298.0, 299.0, 296.0, 295.0, 294.0, 294.0, 299.0, 297.0, 296.0, 295.0, 294.0, 295.0, 298.0, 297.0, 296.0, 296.0, 294.0, 295.0, 299.0, 299.0, 297.0, 296.0, 295.0, 295.0, 297.0, 298.0, 298.0, 296.0, 297.0, 295.0, 296.0, 299.0, 296.0, 295.0, 295.0, 295.0, 298.0, 299.0, 299.0, 296.0, 295.0, 296.0, 295.0, 295.0, 297.0, 298.0, 297.0, 297.0, 295.0, 294.0, 295.0, 295.0, 296.0, 299.0, 296.0, 295.0, 295.0, 295.0, 296.0, 299.0, 299.0, 297.0, 296.0, 296.0, 294.0, 295.0, 297.0, 298.0, 297.0, 296.0, 296.0, 294.0, 296.0, 294.0, 298.0, 299.0, 297.0, 295.0, 295.0, 295.0, 295.0, 295.0, 294.0, 296.0, 298.0, 298.0, 296.0, 296.0, 296.0, 296.0, 295.0, 297.0, 296.0, 297.0, 295.0, 297.0, 295.0, 296.0, 294.0, 294.0, 298.0, 299.0, 297.0, 295.0, 295.0, 295.0, 294.0, 295.0, 295.0, 298.0, 299.0, 298.0, 297.0, 297.0, 297.0, 298.0, 297.0, 298.0, 297.0, 298.0, 296.0, 298.0, 296.0, 298.0, 296.0, 297.0, 296.0, 295.0, 295.0, 294.0, 295.0, 295.0, 296.0, 295.0, 296.0, 295.0, 296.0, 295.0, 296.0, 297.0, 298.0, 299.0, 297.0, 297.0, 296.0, 295.0, 295.0, 296.0, 296.0, 294.0, 298.0, 298.0, 297.0, 296.0, 296.0, 296.0, 296.0, 296.0, 295.0, 299.0, 298.0, 299.0, 299.0, 298.0, 297.0, 296.0, 296.0, 295.0, 296.0, 295.0, 295.0, 295.0, 295.0, 298.0, 298.0, 298.0, 297.0, 299.0, 295.0, 296.0, 295.0, 296.0, 295.0, 297.0, 297.0, 296.0, 297.0, 295.0, 297.0, 295.0, 296.0, 293.0, 295.0, 297.0, 298.0, 298.0, 297.0, 297.0, 297.0, 296.0, 297.0, 295.0, 298.0, 297.0, 298.0, 297.0, 298.0, 298.0, 299.0, 297.0, 298.0, 297.0, 297.0, 297.0, 296.0, 297.0, 296.0, 297.0, 297.0, 298.0],
      "WindowWidth": [647.0, 647.0, 645.0, 646.0, 646.0, 645.0, 646.0, 648.0, 648.0, 647.0, 645.0, 644.0, 647.0, 648.0, 650.0, 649.0, 649.0, 648.0, 645.0, 646.0, 646.0, 645.0, 646.0, 647.0, 643.0, 648.0, 650.0, 649.0, 647.0, 648.0, 646.0, 643.0, 647.0, 648.0, 650.0, 650.0, 647.0, 646.0, 644.0, 644.0, 644.0, 651.0, 650.0, 647.0, 647.0, 646.0, 644.0, 649.0, 648.0, 646.0, 644.0, 644.0, 648.0, 648.0, 647.0, 647.0, 646.0, 646.0, 644.0, 646.0, 649.0, 650.0, 645.0, 645.0, 643.0, 642.0, 649.0, 646.0, 645.0, 643.0, 643.0, 644.0, 649.0, 646.0, 645.0, 645.0, 644.0, 644.0, 650.0, 650.0, 647.0, 646.0, 644.0, 644.0, 647.0, 648.0, 648.0, 646.0, 647.0, 644.0, 645.0, 650.0, 645.0, 644.0, 644.0, 644.0, 648.0, 650.0, 650.0, 646.0, 644.0, 646.0, 644.0, 645.0, 647.0, 648.0, 647.0, 647.0, 645.0, 642.0, 644.0, 644.0, 646.0, 650.0, 646.0, 645.0, 644.0, 644.0, 646.0, 650.0, 650.0, 647.0, 646.0, 646.0, 643.0, 645.0, 647.0, 649.0, 648.0, 646.0, 645.0, 644.0, 645.0, 643.0, 648.0, 649.0, 647.0, 645.0, 645.0, 644.0, 644.0, 645.0, 644.0, 645.0, 648.0, 649.0, 646.0, 646.0, 646.0, 646.0, 645.0, 647.0, 646.0, 648.0, 645.0, 647.0, 644.0, 646.0, 643.0, 644.0, 649.0, 650.0, 646.0, 644.0, 644.0, 644.0, 644.0, 644.0, 645.0, 648.0, 649.0, 648.0, 647.0, 647.0, 647.0, 648.0, 647.0, 648.0, 647.0, 648.0, 646.0, 648.0, 645.0, 648.0, 645.0, 647.0, 646.0, 645.0, 644.0, 644.0, 644.0, 645.0, 646.0, 645.0, 646.0, 644.0, 646.0, 645.0, 646.0, 647.0, 648.0, 650.0, 648.0, 646.0, 645.0, 645.0, 645.0, 645.0, 646.0, 644.0, 648.0, 649.0, 646.0, 645.0, 646.0, 646.0, 645.0, 646.0, 645.0, 649.0, 649.0, 649.0, 650.0, 648.0, 648.0, 646.0, 646.0, 645.0, 646.0, 645.0, 644.0, 644.0, 645.0, 649.0, 648.0, 649.0, 648.0, 649.0, 645.0, 646.0, 644.0, 646.0, 645.0, 647.0, 647.0, 646.0, 646.0, 644.0, 646.0, 645.0, 645.0, 641.0, 644.0, 646.0, 649.0, 648.0, 647.0, 646.0, 647.0, 646.0, 647.0, 644.0, 648.0, 647.0, 648.0, 648.0, 648.0, 649.0, 649.0, 648.0, 648.0, 647.0, 647.0, 647.0, 646.0, 647.0, 646.0, 647.0, 647.0, 649.0]
    },
    "slices": {}
  }
}