{
  "AcquisitionMatrixPE": 96,
  "AcquisitionNumber": 1,
  "AcquisitionTime": "13:30:18.172500",
  "BandwidthPerPixelPhaseEncode": 18.939,
  "BaseResolution": 96,
  "BodyPartExamined": "BRAIN",
  "ConsistencyInfo": "N4_VE11C_LATEST_20160120",
  "ConversionSoftware": "dcm2niix",
  "ConversionSoftwareVersion": "v1.0.20170923 (OpenJPEG build) GCC6.3.0",
  "DerivedVendorReportedEchoSpacing": 0.000550011,
  "DeviceSerialNumber": "66112",
  "DwellTime": 2.3e-06,
  "EchoTime": 0.033,
  "EchoTrainLength": 96,
  "EffectiveEchoSpacing": 0.000550011,
  "FlipAngle": 64,
  "ImageType": [
    "ORIGINAL",
    "PRIMARY",
    "FMRI",
    "NONE",
    "ND",
    "NORM",
    "MOSAIC"
],
  "InstitutionAddress": "Maynard_3_Hanover_NH_US_03755",
  "InstitutionName": "Dartmouth_College_-_PBS",
  "MagneticFieldStrength": 3,
  "Manufacturer": "Siemens",
  "ManufacturersModelName": "Prisma",
  "Modality": "MR",
  "MultibandAccelerationFactor": 4,
  "PartialFourier": 1,
  "PercentPhaseFOV": 100,
  "PhaseEncodingDirection": "j-",
  "PhaseEncodingSteps": 96,
  "PhaseResolution": 1,
  "ProcedureStepDescription": "Gobbini_Matteo_1017_famface-angles",
  "ProtocolName": "func_run-03_task-fam1back",
  "PulseSequenceDetails": "%SiemensSeq%_ep2d_bold",
  "ReceiveCoilActiveElements": "HEA;HEP",
  "ReceiveCoilName": "Head_32",
  "ReconMatrixPE": 96,
  "RepetitionTime": 1.25,
  "ScanOptions": "FS",
  "ScanningSequence": "EP",
  "SequenceName": "_epfid2d1_96",
  "SequenceVariant": "SK",
  "SeriesDescription": "func_run-03_task-fam1back",
  "SliceTiming": [0.8775, 0, 0.615, 0.0875, 0.7025, 0.175, 0.79, 0.35, 0.965, 0.44, 1.0525, 0.5275, 1.1425, 0.2625, 0.8775, 0, 0.615, 0.0875, 0.7025, 0.175, 0.79, 0.35, 0.965, 0.44, 1.0525, 0.5275, 1.1425, 0.2625, 0.8775, 0, 0.615, 0.0875, 0.7025, 0.175, 0.79, 0.35, 0.965, 0.44, 1.0525, 0.5275, 1.1425, 0.2625, 0.8775, 0, 0.615, 0.0875, 0.7025, 0.175, 0.79, 0.35, 0.965, 0.44, 1.0525, 0.5275, 1.1425, 0.2625],
  "SoftwareVersions": "syngo_MR_E11",
  "StationName": "AWP66112",
  "TaskName": "fam1back",
  "TotalReadoutTime": 0.0522511,
  "dcmmeta_affine": [
    [-2.4999608993530273, 0.01396265346556902, 0.0006559203611686826, 120.99462890625],
    [0.013977774418890476, 2.4978954792022705, 0.1016010120511055, -97.42794036865234],
    [8.79202998476103e-05, -0.10160309076309204, 2.497934579849243, -86.63306427001953],
    [0.0, 0.0, 0.0, 1.0]
],
  "dcmmeta_reorient_transform": [
    [0.0, -1.0, 0.0, 95.0],
    [1.0, 0.0, 0.0, 0.0],
    [0.0, 0.0, 1.0, 0.0],
    [0.0, 0.0, 0.0, 1.0]
],
  "dcmmeta_shape": [96, 96, 56, 280],
  "dcmmeta_slice_dim": 2,
  "dcmmeta_version": 0.6,
  "global": {
    "const": {
      "AccessionNumber": "A000640",
      "AcquisitionMatrix": [96, 0, 0, 96],
      "AngioFlag": "N",
      "BitsAllocated": 16,
      "BitsStored": 12,
      "BodyPartExamined": "BRAIN",
      "Columns": 768,
      "EchoNumbers": 1,
      "EchoTime": 33.0,
      "EchoTrainLength": 96,
      "FlipAngle": 64.0,
      "HighBit": 11,
      "ImageOrientationPatient": [0.9999843690042, -0.0055911099511, 3.516812105e-05, 0.00558506134659, 0.99915819421312, 0.04064123554384],
      "ImagePositionPatient": [-966.99940398648, -974.46848391459, -130.45353758176],
      "ImageType": [
        "ORIGINAL",
        "PRIMARY",
        "FMRI",
        "NONE",
        "ND",
        "NORM",
        "MOSAIC"
],
      "ImagedNucleus": "1H",
      "ImagingFrequency": 123.252308,
      "InPlanePhaseEncodingDirection": "COL",
      "MRAcquisitionType": "2D",
      "MagneticFieldStrength": 3.0,
      "Manufacturer": "SIEMENS",
      "ManufacturerModelName": "Prisma",
      "Modality": "MR",
      "NumberOfAverages": 1.0,
      "NumberOfPhaseEncodingSteps": 96,
      "PercentPhaseFieldOfView": 100.0,
      "PercentSampling": 100.0,
      "PerformedProcedureStepStartTime": "125753.859000",
      "PhotometricInterpretation": "MONOCHROME2",
      "PixelBandwidth": 2265.0,
      "PixelRepresentation": 0,
      "PixelSpacing": [2.5, 2.5],
      "PositionReferenceIndicator": "",
      "ProtocolName": "func_run-03_task-fam1back",
      "RepetitionTime": 1250.0,
      "Rows": 768,
      "SAR": 0.07222446161671,
      "SamplesPerPixel": 1,
      "ScanOptions": "FS",
      "ScanningSequence": "EP",
      "SequenceName": "*epfid2d1_96",
      "SequenceVariant": "SK",
      "SeriesDescription": "func_run-03_task-fam1back",
      "SeriesNumber": 25,
      "SeriesTime": "133019.785000",
      "SliceLocation": -90.489254701413,
      "SliceThickness": 2.5,
      "SmallestImagePixelValue": 0,
      "SoftwareVersions": "syngo MR E11",
      "SpacingBetweenSlices": 2.5000000065041,
      "SpecificCharacterSet": "ISO_IR 100",
      "StudyID": "1",
      "StudyTime": "125753.772000",
      "TransmitCoilName": "Body",
      "VariableFlipAngleFlag": "N",
      "WindowCenterWidthExplanation": "Algo1",
      "dBdt": 0.0},
    "slices": {}
  },
  "time": {
    "samples": {
      "AcquisitionNumber": [1, 2, 3, 4, 5, 6, 7, 8, 9, 10, 11, 12, 13, 14, 15, 16, 17, 18, 19, 20, 21, 22, 23, 24, 25, 26, 27, 28, 29, 30, 31, 32, 33, 34, 35, 36, 37, 38, 39, 40, 41, 42, 43, 44, 45, 46, 47, 48, 49, 50, 51, 52, 53, 54, 55, 56, 57, 58, 59, 60, 61, 62, 63, 64, 65, 66, 67, 68, 69, 70, 71, 72, 73, 74, 75, 76, 77, 78, 79, 80, 81, 82, 83, 84, 85, 86, 87, 88, 89, 90, 91, 92, 93, 94, 95, 96, 97, 98, 99, 100, 101, 102, 103, 104, 105, 106, 107, 108, 109, 110, 111, 112, 113, 114, 115, 116, 117, 118, 119, 120, 121, 122, 123, 124, 125, 126, 127, 128, 129, 130, 131, 132, 133, 134, 135, 136, 137, 138, 139, 140, 141, 142, 143, 144, 145, 146, 147, 148, 149, 150, 151, 152, 153, 154, 155, 156, 157, 158, 159, 160, 161, 162, 163, 164, 165, 166, 167, 168, 169, 170, 171, 172, 173, 174, 175, 176, 177, 178, 179, 180, 181, 182, 183, 184, 185, 186, 187, 188, 189, 190, 191, 192, 193, 194, 195, 196, 197, 198, 199, 200, 201, 202, 203, 204, 205, 206, 207, 208, 209, 210, 211, 212, 213, 214, 215, 216, 217, 218, 219, 220, 221, 222, 223, 224, 225, 226, 227, 228, 229, 230, 231, 232, 233, 234, 235, 236, 237, 238, 239, 240, 241, 242, 243, 244, 245, 246, 247, 248, 249, 250, 251, 252, 253, 254, 255, 256, 257, 258, 259, 260, 261, 262, 263, 264, 265, 266, 267, 268, 269, 270, 271, 272, 273, 274, 275, 276, 277, 278, 279, 280],
      "AcquisitionTime": ["133018.172500", "133019.422500", "133020.672500", "133021.922500", "133023.172500", "133024.422500", "133025.672500", "133026.922500", "133028.172500", "133029.422500", "133030.672500", "133031.922500", "133033.172500", "133034.422500", "133035.672500", "133036.922500", "133038.172500", "133039.422500", "133040.672500", "133041.922500", "133043.172500", "133044.422500", "133045.672500", "133046.922500", "133048.172500", "133049.422500", "133050.672500", "133051.922500", "133053.172500", "133054.422500", "133055.672500", "133056.922500", "133058.172500", "133059.422500", "133100.672500", "133101.922500", "133103.172500", "133104.422500", "133105.672500", "133106.922500", "133108.172500", "133109.422500", "133110.672500", "133111.922500", "133113.172500", "133114.422500", "133115.672500", "133116.922500", "133118.172500", "133119.422500", "133120.672500", "133121.922500", "133123.172500", "133124.422500", "133125.672500", "133126.922500", "133128.172500", "133129.422500", "133130.672500", "133131.922500", "133133.172500", "133134.422500", "133135.672500", "133136.922500", "133138.172500", "133139.422500", "133140.672500", "133141.922500", "133143.172500", "133144.422500", "133145.672500", "133146.922500", "133148.172500", "133149.422500", "133150.672500", "133151.922500", "133153.172500", "133154.422500", "133155.672500", "133156.922500", "133158.172500", "133159.422500", "133200.672500", "133201.922500", "133203.172500", "133204.422500", "133205.672500", "133206.922500", "133208.172500", "133209.422500", "133210.672500", "133211.922500", "133213.172500", "133214.422500", "133215.672500", "133216.922500", "133218.172500", "133219.422500", "133220.672500", "133221.922500", "133223.172500", "133224.422500", "133225.672500", "133226.922500", "133228.172500", "133229.422500", "133230.672500", "133231.922500", "133233.172500", "133234.422500", "133235.672500", "133236.922500", "133238.172500", "133239.422500", "133240.672500", "133241.922500", "133243.172500", "133244.422500", "133245.672500", "133246.922500", "133248.172500", "133249.422500", "133250.672500", "133251.922500", "133253.172500", "133254.422500", "133255.672500", "133256.922500", "133258.172500", "133259.422500", "133300.672500", "133301.922500", "133303.172500", "133304.422500", "133305.672500", "133306.922500", "133308.172500", "133309.422500", "133310.672500", "133311.922500", "133313.172500", "133314.422500", "133315.672500", "133316.922500", "133318.172500", "133319.422500", "133320.672500", "133321.922500", "133323.172500", "133324.422500", "133325.672500", "133326.922500", "133328.172500", "133329.422500", "133330.672500", "133331.922500", "133333.172500", "133334.422500", "133335.672500", "133336.922500", "133338.172500", "133339.422500", "133340.672500", "133341.922500", "133343.172500", "133344.422500", "133345.672500", "133346.922500", "133348.172500", "133349.422500", "133350.672500", "133351.922500", "133353.172500", "133354.422500", "133355.672500", "133356.922500", "133358.172500", "133359.422500", "133400.672500", "133401.922500", "133403.172500", "133404.422500", "133405.672500", "133406.922500", "133408.172500", "133409.422500", "133410.672500", "133411.922500", "133413.172500", "133414.422500", "133415.672500", "133416.922500", "133418.172500", "133419.422500", "133420.672500", "133421.922500", "133423.172500", "133424.422500", "133425.672500", "133426.922500", "133428.172500", "133429.422500", "133430.672500", "133431.922500", "133433.172500", "133434.422500", "133435.672500", "133436.922500", "133438.172500", "133439.422500", "133440.672500", "133441.922500", "133443.172500", "133444.422500", "133445.672500", "133446.922500", "133448.172500", "133449.422500", "133450.672500", "133451.922500", "133453.172500", "133454.422500", "133455.672500", "133456.922500", "133458.172500", "133459.422500", "133500.672500", "133501.922500", "133503.172500", "133504.422500", "133505.672500", "133506.922500", "133508.172500", "133509.422500", "133510.672500", "133511.922500", "133513.172500", "133514.422500", "133515.672500", "133516.922500", "133518.172500", "133519.422500", "133520.672500", "133521.922500", "133523.172500", "133524.422500", "133525.672500", "133526.922500", "133528.172500", "133529.422500", "133530.672500", "133531.922500", "133533.172500", "133534.422500", "133535.672500", "133536.922500", "133538.172500", "133539.422500", "133540.672500", "133541.922500", "133543.172500", "133544.422500", "133545.672500", "133546.922500", "133548.172500", "133549.422500", "133550.672500", "133551.922500", "133553.172500", "133554.422500", "133555.672500", "133556.922500", "133558.172500", "133559.422500", "133600.672500", "133601.922500", "133603.172500", "133604.422500", "133605.672500", "133606.922500"],
      "ContentTime": ["133019.790000", "133020.865000", "133022.078000", "133023.364000", "133024.618000", "133025.867000", "133027.090000", "133028.353000", "133029.633000", "133030.876000", "133032.117000", "133033.398000", "133034.624000", "133035.852000", "133037.110000", "133038.380000", "133039.631000", "133040.877000", "133042.132000", "133043.360000", "133044.582000", "133045.866000", "133047.110000", "133048.362000", "133049.601000", "133050.871000", "133052.167000", "133053.394000", "133054.644000", "133055.859000", "133057.144000", "133058.421000", "133059.637000", "133100.884000", "133102.092000", "133103.360000", "133104.628000", "133105.890000", "133107.104000", "133108.376000", "133109.640000", "133110.848000", "133112.138000", "133113.355000", "133114.615000", "133115.867000", "133117.119000", "133118.374000", "133119.635000", "133120.869000", "133122.115000", "133123.390000", "133124.623000", "133125.884000", "133127.150000", "133128.357000", "133129.667000", "133130.874000", "133132.138000", "133133.388000", "133134.627000", "133135.857000", "133137.133000", "133138.426000", "133139.649000", "133140.896000", "133142.111000", "133143.378000", "133144.652000", "133145.896000", "133147.113000", "133148.432000", "133149.598000", "133150.972000", "133152.109000", "133153.359000", "133154.638000", "133155.878000", "133157.116000", "133158.375000", "133159.612000", "133200.867000", "133202.148000", "133203.368000", "133204.610000", "133205.898000", "133207.138000", "133208.362000", "133209.638000", "133210.918000", "133212.144000", "133213.368000", "133214.640000", "133215.849000", "133217.140000", "133218.381000", "133219.629000", "133220.853000", "133222.107000", "133223.359000", "133224.626000", "133225.848000", "133227.130000", "133228.415000", "133229.620000", "133230.868000", "133232.127000", "133233.366000", "133234.591000", "133235.873000", "133237.109000", "133238.360000", "133239.695000", "133240.885000", "133242.160000", "133243.365000", "133244.616000", "133245.885000", "133247.115000", "133248.377000", "133249.621000", "133250.892000", "133252.139000", "133253.351000", "133254.634000", "133255.893000", "133257.100000", "133258.366000", "133259.622000", "133300.901000", "133302.145000", "133303.384000", "133304.608000", "133305.872000", "133307.126000", "133308.406000", "133309.665000", "133310.887000", "133312.141000", "133313.371000", "133314.627000", "133315.870000", "133317.119000", "133318.370000", "133319.629000", "133320.885000", "133322.154000", "133323.446000", "133324.637000", "133325.864000", "133327.156000", "133328.386000", "133329.668000", "133330.856000", "133332.143000", "133333.382000", "133334.624000", "133335.901000", "133337.131000", "133338.381000", "133339.599000", "133340.853000", "133342.119000", "133343.358000", "133344.599000", "133345.876000", "133347.161000", "133348.406000", "133349.617000", "133350.896000", "133352.178000", "133353.372000", "133354.623000", "133355.913000", "133357.129000", "133358.353000", "133359.654000", "133400.896000", "133402.127000", "133403.364000", "133404.605000", "133405.879000", "133407.146000", "133408.440000", "133409.617000", "133410.895000", "133412.098000", "133413.396000", "133414.631000", "133415.892000", "133417.138000", "133418.393000", "133419.621000", "133420.878000", "133422.115000", "133423.378000", "133424.610000", "133425.871000", "133427.120000", "133428.336000", "133429.578000", "133430.895000", "133432.099000", "133433.347000", "133434.606000", "133435.864000", "133437.120000", "133438.355000", "133439.601000", "133440.852000", "133442.136000", "133443.356000", "133444.630000", "133445.918000", "133447.155000", "133448.446000", "133449.638000", "133450.869000", "133452.114000", "133453.381000", "133454.613000", "133455.889000", "133457.181000", "133458.369000", "133459.650000", "133500.860000", "133502.157000", "133503.410000", "133504.637000", "133505.869000", "133507.110000", "133508.365000", "133509.643000", "133510.882000", "133512.097000", "133513.412000", "133514.626000", "133515.884000", "133517.178000", "133518.359000", "133519.712000", "133520.850000", "133522.129000", "133523.371000", "133524.556000", "133525.872000", "133527.134000", "133528.369000", "133529.637000", "133530.883000", "133532.170000", "133533.368000", "133534.618000", "133535.873000", "133537.133000", "133538.384000", "133539.604000", "133540.843000", "133542.142000", "133543.343000", "133544.653000", "133545.897000", "133547.129000", "133548.350000", "133549.608000", "133550.870000", "133552.104000", "133553.376000", "133554.620000", "133555.857000", "133557.117000", "133558.372000", "133559.633000", "133600.857000", "133602.131000", "133603.388000", "133604.642000", "133605.897000", "133607.105000", "133608.435000"],
      "InstanceCreationTime": ["133019.790000", "133020.865000", "133022.078000", "133023.364000", "133024.618000", "133025.867000", "133027.090000", "133028.353000", "133029.633000", "133030.876000", "133032.117000", "133033.398000", "133034.624000", "133035.852000", "133037.110000", "133038.380000", "133039.631000", "133040.877000", "133042.132000", "133043.360000", "133044.582000", "133045.866000", "133047.110000", "133048.362000", "133049.601000", "133050.871000", "133052.167000", "133053.394000", "133054.644000", "133055.859000", "133057.144000", "133058.421000", "133059.637000", "133100.884000", "133102.092000", "133103.360000", "133104.628000", "133105.890000", "133107.104000", "133108.376000", "133109.640000", "133110.848000", "133112.138000", "133113.355000", "133114.615000", "133115.867000", "133117.119000", "133118.374000", "133119.635000", "133120.869000", "133122.115000", "133123.390000", "133124.623000", "133125.884000", "133127.150000", "133128.357000", "133129.667000", "133130.874000", "133132.138000", "133133.388000", "133134.627000", "133135.857000", "133137.133000", "133138.426000", "133139.649000", "133140.896000", "133142.111000", "133143.378000", "133144.652000", "133145.896000", "133147.113000", "133148.432000", "133149.598000", "133150.972000", "133152.109000", "133153.359000", "133154.638000", "133155.878000", "133157.116000", "133158.375000", "133159.612000", "133200.867000", "133202.148000", "133203.368000", "133204.610000", "133205.898000", "133207.138000", "133208.362000", "133209.638000", "133210.918000", "133212.144000", "133213.368000", "133214.640000", "133215.849000", "133217.140000", "133218.381000", "133219.629000", "133220.853000", "133222.107000", "133223.359000", "133224.626000", "133225.848000", "133227.130000", "133228.415000", "133229.620000", "133230.868000", "133232.127000", "133233.366000", "133234.591000", "133235.873000", "133237.109000", "133238.360000", "133239.695000", "133240.885000", "133242.160000", "133243.365000", "133244.616000", "133245.885000", "133247.115000", "133248.377000", "133249.621000", "133250.892000", "133252.139000", "133253.351000", "133254.634000", "133255.893000", "133257.100000", "133258.366000", "133259.622000", "133300.901000", "133302.145000", "133303.384000", "133304.608000", "133305.872000", "133307.126000", "133308.406000", "133309.665000", "133310.887000", "133312.141000", "133313.371000", "133314.627000", "133315.870000", "133317.119000", "133318.370000", "133319.629000", "133320.885000", "133322.154000", "133323.446000", "133324.637000", "133325.864000", "133327.156000", "133328.386000", "133329.668000", "133330.856000", "133332.143000", "133333.382000", "133334.624000", "133335.901000", "133337.131000", "133338.381000", "133339.599000", "133340.853000", "133342.119000", "133343.358000", "133344.599000", "133345.876000", "133347.161000", "133348.406000", "133349.617000", "133350.896000", "133352.178000", "133353.372000", "133354.623000", "133355.913000", "133357.129000", "133358.353000", "133359.654000", "133400.896000", "133402.127000", "133403.364000", "133404.605000", "133405.879000", "133407.146000", "133408.440000", "133409.617000", "133410.895000", "133412.098000", "133413.396000", "133414.631000", "133415.892000", "133417.138000", "133418.393000", "133419.621000", "133420.878000", "133422.115000", "133423.378000", "133424.610000", "133425.871000", "133427.120000", "133428.336000", "133429.578000", "133430.895000", "133432.099000", "133433.347000", "133434.606000", "133435.864000", "133437.120000", "133438.355000", "133439.601000", "133440.852000", "133442.136000", "133443.356000", "133444.630000", "133445.918000", "133447.155000", "133448.446000", "133449.638000", "133450.869000", "133452.114000", "133453.381000", "133454.613000", "133455.889000", "133457.181000", "133458.369000", "133459.650000", "133500.860000", "133502.157000", "133503.410000", "133504.637000", "133505.869000", "133507.110000", "133508.365000", "133509.643000", "133510.882000", "133512.097000", "133513.412000", "133514.626000", "133515.884000", "133517.178000", "133518.359000", "133519.712000", "133520.850000", "133522.129000", "133523.371000", "133524.556000", "133525.872000", "133527.134000", "133528.369000", "133529.637000", "133530.883000", "133532.170000", "133533.368000", "133534.618000", "133535.873000", "133537.133000", "133538.384000", "133539.604000", "133540.843000", "133542.142000", "133543.343000", "133544.653000", "133545.897000", "133547.129000", "133548.350000", "133549.608000", "133550.870000", "133552.104000", "133553.376000", "133554.620000", "133555.857000", "133557.117000", "133558.372000", "133559.633000", "133600.857000", "133602.131000", "133603.388000", "133604.642000", "133605.897000", "133607.105000", "133608.435000"],
      "InstanceNumber": [1, 2, 3, 4, 5, 6, 7, 8, 9, 10, 11, 12, 13, 14, 15, 16, 17, 18, 19, 20, 21, 22, 23, 24, 25, 26, 27, 28, 29, 30, 31, 32, 33, 34, 35, 36, 37, 38, 39, 40, 41, 42, 43, 44, 45, 46, 47, 48, 49, 50, 51, 52, 53, 54, 55, 56, 57, 58, 59, 60, 61, 62, 63, 64, 65, 66, 67, 68, 69, 70, 71, 72, 73, 74, 75, 76, 77, 78, 79, 80, 81, 82, 83, 84, 85, 86, 87, 88, 89, 90, 91, 92, 93, 94, 95, 96, 97, 98, 99, 100, 101, 102, 103, 104, 105, 106, 107, 108, 109, 110, 111, 112, 113, 114, 115, 116, 117, 118, 119, 120, 121, 122, 123, 124, 125, 126, 127, 128, 129, 130, 131, 132, 133, 134, 135, 136, 137, 138, 139, 140, 141, 142, 143, 144, 145, 146, 147, 148, 149, 150, 151, 152, 153, 154, 155, 156, 157, 158, 159, 160, 161, 162, 163, 164, 165, 166, 167, 168, 169, 170, 171, 172, 173, 174, 175, 176, 177, 178, 179, 180, 181, 182, 183, 184, 185, 186, 187, 188, 189, 190, 191, 192, 193, 194, 195, 196, 197, 198, 199, 200, 201, 202, 203, 204, 205, 206, 207, 208, 209, 210, 211, 212, 213, 214, 215, 216, 217, 218, 219, 220, 221, 222, 223, 224, 225, 226, 227, 228, 229, 230, 231, 232, 233, 234, 235, 236, 237, 238, 239, 240, 241, 242, 243, 244, 245, 246, 247, 248, 249, 250, 251, 252, 253, 254, 255, 256, 257, 258, 259, 260, 261, 262, 263, 264, 265, 266, 267, 268, 269, 270, 271, 272, 273, 274, 275, 276, 277, 278, 279, 280],
      "LargestImagePixelValue": [641, 744, 650, 711, 646, 639, 668, 702, 944, 690, 651, 644, 615, 631, 610, 760, 812, 734, 621, 617, 629, 622, 637, 877, 855, 694, 693, 588, 661, 617, 602, 780, 773, 850, 732, 781, 799, 845, 713, 688, 616, 594, 596, 696, 951, 779, 741, 600, 771, 867, 832, 692, 591, 904, 889, 837, 714, 817, 709, 760, 846, 900, 962, 789, 772, 667, 582, 591, 967, 738, 626, 592, 691, 1030, 871, 757, 743, 604, 615, 859, 902, 763, 763, 657, 604, 937, 885, 805, 741, 611, 589, 908, 893, 798, 669, 657, 598, 595, 771, 880, 926, 820, 798, 715, 767, 635, 577, 595, 594, 640, 954, 723, 906, 773, 755, 644, 729, 906, 841, 744, 802, 681, 612, 578, 832, 867, 883, 811, 802, 691, 674, 628, 638, 697, 802, 862, 902, 830, 830, 684, 805, 694, 670, 588, 612, 667, 616, 711, 636, 820, 874, 810, 833, 827, 725, 706, 657, 594, 579, 593, 641, 593, 774, 739, 719, 656, 780, 684, 600, 713, 826, 849, 638, 604, 600, 772, 955, 819, 814, 697, 736, 593, 588, 688, 724, 1007, 755, 858, 838, 702, 872, 717, 770, 750, 664, 644, 612, 600, 890, 761, 816, 819, 732, 719, 679, 587, 610, 620, 617, 628, 695, 645, 668, 601, 632, 596, 615, 704, 604, 700, 663, 793, 631, 716, 779, 845, 773, 806, 696, 862, 747, 810, 725, 791, 753, 794, 776, 793, 761, 725, 858, 786, 873, 816, 862, 799, 849, 792, 837, 790, 798, 727, 795, 745, 724, 712, 771, 687, 674, 612, 605, 743, 728, 616, 686, 782, 734, 791, 898, 841, 850, 781, 738, 743, 766, 626, 996, 834, 758, 585],
      "WindowCenter": [296.0, 298.0, 296.0, 297.0, 295.0, 295.0, 296.0, 297.0, 300.0, 296.0, 296.0, 296.0, 295.0, 296.0, 296.0, 299.0, 299.0, 297.0, 295.0, 295.0, 296.0, 296.0, 296.0, 299.0, 299.0, 296.0, 297.0, 294.0, 297.0, 296.0, 296.0, 298.0, 298.0, 298.0, 297.0, 298.0, 298.0, 298.0, 296.0, 296.0, 295.0, 294.0, 295.0, 297.0, 300.0, 298.0, 297.0, 295.0, 298.0, 298.0, 298.0, 297.0, 295.0, 300.0, 300.0, 299.0, 297.0, 299.0, 297.0, 299.0, 299.0, 298.0, 299.0, 297.0, 297.0, 295.0, 294.0, 295.0, 300.0, 296.0, 295.0, 295.0, 297.0, 300.0, 299.0, 297.0, 297.0, 294.0, 295.0, 298.0, 300.0, 298.0, 298.0, 296.0, 295.0, 299.0, 299.0, 298.0, 298.0, 295.0, 294.0, 300.0, 300.0, 298.0, 296.0, 296.0, 295.0, 295.0, 298.0, 299.0, 300.0, 298.0, 298.0, 296.0, 298.0, 296.0, 294.0, 295.0, 295.0, 296.0, 300.0, 297.0, 300.0, 298.0, 299.0, 296.0, 297.0, 299.0, 299.0, 297.0, 298.0, 297.0, 295.0, 294.0, 299.0, 299.0, 300.0, 298.0, 298.0, 296.0, 296.0, 295.0, 296.0, 297.0, 298.0, 298.0, 299.0, 298.0, 299.0, 297.0, 298.0, 297.0, 296.0, 294.0, 295.0, 296.0, 295.0, 297.0, 295.0, 299.0, 299.0, 298.0, 298.0, 298.0, 296.0, 296.0, 295.0, 294.0, 293.0, 295.0, 295.0, 295.0, 298.0, 297.0, 297.0, 296.0, 298.0, 297.0, 295.0, 297.0, 298.0, 298.0, 296.0, 296.0, 296.0, 299.0, 300.0, 299.0, 299.0, 297.0, 298.0, 295.0, 296.0, 297.0, 298.0, 300.0, 298.0, 299.0, 298.0, 297.0, 300.0, 297.0, 298.0, 297.0, 295.0, 295.0, 295.0, 295.0, 298.0, 297.0, 298.0, 298.0, 297.0, 296.0, 296.0, 293.0, 294.0, 294.0, 295.0, 295.0, 297.0, 296.0, 296.0, 294.0, 295.0, 295.0, 295.0, 297.0, 295.0, 296.0, 296.0, 297.0, 295.0, 297.0, 298.0, 298.0, 298.0, 298.0, 296.0, 298.0, 297.0, 298.0, 297.0, 298.0, 298.0, 299.0, 298.0, 298.0, 297.0, 297.0, 299.0, 298.0, 299.0, 298.0, 298.0, 298.0, 298.0, 297.0, 298.0, 297.0, 298.0, 296.0, 298.0, 296.0, 296.0, 296.0, 298.0, 296.0, 297.0, 295.0, 294.0, 297.0, 297.0, 295.0, 297.0, 298.0, 298.0, 299.0, 299.0, 298.0, 298.0, 296.0, 296.0, 296.0, 296.0, 293.0, 297.0, 296.0, 295.0, 292.0],
      "WindowWidth": [647.0, 649.0, 646.0, 648.0, 646.0, 645.0, 646.0, 647.0, 651.0, 647.0, 646.0, 646.0, 645.0, 646.0, 647.0, 650.0, 651.0, 648.0, 645.0, 645.0, 646.0, 647.0, 647.0, 650.0, 650.0, 646.0, 647.0, 643.0, 647.0, 646.0, 646.0, 649.0, 649.0, 649.0, 647.0, 649.0, 649.0, 649.0, 647.0, 645.0, 644.0, 643.0, 644.0, 647.0, 651.0, 648.0, 648.0, 644.0, 649.0, 649.0, 649.0, 647.0, 645.0, 651.0, 651.0, 650.0, 648.0, 650.0, 648.0, 650.0, 650.0, 649.0, 650.0, 647.0, 647.0, 645.0, 644.0, 645.0, 651.0, 646.0, 644.0, 644.0, 648.0, 652.0, 650.0, 648.0, 648.0, 643.0, 644.0, 649.0, 653.0, 649.0, 649.0, 647.0, 645.0, 650.0, 650.0, 649.0, 649.0, 645.0, 644.0, 651.0, 651.0, 649.0, 646.0, 646.0, 644.0, 645.0, 649.0, 651.0, 651.0, 649.0, 648.0, 646.0, 648.0, 646.0, 644.0, 645.0, 645.0, 647.0, 651.0, 648.0, 651.0, 648.0, 650.0, 646.0, 648.0, 650.0, 651.0, 648.0, 650.0, 647.0, 645.0, 643.0, 650.0, 650.0, 651.0, 649.0, 649.0, 646.0, 646.0, 645.0, 646.0, 647.0, 650.0, 650.0, 650.0, 649.0, 650.0, 647.0, 650.0, 647.0, 646.0, 644.0, 645.0, 646.0, 645.0, 648.0, 645.0, 650.0, 650.0, 649.0, 649.0, 648.0, 646.0, 645.0, 645.0, 643.0, 642.0, 644.0, 645.0, 644.0, 649.0, 648.0, 648.0, 645.0, 648.0, 647.0, 645.0, 648.0, 649.0, 649.0, 646.0, 646.0, 646.0, 650.0, 653.0, 650.0, 651.0, 647.0, 649.0, 645.0, 646.0, 648.0, 649.0, 652.0, 649.0, 650.0, 650.0, 647.0, 651.0, 648.0, 649.0, 648.0, 645.0, 645.0, 644.0, 644.0, 649.0, 647.0, 648.0, 648.0, 647.0, 647.0, 646.0, 642.0, 644.0, 644.0, 645.0, 645.0, 647.0, 646.0, 646.0, 643.0, 645.0, 644.0, 645.0, 647.0, 644.0, 647.0, 646.0, 647.0, 645.0, 648.0, 649.0, 649.0, 648.0, 648.0, 647.0, 649.0, 647.0, 649.0, 648.0, 650.0, 649.0, 650.0, 648.0, 648.0, 647.0, 647.0, 650.0, 648.0, 650.0, 649.0, 649.0, 648.0, 648.0, 647.0, 649.0, 648.0, 648.0, 646.0, 648.0, 646.0, 646.0, 646.0, 648.0, 646.0, 647.0, 644.0, 643.0, 647.0, 647.0, 645.0, 647.0, 649.0, 649.0, 650.0, 650.0, 648.0, 648.0, 646.0, 644.0, 646.0, 646.0, 642.0, 647.0, 645.0, 644.0, 640.0]
    },
    "slices": {}
  }
}