{
  "AcquisitionMatrixPE": 96,
  "AcquisitionNumber": 1,
  "AcquisitionTime": "14:03:49.217500",
  "BandwidthPerPixelPhaseEncode": 18.939,
  "BaseResolution": 96,
  "BodyPartExamined": "BRAIN",
  "ConsistencyInfo": "N4_VE11C_LATEST_20160120",
  "ConversionSoftware": "dcm2niix",
  "ConversionSoftwareVersion": "v1.0.20170923 (OpenJPEG build) GCC6.3.0",
  "DerivedVendorReportedEchoSpacing": 0.000550011,
  "DeviceSerialNumber": "66112",
  "DwellTime": 2.3e-06,
  "EchoTime": 0.033,
  "EchoTrainLength": 96,
  "EffectiveEchoSpacing": 0.000550011,
  "FlipAngle": 64,
  "ImageType": [
    "ORIGINAL",
    "PRIMARY",
    "FMRI",
    "NONE",
    "ND",
    "NORM",
    "MOSAIC"
],
  "InstitutionAddress": "Maynard_3_Hanover_NH_US_03755",
  "InstitutionName": "Dartmouth_College_-_PBS",
  "MagneticFieldStrength": 3,
  "Manufacturer": "Siemens",
  "ManufacturersModelName": "Prisma",
  "Modality": "MR",
  "MultibandAccelerationFactor": 4,
  "PartialFourier": 1,
  "PercentPhaseFOV": 100,
  "PhaseEncodingDirection": "j-",
  "PhaseEncodingSteps": 96,
  "PhaseResolution": 1,
  "ProcedureStepDescription": "Gobbini_Matteo_1017_famface-angles",
  "ProtocolName": "func_run-08_task-fam1back",
  "PulseSequenceDetails": "%SiemensSeq%_ep2d_bold",
  "ReceiveCoilActiveElements": "HEA;HEP",
  "ReceiveCoilName": "Head_32",
  "ReconMatrixPE": 96,
  "RepetitionTime": 1.25,
  "ScanOptions": "FS",
  "ScanningSequence": "EP",
  "SequenceName": "_epfid2d1_96",
  "SequenceVariant": "SK",
  "SeriesDescription": "func_run-08_task-fam1back",
  "SliceTiming": [0.88, 0, 0.615, 0.0875, 0.7025, 0.1775, 0.7925, 0.3525, 0.9675, 0.44, 1.055, 0.5275, 1.1425, 0.265, 0.88, 0, 0.615, 0.0875, 0.7025, 0.1775, 0.7925, 0.3525, 0.9675, 0.44, 1.055, 0.5275, 1.1425, 0.265, 0.88, 0, 0.615, 0.0875, 0.7025, 0.1775, 0.7925, 0.3525, 0.9675, 0.44, 1.055, 0.5275, 1.1425, 0.265, 0.88, 0, 0.615, 0.0875, 0.7025, 0.1775, 0.7925, 0.3525, 0.9675, 0.44, 1.055, 0.5275, 1.1425, 0.265],
  "SoftwareVersions": "syngo_MR_E11",
  "StationName": "AWP66112",
  "TaskName": "fam1back",
  "TotalReadoutTime": 0.0522511,
  "dcmmeta_affine": [
    [-2.4999608993530273, 0.01396265346556902, 0.0006559203611686826, 120.99462890625],
    [0.013977774418890476, 2.4978954792022705, 0.1016010120511055, -97.42794036865234],
    [8.79202998476103e-05, -0.10160309076309204, 2.497934579849243, -86.63306427001953],
    [0.0, 0.0, 0.0, 1.0]
],
  "dcmmeta_reorient_transform": [
    [0.0, -1.0, 0.0, 95.0],
    [1.0, 0.0, 0.0, 0.0],
    [0.0, 0.0, 1.0, 0.0],
    [0.0, 0.0, 0.0, 1.0]
],
  "dcmmeta_shape": [96, 96, 56, 280],
  "dcmmeta_slice_dim": 2,
  "dcmmeta_version": 0.6,
  "global": {
    "const": {
      "AccessionNumber": "A000640",
      "AcquisitionMatrix": [96, 0, 0, 96],
      "AngioFlag": "N",
      "BitsAllocated": 16,
      "BitsStored": 12,
      "BodyPartExamined": "BRAIN",
      "Columns": 768,
      "EchoNumbers": 1,
      "EchoTime": 33.0,
      "EchoTrainLength": 96,
      "FlipAngle": 64.0,
      "HighBit": 11,
      "ImageOrientationPatient": [0.9999843690042, -0.0055911099511, 3.516812105e-05, 0.00558506134659, 0.99915819421312, 0.04064123554384],
      "ImagePositionPatient": [-966.99940398648, -974.46848391459, -130.45353758176],
      "ImageType": [
        "ORIGINAL",
        "PRIMARY",
        "FMRI",
        "NONE",
        "ND",
        "NORM",
        "MOSAIC"
],
      "ImagedNucleus": "1H",
      "ImagingFrequency": 123.252313,
      "InPlanePhaseEncodingDirection": "COL",
      "MRAcquisitionType": "2D",
      "MagneticFieldStrength": 3.0,
      "Manufacturer": "SIEMENS",
      "ManufacturerModelName": "Prisma",
      "Modality": "MR",
      "NumberOfAverages": 1.0,
      "NumberOfPhaseEncodingSteps": 96,
      "PercentPhaseFieldOfView": 100.0,
      "PercentSampling": 100.0,
      "PerformedProcedureStepStartTime": "125753.859000",
      "PhotometricInterpretation": "MONOCHROME2",
      "PixelBandwidth": 2265.0,
      "PixelRepresentation": 0,
      "PixelSpacing": [2.5, 2.5],
      "PositionReferenceIndicator": "",
      "ProtocolName": "func_run-08_task-fam1back",
      "RepetitionTime": 1250.0,
      "Rows": 768,
      "SAR": 0.07222446161671,
      "SamplesPerPixel": 1,
      "ScanOptions": "FS",
      "ScanningSequence": "EP",
      "SequenceName": "*epfid2d1_96",
      "SequenceVariant": "SK",
      "SeriesDescription": "func_run-08_task-fam1back",
      "SeriesNumber": 60,
      "SeriesTime": "140350.800000",
      "SliceLocation": -90.489254701413,
      "SliceThickness": 2.5,
      "SmallestImagePixelValue": 0,
      "SoftwareVersions": "syngo MR E11",
      "SpacingBetweenSlices": 2.5000000065041,
      "SpecificCharacterSet": "ISO_IR 100",
      "StudyID": "1",
      "StudyTime": "125753.772000",
      "TransmitCoilName": "Body",
      "VariableFlipAngleFlag": "N",
      "WindowCenterWidthExplanation": "Algo1",
      "dBdt": 0.0},
    "slices": {}
  },
  "time": {
    "samples": {
      "AcquisitionNumber": [1, 2, 3, 4, 5, 6, 7, 8, 9, 10, 11, 12, 13, 14, 15, 16, 17, 18, 19, 20, 21, 22, 23, 24, 25, 26, 27, 28, 29, 30, 31, 32, 33, 34, 35, 36, 37, 38, 39, 40, 41, 42, 43, 44, 45, 46, 47, 48, 49, 50, 51, 52, 53, 54, 55, 56, 57, 58, 59, 60, 61, 62, 63, 64, 65, 66, 67, 68, 69, 70, 71, 72, 73, 74, 75, 76, 77, 78, 79, 80, 81, 82, 83, 84, 85, 86, 87, 88, 89, 90, 91, 92, 93, 94, 95, 96, 97, 98, 99, 100, 101, 102, 103, 104, 105, 106, 107, 108, 109, 110, 111, 112, 113, 114, 115, 116, 117, 118, 119, 120, 121, 122, 123, 124, 125, 126, 127, 128, 129, 130, 131, 132, 133, 134, 135, 136, 137, 138, 139, 140, 141, 142, 143, 144, 145, 146, 147, 148, 149, 150, 151, 152, 153, 154, 155, 156, 157, 158, 159, 160, 161, 162, 163, 164, 165, 166, 167, 168, 169, 170, 171, 172, 173, 174, 175, 176, 177, 178, 179, 180, 181, 182, 183, 184, 185, 186, 187, 188, 189, 190, 191, 192, 193, 194, 195, 196, 197, 198, 199, 200, 201, 202, 203, 204, 205, 206, 207, 208, 209, 210, 211, 212, 213, 214, 215, 216, 217, 218, 219, 220, 221, 222, 223, 224, 225, 226, 227, 228, 229, 230, 231, 232, 233, 234, 235, 236, 237, 238, 239, 240, 241, 242, 243, 244, 245, 246, 247, 248, 249, 250, 251, 252, 253, 254, 255, 256, 257, 258, 259, 260, 261, 262, 263, 264, 265, 266, 267, 268, 269, 270, 271, 272, 273, 274, 275, 276, 277, 278, 279, 280],
      "AcquisitionTime": ["140349.217500", "140350.467500", "140351.717500", "140352.967500", "140354.217500", "140355.467500", "140356.717500", "140357.967500", "140359.217500", "140400.467500", "140401.717500", "140402.967500", "140404.217500", "140405.467500", "140406.717500", "140407.967500", "140409.217500", "140410.467500", "140411.717500", "140412.967500", "140414.217500", "140415.467500", "140416.717500", "140417.967500", "140419.217500", "140420.467500", "140421.717500", "140422.967500", "140424.217500", "140425.467500", "140426.717500", "140427.967500", "140429.217500", "140430.467500", "140431.717500", "140432.967500", "140434.217500", "140435.467500", "140436.717500", "140437.967500", "140439.217500", "140440.467500", "140441.717500", "140442.967500", "140444.217500", "140445.467500", "140446.717500", "140447.967500", "140449.217500", "140450.467500", "140451.717500", "140452.967500", "140454.217500", "140455.467500", "140456.717500", "140457.967500", "140459.217500", "140500.467500", "140501.717500", "140502.967500", "140504.217500", "140505.467500", "140506.717500", "140507.967500", "140509.217500", "140510.467500", "140511.717500", "140512.967500", "140514.217500", "140515.467500", "140516.717500", "140517.967500", "140519.217500", "140520.467500", "140521.717500", "140522.967500", "140524.217500", "140525.467500", "140526.717500", "140527.967500", "140529.217500", "140530.467500", "140531.717500", "140532.967500", "140534.217500", "140535.467500", "140536.717500", "140537.967500", "140539.217500", "140540.467500", "140541.717500", "140542.967500", "140544.217500", "140545.467500", "140546.717500", "140547.967500", "140549.217500", "140550.467500", "140551.717500", "140552.967500", "140554.217500", "140555.467500", "140556.717500", "140557.967500", "140559.217500", "140600.467500", "140601.717500", "140602.967500", "140604.217500", "140605.467500", "140606.717500", "140607.967500", "140609.217500", "140610.467500", "140611.717500", "140612.967500", "140614.217500", "140615.467500", "140616.717500", "140617.967500", "140619.217500", "140620.467500", "140621.717500", "140622.967500", "140624.217500", "140625.467500", "140626.717500", "140627.967500", "140629.217500", "140630.467500", "140631.717500", "140632.967500", "140634.217500", "140635.467500", "140636.717500", "140637.967500", "140639.217500", "140640.467500", "140641.717500", "140642.967500", "140644.217500", "140645.467500", "140646.717500", "140647.967500", "140649.217500", "140650.467500", "140651.717500", "140652.967500", "140654.217500", "140655.467500", "140656.717500", "140657.967500", "140659.217500", "140700.467500", "140701.717500", "140702.967500", "140704.217500", "140705.467500", "140706.717500", "140707.967500", "140709.217500", "140710.467500", "140711.717500", "140712.967500", "140714.217500", "140715.467500", "140716.717500", "140717.967500", "140719.217500", "140720.467500", "140721.717500", "140722.967500", "140724.217500", "140725.467500", "140726.717500", "140727.967500", "140729.217500", "140730.467500", "140731.717500", "140732.967500", "140734.217500", "140735.467500", "140736.717500", "140737.967500", "140739.217500", "140740.467500", "140741.717500", "140742.967500", "140744.217500", "140745.467500", "140746.717500", "140747.967500", "140749.217500", "140750.467500", "140751.717500", "140752.967500", "140754.217500", "140755.467500", "140756.717500", "140757.967500", "140759.217500", "140800.467500", "140801.717500", "140802.967500", "140804.217500", "140805.467500", "140806.717500", "140807.967500", "140809.217500", "140810.467500", "140811.717500", "140812.967500", "140814.217500", "140815.467500", "140816.717500", "140817.967500", "140819.217500", "140820.467500", "140821.717500", "140822.967500", "140824.217500", "140825.467500", "140826.717500", "140827.967500", "140829.217500", "140830.467500", "140831.717500", "140832.967500", "140834.217500", "140835.467500", "140836.717500", "140837.967500", "140839.217500", "140840.467500", "140841.717500", "140842.967500", "140844.217500", "140845.467500", "140846.717500", "140847.967500", "140849.217500", "140850.467500", "140851.717500", "140852.967500", "140854.217500", "140855.467500", "140856.717500", "140857.967500", "140859.217500", "140900.467500", "140901.717500", "140902.967500", "140904.217500", "140905.467500", "140906.717500", "140907.967500", "140909.217500", "140910.467500", "140911.717500", "140912.967500", "140914.217500", "140915.467500", "140916.717500", "140917.967500", "140919.217500", "140920.467500", "140921.717500", "140922.967500", "140924.217500", "140925.467500", "140926.717500", "140927.967500", "140929.217500", "140930.467500", "140931.717500", "140932.967500", "140934.217500", "140935.467500", "140936.717500", "140937.967500"],
      "ContentTime": ["140350.804000", "140351.892000", "140353.137000", "140354.383000", "140355.662000", "140356.922000", "140358.136000", "140359.371000", "140400.644000", "140401.903000", "140403.129000", "140404.375000", "140405.640000", "140406.884000", "140408.144000", "140409.403000", "140410.660000", "140411.935000", "140413.182000", "140414.402000", "140415.701000", "140416.910000", "140418.161000", "140419.400000", "140420.645000", "140421.925000", "140423.146000", "140424.398000", "140425.647000", "140426.868000", "140428.135000", "140429.373000", "140430.636000", "140431.861000", "140433.117000", "140434.385000", "140435.636000", "140436.886000", "140438.143000", "140439.449000", "140440.648000", "140441.868000", "140443.160000", "140444.389000", "140445.640000", "140446.898000", "140448.130000", "140449.387000", "140450.631000", "140451.891000", "140453.128000", "140454.380000", "140455.644000", "140456.899000", "140458.142000", "140459.374000", "140500.645000", "140501.860000", "140503.134000", "140504.388000", "140505.637000", "140506.877000", "140508.142000", "140509.399000", "140510.665000", "140511.899000", "140513.178000", "140514.379000", "140515.633000", "140516.890000", "140518.150000", "140519.402000", "140520.641000", "140521.878000", "140523.132000", "140524.393000", "140525.631000", "140526.886000", "140528.190000", "140529.381000", "140530.639000", "140531.916000", "140533.125000", "140534.388000", "140535.622000", "140536.861000", "140538.143000", "140539.369000", "140540.651000", "140541.878000", "140543.097000", "140544.378000", "140545.609000", "140546.862000", "140548.116000", "140549.406000", "140550.639000", "140551.869000", "140553.207000", "140554.395000", "140555.607000", "140556.958000", "140558.129000", "140559.378000", "140600.702000", "140601.917000", "140603.148000", "140604.387000", "140605.646000", "140606.877000", "140608.132000", "140609.430000", "140610.622000", "140611.938000", "140613.159000", "140614.416000", "140615.658000", "140616.888000", "140618.120000", "140619.381000", "140620.647000", "140621.896000", "140623.139000", "140624.414000", "140625.625000", "140626.878000", "140628.181000", "140629.381000", "140630.635000", "140631.889000", "140633.135000", "140634.395000", "140635.623000", "140636.908000", "140638.145000", "140639.391000", "140640.671000", "140641.907000", "140643.159000", "140644.435000", "140645.622000", "140646.878000", "140648.136000", "140649.406000", "140650.643000", "140651.986000", "140653.184000", "140654.383000", "140655.651000", "140656.922000", "140658.160000", "140659.395000", "140700.631000", "140701.878000", "140703.141000", "140704.351000", "140705.633000", "140706.898000", "140708.135000", "140709.387000", "140710.646000", "140711.879000", "140713.128000", "140714.438000", "140715.637000", "140716.879000", "140718.152000", "140719.384000", "140720.628000", "140721.935000", "140723.174000", "140724.403000", "140725.666000", "140726.909000", "140728.177000", "140729.428000", "140730.646000", "140731.912000", "140733.157000", "140734.405000", "140735.640000", "140736.897000", "140738.139000", "140739.406000", "140740.645000", "140741.926000", "140743.215000", "140744.340000", "140745.638000", "140746.926000", "140748.145000", "140749.424000", "140750.687000", "140751.939000", "140753.147000", "140754.432000", "140755.675000", "140756.896000", "140758.145000", "140759.375000", "140800.628000", "140801.884000", "140803.161000", "140804.373000", "140805.673000", "140806.861000", "140808.158000", "140809.404000", "140810.646000", "140811.909000", "140813.116000", "140814.371000", "140815.611000", "140816.889000", "140818.129000", "140819.440000", "140820.645000", "140821.922000", "140823.135000", "140824.366000", "140825.639000", "140826.910000", "140828.151000", "140829.392000", "140830.645000", "140831.892000", "140833.152000", "140834.459000", "140835.665000", "140836.917000", "140838.170000", "140839.442000", "140840.645000", "140841.896000", "140843.134000", "140844.361000", "140845.653000", "140846.884000", "140848.149000", "140849.371000", "140850.634000", "140851.895000", "140853.138000", "140854.386000", "140855.671000", "140856.891000", "140858.114000", "140859.401000", "140900.626000", "140901.880000", "140903.189000", "140904.438000", "140905.620000", "140906.893000", "140908.120000", "140909.383000", "140910.645000", "140911.887000", "140913.139000", "140914.390000", "140915.648000", "140916.888000", "140918.103000", "140919.382000", "140920.643000", "140921.909000", "140923.124000", "140924.406000", "140925.640000", "140926.894000", "140928.114000", "140929.400000", "140930.648000", "140931.939000", "140933.124000", "140934.400000", "140935.616000", "140936.881000", "140938.152000", "140939.457000"],
      "InstanceCreationTime": ["140350.804000", "140351.892000", "140353.137000", "140354.383000", "140355.662000", "140356.922000", "140358.136000", "140359.371000", "140400.644000", "140401.903000", "140403.129000", "140404.375000", "140405.640000", "140406.884000", "140408.144000", "140409.403000", "140410.660000", "140411.935000", "140413.182000", "140414.402000", "140415.701000", "140416.910000", "140418.161000", "140419.400000", "140420.645000", "140421.925000", "140423.146000", "140424.398000", "140425.647000", "140426.868000", "140428.135000", "140429.373000", "140430.636000", "140431.861000", "140433.117000", "140434.385000", "140435.636000", "140436.886000", "140438.143000", "140439.449000", "140440.648000", "140441.868000", "140443.160000", "140444.389000", "140445.640000", "140446.898000", "140448.130000", "140449.387000", "140450.631000", "140451.891000", "140453.128000", "140454.380000", "140455.644000", "140456.899000", "140458.142000", "140459.374000", "140500.645000", "140501.860000", "140503.134000", "140504.388000", "140505.637000", "140506.877000", "140508.142000", "140509.399000", "140510.665000", "140511.899000", "140513.178000", "140514.379000", "140515.633000", "140516.890000", "140518.150000", "140519.402000", "140520.641000", "140521.878000", "140523.132000", "140524.393000", "140525.631000", "140526.886000", "140528.190000", "140529.381000", "140530.639000", "140531.916000", "140533.125000", "140534.388000", "140535.622000", "140536.861000", "140538.143000", "140539.369000", "140540.651000", "140541.878000", "140543.097000", "140544.378000", "140545.609000", "140546.862000", "140548.116000", "140549.406000", "140550.639000", "140551.869000", "140553.207000", "140554.395000", "140555.607000", "140556.958000", "140558.129000", "140559.378000", "140600.702000", "140601.917000", "140603.148000", "140604.387000", "140605.646000", "140606.877000", "140608.132000", "140609.430000", "140610.622000", "140611.938000", "140613.159000", "140614.416000", "140615.658000", "140616.888000", "140618.120000", "140619.381000", "140620.647000", "140621.896000", "140623.139000", "140624.414000", "140625.625000", "140626.878000", "140628.181000", "140629.381000", "140630.635000", "140631.889000", "140633.135000", "140634.395000", "140635.623000", "140636.908000", "140638.145000", "140639.391000", "140640.671000", "140641.907000", "140643.159000", "140644.435000", "140645.622000", "140646.878000", "140648.136000", "140649.406000", "140650.643000", "140651.986000", "140653.184000", "140654.383000", "140655.651000", "140656.922000", "140658.160000", "140659.395000", "140700.631000", "140701.878000", "140703.141000", "140704.351000", "140705.633000", "140706.898000", "140708.135000", "140709.387000", "140710.646000", "140711.879000", "140713.128000", "140714.438000", "140715.637000", "140716.879000", "140718.152000", "140719.384000", "140720.628000", "140721.935000", "140723.174000", "140724.403000", "140725.666000", "140726.909000", "140728.177000", "140729.428000", "140730.646000", "140731.912000", "140733.157000", "140734.405000", "140735.640000", "140736.897000", "140738.139000", "140739.406000", "140740.645000", "140741.926000", "140743.215000", "140744.340000", "140745.638000", "140746.926000", "140748.145000", "140749.424000", "140750.687000", "140751.939000", "140753.147000", "140754.432000", "140755.675000", "140756.896000", "140758.145000", "140759.375000", "140800.628000", "140801.884000", "140803.161000", "140804.373000", "140805.673000", "140806.861000", "140808.158000", "140809.404000", "140810.646000", "140811.909000", "140813.116000", "140814.371000", "140815.611000", "140816.889000", "140818.129000", "140819.440000", "140820.645000", "140821.922000", "140823.135000", "140824.366000", "140825.639000", "140826.910000", "140828.151000", "140829.392000", "140830.645000", "140831.892000", "140833.152000", "140834.459000", "140835.665000", "140836.917000", "140838.170000", "140839.442000", "140840.645000", "140841.896000", "140843.134000", "140844.361000", "140845.653000", "140846.884000", "140848.149000", "140849.371000", "140850.634000", "140851.895000", "140853.138000", "140854.386000", "140855.671000", "140856.891000", "140858.114000", "140859.401000", "140900.626000", "140901.880000", "140903.189000", "140904.438000", "140905.620000", "140906.893000", "140908.120000", "140909.383000", "140910.645000", "140911.887000", "140913.139000", "140914.390000", "140915.648000", "140916.888000", "140918.103000", "140919.382000", "140920.643000", "140921.909000", "140923.124000", "140924.406000", "140925.640000", "140926.894000", "140928.114000", "140929.400000", "140930.648000", "140931.939000", "140933.124000", "140934.400000", "140935.616000", "140936.881000", "140938.152000", "140939.457000"],
      "InstanceNumber": [1, 2, 3, 4, 5, 6, 7, 8, 9, 10, 11, 12, 13, 14, 15, 16, 17, 18, 19, 20, 21, 22, 23, 24, 25, 26, 27, 28, 29, 30, 31, 32, 33, 34, 35, 36, 37, 38, 39, 40, 41, 42, 43, 44, 45, 46, 47, 48, 49, 50, 51, 52, 53, 54, 55, 56, 57, 58, 59, 60, 61, 62, 63, 64, 65, 66, 67, 68, 69, 70, 71, 72, 73, 74, 75, 76, 77, 78, 79, 80, 81, 82, 83, 84, 85, 86, 87, 88, 89, 90, 91, 92, 93, 94, 95, 96, 97, 98, 99, 100, 101, 102, 103, 104, 105, 106, 107, 108, 109, 110, 111, 112, 113, 114, 115, 116, 117, 118, 119, 120, 121, 122, 123, 124, 125, 126, 127, 128, 129, 130, 131, 132, 133, 134, 135, 136, 137, 138, 139, 140, 141, 142, 143, 144, 145, 146, 147, 148, 149, 150, 151, 152, 153, 154, 155, 156, 157, 158, 159, 160, 161, 162, 163, 164, 165, 166, 167, 168, 169, 170, 171, 172, 173, 174, 175, 176, 177, 178, 179, 180, 181, 182, 183, 184, 185, 186, 187, 188, 189, 190, 191, 192, 193, 194, 195, 196, 197, 198, 199, 200, 201, 202, 203, 204, 205, 206, 207, 208, 209, 210, 211, 212, 213, 214, 215, 216, 217, 218, 219, 220, 221, 222, 223, 224, 225, 226, 227, 228, 229, 230, 231, 232, 233, 234, 235, 236, 237, 238, 239, 240, 241, 242, 243, 244, 245, 246, 247, 248, 249, 250, 251, 252, 253, 254, 255, 256, 257, 258, 259, 260, 261, 262, 263, 264, 265, 266, 267, 268, 269, 270, 271, 272, 273, 274, 275, 276, 277, 278, 279, 280],
      "LargestImagePixelValue": [888, 928, 1010, 860, 740, 1122, 822, 854, 812, 788, 1069, 834, 822, 735, 1038, 917, 850, 766, 808, 1010, 837, 840, 651, 1013, 842, 859, 665, 762, 1213, 862, 754, 992, 945, 774, 749, 915, 1030, 786, 770, 1097, 980, 791, 775, 733, 980, 944, 856, 767, 794, 792, 972, 931, 804, 850, 742, 1044, 870, 838, 762, 803, 894, 920, 995, 838, 807, 796, 746, 872, 993, 837, 791, 738, 864, 949, 770, 761, 760, 905, 914, 797, 790, 886, 1071, 830, 839, 785, 781, 769, 811, 1016, 922, 777, 864, 737, 763, 743, 763, 982, 837, 828, 784, 833, 655, 871, 1054, 1017, 769, 829, 749, 812, 679, 747, 903, 869, 860, 730, 830, 796, 751, 824, 738, 785, 743, 849, 858, 949, 1051, 783, 822, 834, 767, 849, 1048, 733, 994, 720, 763, 770, 707, 775, 752, 936, 829, 667, 749, 1052, 798, 760, 764, 969, 680, 776, 735, 1093, 763, 742, 771, 747, 832, 947, 899, 726, 819, 658, 721, 808, 776, 935, 978, 839, 842, 711, 820, 825, 798, 878, 854, 922, 832, 762, 843, 841, 769, 959, 857, 778, 859, 758, 740, 855, 1026, 833, 699, 702, 1066, 716, 759, 1017, 734, 1013, 913, 697, 773, 1065, 810, 762, 806, 939, 987, 835, 845, 828, 860, 1047, 776, 821, 752, 768, 1085, 779, 822, 688, 1164, 792, 796, 847, 1047, 864, 718, 765, 792, 1063, 829, 758, 897, 1006, 819, 736, 1033, 831, 844, 665, 793, 996, 945, 767, 827, 747, 773, 956, 1045, 845, 705, 808, 839, 979, 889, 768, 767, 750, 957, 918, 757, 733, 842, 842, 685, 957, 869, 893, 905, 822, 1108, 823, 873, 970, 793, 721, 714, 755],
      "WindowCenter": [301.0, 299.0, 300.0, 299.0, 297.0, 301.0, 298.0, 299.0, 298.0, 298.0, 301.0, 298.0, 298.0, 297.0, 300.0, 299.0, 299.0, 298.0, 298.0, 301.0, 299.0, 300.0, 296.0, 301.0, 299.0, 299.0, 297.0, 298.0, 303.0, 299.0, 298.0, 300.0, 300.0, 298.0, 298.0, 300.0, 301.0, 298.0, 298.0, 301.0, 300.0, 297.0, 298.0, 297.0, 300.0, 300.0, 300.0, 298.0, 298.0, 298.0, 300.0, 300.0, 298.0, 299.0, 297.0, 301.0, 299.0, 299.0, 298.0, 298.0, 299.0, 299.0, 300.0, 298.0, 298.0, 297.0, 296.0, 298.0, 300.0, 298.0, 298.0, 297.0, 298.0, 299.0, 297.0, 297.0, 298.0, 299.0, 299.0, 298.0, 298.0, 299.0, 301.0, 299.0, 299.0, 298.0, 298.0, 297.0, 299.0, 300.0, 299.0, 298.0, 299.0, 297.0, 298.0, 297.0, 297.0, 301.0, 299.0, 299.0, 298.0, 299.0, 295.0, 299.0, 300.0, 300.0, 297.0, 297.0, 297.0, 298.0, 296.0, 297.0, 299.0, 298.0, 298.0, 296.0, 298.0, 298.0, 298.0, 298.0, 297.0, 298.0, 297.0, 298.0, 298.0, 299.0, 300.0, 297.0, 298.0, 298.0, 297.0, 297.0, 298.0, 294.0, 297.0, 295.0, 295.0, 296.0, 296.0, 298.0, 298.0, 300.0, 299.0, 297.0, 297.0, 301.0, 298.0, 298.0, 298.0, 300.0, 296.0, 298.0, 298.0, 301.0, 298.0, 297.0, 298.0, 298.0, 299.0, 300.0, 299.0, 297.0, 299.0, 296.0, 297.0, 298.0, 297.0, 300.0, 300.0, 298.0, 299.0, 296.0, 298.0, 298.0, 298.0, 299.0, 299.0, 299.0, 299.0, 298.0, 298.0, 298.0, 297.0, 299.0, 298.0, 297.0, 299.0, 298.0, 297.0, 298.0, 300.0, 298.0, 296.0, 296.0, 301.0, 297.0, 297.0, 300.0, 297.0, 300.0, 299.0, 296.0, 297.0, 301.0, 298.0, 298.0, 298.0, 299.0, 299.0, 298.0, 298.0, 298.0, 298.0, 299.0, 297.0, 297.0, 298.0, 296.0, 301.0, 297.0, 298.0, 296.0, 301.0, 297.0, 297.0, 298.0, 299.0, 298.0, 296.0, 297.0, 298.0, 301.0, 298.0, 297.0, 299.0, 299.0, 298.0, 296.0, 300.0, 298.0, 299.0, 297.0, 298.0, 300.0, 300.0, 298.0, 298.0, 297.0, 297.0, 299.0, 300.0, 299.0, 296.0, 298.0, 298.0, 299.0, 299.0, 297.0, 298.0, 296.0, 299.0, 299.0, 297.0, 297.0, 298.0, 298.0, 296.0, 300.0, 299.0, 299.0, 298.0, 296.0, 298.0, 295.0, 296.0, 297.0, 295.0, 294.0, 295.0, 297.0],
      "WindowWidth": [654.0, 652.0, 652.0, 650.0, 648.0, 653.0, 649.0, 650.0, 649.0, 649.0, 653.0, 649.0, 649.0, 647.0, 652.0, 650.0, 650.0, 648.0, 649.0, 653.0, 651.0, 651.0, 647.0, 654.0, 651.0, 651.0, 647.0, 649.0, 656.0, 651.0, 649.0, 652.0, 652.0, 649.0, 649.0, 651.0, 654.0, 649.0, 649.0, 653.0, 652.0, 648.0, 648.0, 647.0, 652.0, 652.0, 651.0, 649.0, 648.0, 648.0, 651.0, 652.0, 649.0, 650.0, 648.0, 653.0, 650.0, 650.0, 648.0, 649.0, 650.0, 651.0, 652.0, 648.0, 649.0, 647.0, 646.0, 649.0, 652.0, 649.0, 648.0, 647.0, 649.0, 649.0, 648.0, 648.0, 649.0, 651.0, 651.0, 649.0, 649.0, 650.0, 653.0, 650.0, 650.0, 650.0, 650.0, 648.0, 651.0, 652.0, 651.0, 648.0, 650.0, 648.0, 648.0, 647.0, 648.0, 653.0, 650.0, 650.0, 649.0, 650.0, 644.0, 650.0, 651.0, 651.0, 647.0, 648.0, 647.0, 649.0, 645.0, 647.0, 649.0, 649.0, 649.0, 646.0, 648.0, 649.0, 648.0, 649.0, 647.0, 648.0, 647.0, 649.0, 649.0, 651.0, 652.0, 648.0, 649.0, 649.0, 647.0, 646.0, 648.0, 641.0, 646.0, 643.0, 644.0, 646.0, 647.0, 649.0, 650.0, 651.0, 650.0, 648.0, 648.0, 653.0, 649.0, 649.0, 649.0, 652.0, 647.0, 650.0, 649.0, 654.0, 649.0, 648.0, 650.0, 649.0, 651.0, 651.0, 651.0, 647.0, 651.0, 646.0, 648.0, 650.0, 648.0, 651.0, 652.0, 649.0, 650.0, 647.0, 648.0, 649.0, 648.0, 651.0, 650.0, 651.0, 650.0, 649.0, 649.0, 649.0, 647.0, 649.0, 649.0, 647.0, 650.0, 649.0, 648.0, 649.0, 652.0, 649.0, 647.0, 646.0, 653.0, 648.0, 647.0, 652.0, 647.0, 652.0, 651.0, 647.0, 648.0, 652.0, 649.0, 649.0, 650.0, 650.0, 650.0, 649.0, 648.0, 649.0, 648.0, 650.0, 646.0, 647.0, 648.0, 646.0, 652.0, 647.0, 649.0, 646.0, 652.0, 648.0, 647.0, 649.0, 650.0, 649.0, 646.0, 647.0, 649.0, 653.0, 649.0, 647.0, 650.0, 651.0, 649.0, 646.0, 652.0, 648.0, 651.0, 647.0, 649.0, 652.0, 652.0, 649.0, 650.0, 647.0, 647.0, 651.0, 651.0, 650.0, 647.0, 649.0, 649.0, 651.0, 650.0, 647.0, 648.0, 646.0, 651.0, 650.0, 647.0, 647.0, 648.0, 649.0, 646.0, 652.0, 650.0, 650.0, 648.0, 645.0, 648.0, 643.0, 645.0, 646.0, 644.0, 643.0, 644.0, 647.0]
    },
    "slices": {}
  }
}