{
  "AcquisitionMatrixPE": 96,
  "AcquisitionNumber": 1,
  "AcquisitionTime": "13:36:52.187500",
  "BandwidthPerPixelPhaseEncode": 18.939,
  "BaseResolution": 96,
  "BodyPartExamined": "BRAIN",
  "ConsistencyInfo": "N4_VE11C_LATEST_20160120",
  "ConversionSoftware": "dcm2niix",
  "ConversionSoftwareVersion": "v1.0.20170923 (OpenJPEG build) GCC6.3.0",
  "DerivedVendorReportedEchoSpacing": 0.000550011,
  "DeviceSerialNumber": "66112",
  "DwellTime": 2.3e-06,
  "EchoTime": 0.033,
  "EchoTrainLength": 96,
  "EffectiveEchoSpacing": 0.000550011,
  "FlipAngle": 64,
  "ImageType": [
    "ORIGINAL",
    "PRIMARY",
    "FMRI",
    "NONE",
    "ND",
    "NORM",
    "MOSAIC"
],
  "InstitutionAddress": "Maynard_3_Hanover_NH_US_03755",
  "InstitutionName": "Dartmouth_College_-_PBS",
  "MagneticFieldStrength": 3,
  "Manufacturer": "Siemens",
  "ManufacturersModelName": "Prisma",
  "Modality": "MR",
  "MultibandAccelerationFactor": 4,
  "PartialFourier": 1,
  "PercentPhaseFOV": 100,
  "PhaseEncodingDirection": "j-",
  "PhaseEncodingSteps": 96,
  "PhaseResolution": 1,
  "ProcedureStepDescription": "Gobbini_Matteo_1017_famface-angles",
  "ProtocolName": "func_run-04_task-str1back",
  "PulseSequenceDetails": "%SiemensSeq%_ep2d_bold",
  "ReceiveCoilActiveElements": "HEA;HEP",
  "ReceiveCoilName": "Head_32",
  "ReconMatrixPE": 96,
  "RepetitionTime": 1.25,
  "ScanOptions": "FS",
  "ScanningSequence": "EP",
  "SequenceName": "_epfid2d1_96",
  "SequenceVariant": "SK",
  "SeriesDescription": "func_run-04_task-str1back",
  "SliceTiming": [0.88, 0, 0.615, 0.0875, 0.7025, 0.175, 0.79, 0.3525, 0.9675, 0.44, 1.055, 0.5275, 1.1425, 0.265, 0.88, 0, 0.615, 0.0875, 0.7025, 0.175, 0.79, 0.3525, 0.9675, 0.44, 1.055, 0.5275, 1.1425, 0.265, 0.88, 0, 0.615, 0.0875, 0.7025, 0.175, 0.79, 0.3525, 0.9675, 0.44, 1.055, 0.5275, 1.1425, 0.265, 0.88, 0, 0.615, 0.0875, 0.7025, 0.175, 0.79, 0.3525, 0.9675, 0.44, 1.055, 0.5275, 1.1425, 0.265],
  "SoftwareVersions": "syngo_MR_E11",
  "StationName": "AWP66112",
  "TaskName": "str1back",
  "TotalReadoutTime": 0.0522511,
  "dcmmeta_affine": [
    [-2.4999608993530273, 0.01396265346556902, 0.0006559203611686826, 120.99462890625],
    [0.013977774418890476, 2.4978954792022705, 0.1016010120511055, -97.42794036865234],
    [8.79202998476103e-05, -0.10160309076309204, 2.497934579849243, -86.63306427001953],
    [0.0, 0.0, 0.0, 1.0]
],
  "dcmmeta_reorient_transform": [
    [0.0, -1.0, 0.0, 95.0],
    [1.0, 0.0, 0.0, 0.0],
    [0.0, 0.0, 1.0, 0.0],
    [0.0, 0.0, 0.0, 1.0]
],
  "dcmmeta_shape": [96, 96, 56, 280],
  "dcmmeta_slice_dim": 2,
  "dcmmeta_version": 0.6,
  "global": {
    "const": {
      "AccessionNumber": "A000640",
      "AcquisitionMatrix": [96, 0, 0, 96],
      "AngioFlag": "N",
      "BitsAllocated": 16,
      "BitsStored": 12,
      "BodyPartExamined": "BRAIN",
      "Columns": 768,
      "EchoNumbers": 1,
      "EchoTime": 33.0,
      "EchoTrainLength": 96,
      "FlipAngle": 64.0,
      "HighBit": 11,
      "ImageOrientationPatient": [0.9999843690042, -0.0055911099511, 3.516812105e-05, 0.00558506134659, 0.99915819421312, 0.04064123554384],
      "ImagePositionPatient": [-966.99940398648, -974.46848391459, -130.45353758176],
      "ImageType": [
        "ORIGINAL",
        "PRIMARY",
        "FMRI",
        "NONE",
        "ND",
        "NORM",
        "MOSAIC"
],
      "ImagedNucleus": "1H",
      "ImagingFrequency": 123.252309,
      "InPlanePhaseEncodingDirection": "COL",
      "MRAcquisitionType": "2D",
      "MagneticFieldStrength": 3.0,
      "Manufacturer": "SIEMENS",
      "ManufacturerModelName": "Prisma",
      "Modality": "MR",
      "NumberOfAverages": 1.0,
      "NumberOfPhaseEncodingSteps": 96,
      "PercentPhaseFieldOfView": 100.0,
      "PercentSampling": 100.0,
      "PerformedProcedureStepStartTime": "125753.859000",
      "PhotometricInterpretation": "MONOCHROME2",
      "PixelBandwidth": 2265.0,
      "PixelRepresentation": 0,
      "PixelSpacing": [2.5, 2.5],
      "PositionReferenceIndicator": "",
      "ProtocolName": "func_run-04_task-str1back",
      "RepetitionTime": 1250.0,
      "Rows": 768,
      "SAR": 0.07222446161671,
      "SamplesPerPixel": 1,
      "ScanOptions": "FS",
      "ScanningSequence": "EP",
      "SequenceName": "*epfid2d1_96",
      "SequenceVariant": "SK",
      "SeriesDescription": "func_run-04_task-str1back",
      "SeriesNumber": 32,
      "SeriesTime": "133653.287000",
      "SliceLocation": -90.489254701413,
      "SliceThickness": 2.5,
      "SmallestImagePixelValue": 0,
      "SoftwareVersions": "syngo MR E11",
      "SpacingBetweenSlices": 2.5000000065041,
      "SpecificCharacterSet": "ISO_IR 100",
      "StudyID": "1",
      "StudyTime": "125753.772000",
      "TransmitCoilName": "Body",
      "VariableFlipAngleFlag": "N",
      "WindowCenterWidthExplanation": "Algo1",
      "dBdt": 0.0},
    "slices": {}
  },
  "time": {
    "samples": {
      "AcquisitionNumber": [1, 2, 3, 4, 5, 6, 7, 8, 9, 10, 11, 12, 13, 14, 15, 16, 17, 18, 19, 20, 21, 22, 23, 24, 25, 26, 27, 28, 29, 30, 31, 32, 33, 34, 35, 36, 37, 38, 39, 40, 41, 42, 43, 44, 45, 46, 47, 48, 49, 50, 51, 52, 53, 54, 55, 56, 57, 58, 59, 60, 61, 62, 63, 64, 65, 66, 67, 68, 69, 70, 71, 72, 73, 74, 75, 76, 77, 78, 79, 80, 81, 82, 83, 84, 85, 86, 87, 88, 89, 90, 91, 92, 93, 94, 95, 96, 97, 98, 99, 100, 101, 102, 103, 104, 105, 106, 107, 108, 109, 110, 111, 112, 113, 114, 115, 116, 117, 118, 119, 120, 121, 122, 123, 124, 125, 126, 127, 128, 129, 130, 131, 132, 133, 134, 135, 136, 137, 138, 139, 140, 141, 142, 143, 144, 145, 146, 147, 148, 149, 150, 151, 152, 153, 154, 155, 156, 157, 158, 159, 160, 161, 162, 163, 164, 165, 166, 167, 168, 169, 170, 171, 172, 173, 174, 175, 176, 177, 178, 179, 180, 181, 182, 183, 184, 185, 186, 187, 188, 189, 190, 191, 192, 193, 194, 195, 196, 197, 198, 199, 200, 201, 202, 203, 204, 205, 206, 207, 208, 209, 210, 211, 212, 213, 214, 215, 216, 217, 218, 219, 220, 221, 222, 223, 224, 225, 226, 227, 228, 229, 230, 231, 232, 233, 234, 235, 236, 237, 238, 239, 240, 241, 242, 243, 244, 245, 246, 247, 248, 249, 250, 251, 252, 253, 254, 255, 256, 257, 258, 259, 260, 261, 262, 263, 264, 265, 266, 267, 268, 269, 270, 271, 272, 273, 274, 275, 276, 277, 278, 279, 280],
      "AcquisitionTime": ["133652.187500", "133653.437500", "133654.687500", "133655.937500", "133657.187500", "133658.437500", "133659.687500", "133700.937500", "133702.187500", "133703.437500", "133704.687500", "133705.937500", "133707.187500", "133708.437500", "133709.687500", "133710.937500", "133712.187500", "133713.437500", "133714.687500", "133715.937500", "133717.187500", "133718.437500", "133719.687500", "133720.937500", "133722.187500", "133723.437500", "133724.687500", "133725.937500", "133727.187500", "133728.437500", "133729.687500", "133730.937500", "133732.187500", "133733.437500", "133734.687500", "133735.937500", "133737.187500", "133738.437500", "133739.687500", "133740.937500", "133742.187500", "133743.437500", "133744.687500", "133745.937500", "133747.187500", "133748.437500", "133749.687500", "133750.937500", "133752.187500", "133753.437500", "133754.687500", "133755.937500", "133757.187500", "133758.437500", "133759.687500", "133800.937500", "133802.187500", "133803.437500", "133804.687500", "133805.937500", "133807.187500", "133808.437500", "133809.687500", "133810.937500", "133812.187500", "133813.437500", "133814.687500", "133815.937500", "133817.187500", "133818.437500", "133819.687500", "133820.937500", "133822.187500", "133823.437500", "133824.687500", "133825.937500", "133827.187500", "133828.437500", "133829.687500", "133830.937500", "133832.187500", "133833.437500", "133834.687500", "133835.937500", "133837.187500", "133838.437500", "133839.687500", "133840.937500", "133842.187500", "133843.437500", "133844.687500", "133845.937500", "133847.187500", "133848.437500", "133849.687500", "133850.937500", "133852.187500", "133853.437500", "133854.687500", "133855.937500", "133857.187500", "133858.437500", "133859.687500", "133900.937500", "133902.187500", "133903.437500", "133904.687500", "133905.937500", "133907.187500", "133908.437500", "133909.687500", "133910.937500", "133912.187500", "133913.437500", "133914.687500", "133915.937500", "133917.187500", "133918.437500", "133919.687500", "133920.937500", "133922.187500", "133923.437500", "133924.687500", "133925.937500", "133927.187500", "133928.437500", "133929.687500", "133930.937500", "133932.187500", "133933.437500", "133934.687500", "133935.937500", "133937.187500", "133938.437500", "133939.687500", "133940.937500", "133942.187500", "133943.437500", "133944.687500", "133945.937500", "133947.187500", "133948.437500", "133949.687500", "133950.937500", "133952.187500", "133953.437500", "133954.687500", "133955.937500", "133957.187500", "133958.437500", "133959.687500", "134000.937500", "134002.187500", "134003.437500", "134004.687500", "134005.937500", "134007.187500", "134008.437500", "134009.687500", "134010.937500", "134012.187500", "134013.437500", "134014.687500", "134015.937500", "134017.187500", "134018.437500", "134019.687500", "134020.937500", "134022.187500", "134023.437500", "134024.687500", "134025.937500", "134027.187500", "134028.437500", "134029.687500", "134030.937500", "134032.187500", "134033.437500", "134034.687500", "134035.937500", "134037.187500", "134038.437500", "134039.687500", "134040.937500", "134042.187500", "134043.437500", "134044.687500", "134045.937500", "134047.187500", "134048.437500", "134049.687500", "134050.937500", "134052.187500", "134053.437500", "134054.687500", "134055.937500", "134057.187500", "134058.437500", "134059.687500", "134100.937500", "134102.187500", "134103.437500", "134104.687500", "134105.937500", "134107.187500", "134108.437500", "134109.687500", "134110.937500", "134112.187500", "134113.437500", "134114.687500", "134115.937500", "134117.187500", "134118.437500", "134119.687500", "134120.937500", "134122.187500", "134123.437500", "134124.687500", "134125.937500", "134127.187500", "134128.437500", "134129.687500", "134130.937500", "134132.187500", "134133.437500", "134134.687500", "134135.937500", "134137.187500", "134138.437500", "134139.687500", "134140.937500", "134142.187500", "134143.437500", "134144.687500", "134145.937500", "134147.187500", "134148.437500", "134149.687500", "134150.937500", "134152.187500", "134153.437500", "134154.687500", "134155.937500", "134157.187500", "134158.437500", "134159.687500", "134200.937500", "134202.187500", "134203.437500", "134204.687500", "134205.937500", "134207.187500", "134208.437500", "134209.687500", "134210.937500", "134212.187500", "134213.437500", "134214.687500", "134215.937500", "134217.187500", "134218.437500", "134219.687500", "134220.937500", "134222.187500", "134223.437500", "134224.687500", "134225.937500", "134227.187500", "134228.437500", "134229.687500", "134230.937500", "134232.187500", "134233.437500", "134234.687500", "134235.937500", "134237.187500", "134238.437500", "134239.687500", "134240.937500"],
      "ContentTime": ["133653.291000", "133654.369000", "133655.621000", "133656.920000", "133658.085000", "133659.347000", "133700.636000", "133701.848000", "133703.141000", "133704.368000", "133705.638000", "133706.832000", "133708.125000", "133709.318000", "133710.621000", "133711.866000", "133713.192000", "133714.357000", "133715.655000", "133716.842000", "133718.128000", "133719.331000", "133720.613000", "133721.836000", "133723.102000", "133724.337000", "133725.636000", "133726.854000", "133728.097000", "133729.366000", "133730.648000", "133731.845000", "133733.123000", "133734.350000", "133735.613000", "133736.914000", "133738.130000", "133739.336000", "133740.595000", "133741.845000", "133743.109000", "133744.334000", "133745.590000", "133746.844000", "133748.077000", "133749.358000", "133750.604000", "133751.820000", "133753.098000", "133754.357000", "133755.591000", "133756.865000", "133758.098000", "133759.355000", "133800.643000", "133801.846000", "133803.133000", "133804.349000", "133805.612000", "133806.850000", "133808.108000", "133809.369000", "133810.610000", "133811.834000", "133813.142000", "133814.342000", "133815.609000", "133816.854000", "133818.103000", "133819.343000", "133820.592000", "133821.829000", "133823.114000", "133824.344000", "133825.579000", "133826.873000", "133828.119000", "133829.351000", "133830.597000", "133831.903000", "133833.110000", "133834.361000", "133835.607000", "133836.838000", "133838.121000", "133839.348000", "133840.571000", "133841.902000", "133843.120000", "133844.345000", "133845.614000", "133846.841000", "133848.071000", "133849.337000", "133850.577000", "133851.838000", "133853.140000", "133854.337000", "133855.592000", "133856.848000", "133858.116000", "133859.363000", "133900.604000", "133901.884000", "133903.094000", "133904.393000", "133905.605000", "133906.861000", "133908.104000", "133909.391000", "133910.659000", "133911.849000", "133913.085000", "133914.380000", "133915.639000", "133916.868000", "133918.105000", "133919.387000", "133920.603000", "133921.857000", "133923.108000", "133924.359000", "133925.616000", "133926.872000", "133928.078000", "133929.360000", "133930.609000", "133931.867000", "133933.107000", "133934.366000", "133935.601000", "133936.858000", "133938.105000", "133939.372000", "133940.625000", "133941.843000", "133943.085000", "133944.326000", "133945.611000", "133946.874000", "133948.134000", "133949.429000", "133950.611000", "133951.877000", "133953.087000", "133954.330000", "133955.623000", "133956.869000", "133958.108000", "133959.372000", "134000.585000", "134001.862000", "134003.109000", "134004.360000", "134005.614000", "134006.942000", "134008.124000", "134009.362000", "134010.590000", "134011.862000", "134013.123000", "134014.358000", "134015.574000", "134016.874000", "134018.091000", "134019.375000", "134020.603000", "134021.887000", "134023.115000", "134024.352000", "134025.597000", "134026.853000", "134028.084000", "134029.326000", "134030.603000", "134031.856000", "134033.085000", "134034.347000", "134035.658000", "134036.878000", "134038.082000", "134039.383000", "134040.611000", "134041.860000", "134043.175000", "134044.357000", "134045.594000", "134046.855000", "134048.102000", "134049.364000", "134050.617000", "134051.847000", "134053.108000", "134054.444000", "134055.594000", "134056.843000", "134058.090000", "134059.360000", "134100.590000", "134101.869000", "134103.089000", "134104.360000", "134105.623000", "134106.939000", "134108.112000", "134109.336000", "134110.613000", "134111.836000", "134113.126000", "134114.373000", "134115.635000", "134116.933000", "134118.106000", "134119.365000", "134120.603000", "134121.860000", "134123.108000", "134124.380000", "134125.653000", "134126.867000", "134128.114000", "134129.350000", "134130.569000", "134131.861000", "134133.073000", "134134.353000", "134135.627000", "134136.876000", "134138.080000", "134139.351000", "134140.595000", "134141.848000", "134143.091000", "134144.360000", "134145.593000", "134146.861000", "134148.092000", "134149.329000", "134150.622000", "134151.872000", "134153.094000", "134154.363000", "134155.645000", "134156.864000", "134158.142000", "134159.368000", "134200.626000", "134201.852000", "134203.116000", "134204.349000", "134205.627000", "134206.855000", "134208.123000", "134209.354000", "134210.614000", "134211.845000", "134213.104000", "134214.336000", "134215.632000", "134216.856000", "134218.099000", "134219.351000", "134220.606000", "134221.856000", "134223.109000", "134224.362000", "134225.639000", "134226.905000", "134228.139000", "134229.354000", "134230.636000", "134231.903000", "134233.106000", "134234.378000", "134235.643000", "134236.848000", "134238.107000", "134239.355000", "134240.609000", "134241.881000"],
      "InstanceCreationTime": ["133653.291000", "133654.369000", "133655.621000", "133656.920000", "133658.085000", "133659.347000", "133700.636000", "133701.848000", "133703.141000", "133704.368000", "133705.638000", "133706.832000", "133708.125000", "133709.318000", "133710.621000", "133711.866000", "133713.192000", "133714.357000", "133715.655000", "133716.842000", "133718.128000", "133719.331000", "133720.613000", "133721.836000", "133723.102000", "133724.337000", "133725.636000", "133726.854000", "133728.097000", "133729.366000", "133730.648000", "133731.845000", "133733.123000", "133734.350000", "133735.613000", "133736.914000", "133738.130000", "133739.336000", "133740.595000", "133741.845000", "133743.109000", "133744.334000", "133745.590000", "133746.844000", "133748.077000", "133749.358000", "133750.604000", "133751.820000", "133753.098000", "133754.357000", "133755.591000", "133756.865000", "133758.098000", "133759.355000", "133800.643000", "133801.846000", "133803.133000", "133804.349000", "133805.612000", "133806.850000", "133808.108000", "133809.369000", "133810.610000", "133811.834000", "133813.142000", "133814.342000", "133815.609000", "133816.854000", "133818.103000", "133819.343000", "133820.592000", "133821.829000", "133823.114000", "133824.344000", "133825.579000", "133826.873000", "133828.119000", "133829.351000", "133830.597000", "133831.903000", "133833.110000", "133834.361000", "133835.607000", "133836.838000", "133838.121000", "133839.348000", "133840.571000", "133841.902000", "133843.120000", "133844.345000", "133845.614000", "133846.841000", "133848.071000", "133849.337000", "133850.577000", "133851.838000", "133853.140000", "133854.337000", "133855.592000", "133856.848000", "133858.116000", "133859.363000", "133900.604000", "133901.884000", "133903.094000", "133904.393000", "133905.605000", "133906.861000", "133908.104000", "133909.391000", "133910.659000", "133911.849000", "133913.085000", "133914.380000", "133915.639000", "133916.868000", "133918.105000", "133919.387000", "133920.603000", "133921.857000", "133923.108000", "133924.359000", "133925.616000", "133926.872000", "133928.078000", "133929.360000", "133930.609000", "133931.867000", "133933.107000", "133934.366000", "133935.601000", "133936.858000", "133938.105000", "133939.372000", "133940.625000", "133941.843000", "133943.085000", "133944.326000", "133945.611000", "133946.874000", "133948.134000", "133949.429000", "133950.611000", "133951.877000", "133953.087000", "133954.330000", "133955.623000", "133956.869000", "133958.108000", "133959.372000", "134000.585000", "134001.862000", "134003.109000", "134004.360000", "134005.614000", "134006.942000", "134008.124000", "134009.362000", "134010.590000", "134011.862000", "134013.123000", "134014.358000", "134015.574000", "134016.874000", "134018.091000", "134019.375000", "134020.603000", "134021.887000", "134023.115000", "134024.352000", "134025.597000", "134026.853000", "134028.084000", "134029.326000", "134030.603000", "134031.856000", "134033.085000", "134034.347000", "134035.658000", "134036.878000", "134038.082000", "134039.383000", "134040.611000", "134041.860000", "134043.175000", "134044.357000", "134045.594000", "134046.855000", "134048.102000", "134049.364000", "134050.617000", "134051.847000", "134053.108000", "134054.444000", "134055.594000", "134056.843000", "134058.090000", "134059.360000", "134100.590000", "134101.869000", "134103.089000", "134104.360000", "134105.623000", "134106.939000", "134108.112000", "134109.336000", "134110.613000", "134111.836000", "134113.126000", "134114.373000", "134115.635000", "134116.933000", "134118.106000", "134119.365000", "134120.603000", "134121.860000", "134123.108000", "134124.380000", "134125.653000", "134126.867000", "134128.114000", "134129.350000", "134130.569000", "134131.861000", "134133.073000", "134134.353000", "134135.627000", "134136.876000", "134138.080000", "134139.351000", "134140.595000", "134141.848000", "134143.091000", "134144.360000", "134145.593000", "134146.861000", "134148.092000", "134149.329000", "134150.622000", "134151.872000", "134153.094000", "134154.363000", "134155.645000", "134156.864000", "134158.142000", "134159.368000", "134200.626000", "134201.852000", "134203.116000", "134204.349000", "134205.627000", "134206.855000", "134208.123000", "134209.354000", "134210.614000", "134211.845000", "134213.104000", "134214.336000", "134215.632000", "134216.856000", "134218.099000", "134219.351000", "134220.606000", "134221.856000", "134223.109000", "134224.362000", "134225.639000", "134226.905000", "134228.139000", "134229.354000", "134230.636000", "134231.903000", "134233.106000", "134234.378000", "134235.643000", "134236.848000", "134238.107000", "134239.355000", "134240.609000", "134241.881000"],
      "InstanceNumber": [1, 2, 3, 4, 5, 6, 7, 8, 9, 10, 11, 12, 13, 14, 15, 16, 17, 18, 19, 20, 21, 22, 23, 24, 25, 26, 27, 28, 29, 30, 31, 32, 33, 34, 35, 36, 37, 38, 39, 40, 41, 42, 43, 44, 45, 46, 47, 48, 49, 50, 51, 52, 53, 54, 55, 56, 57, 58, 59, 60, 61, 62, 63, 64, 65, 66, 67, 68, 69, 70, 71, 72, 73, 74, 75, 76, 77, 78, 79, 80, 81, 82, 83, 84, 85, 86, 87, 88, 89, 90, 91, 92, 93, 94, 95, 96, 97, 98, 99, 100, 101, 102, 103, 104, 105, 106, 107, 108, 109, 110, 111, 112, 113, 114, 115, 116, 117, 118, 119, 120, 121, 122, 123, 124, 125, 126, 127, 128, 129, 130, 131, 132, 133, 134, 135, 136, 137, 138, 139, 140, 141, 142, 143, 144, 145, 146, 147, 148, 149, 150, 151, 152, 153, 154, 155, 156, 157, 158, 159, 160, 161, 162, 163, 164, 165, 166, 167, 168, 169, 170, 171, 172, 173, 174, 175, 176, 177, 178, 179, 180, 181, 182, 183, 184, 185, 186, 187, 188, 189, 190, 191, 192, 193, 194, 195, 196, 197, 198, 199, 200, 201, 202, 203, 204, 205, 206, 207, 208, 209, 210, 211, 212, 213, 214, 215, 216, 217, 218, 219, 220, 221, 222, 223, 224, 225, 226, 227, 228, 229, 230, 231, 232, 233, 234, 235, 236, 237, 238, 239, 240, 241, 242, 243, 244, 245, 246, 247, 248, 249, 250, 251, 252, 253, 254, 255, 256, 257, 258, 259, 260, 261, 262, 263, 264, 265, 266, 267, 268, 269, 270, 271, 272, 273, 274, 275, 276, 277, 278, 279, 280],
      "LargestImagePixelValue": [834, 810, 628, 739, 995, 814, 830, 718, 689, 1143, 880, 771, 790, 702, 641, 734, 849, 1035, 928, 839, 858, 832, 757, 838, 845, 849, 845, 887, 876, 881, 824, 818, 851, 807, 725, 677, 772, 904, 893, 797, 889, 910, 851, 850, 814, 847, 861, 845, 826, 868, 910, 821, 751, 728, 705, 736, 721, 807, 1076, 852, 822, 640, 812, 898, 909, 854, 820, 846, 826, 828, 701, 681, 759, 915, 938, 806, 915, 866, 900, 865, 821, 784, 795, 751, 782, 839, 795, 881, 850, 804, 672, 793, 752, 757, 711, 669, 791, 830, 799, 753, 876, 855, 831, 797, 815, 759, 835, 787, 864, 801, 815, 712, 724, 764, 955, 994, 814, 837, 770, 803, 835, 696, 768, 631, 695, 841, 796, 896, 853, 846, 856, 750, 847, 680, 652, 937, 1061, 843, 718, 742, 645, 761, 1042, 877, 719, 714, 821, 869, 907, 822, 816, 605, 1011, 900, 848, 620, 655, 914, 1040, 728, 791, 692, 622, 791, 782, 876, 766, 795, 674, 710, 666, 656, 858, 836, 894, 773, 762, 867, 765, 798, 726, 778, 706, 730, 691, 776, 696, 769, 781, 664, 755, 688, 812, 720, 798, 720, 789, 718, 793, 736, 797, 646, 757, 661, 806, 638, 666, 679, 634, 671, 719, 772, 937, 889, 857, 896, 806, 692, 681, 788, 637, 962, 726, 630, 912, 811, 705, 676, 599, 651, 724, 868, 897, 764, 799, 694, 762, 698, 755, 691, 772, 805, 717, 796, 762, 711, 775, 771, 716, 732, 640, 712, 597, 691, 595, 625, 642, 649, 647, 727, 718, 748, 662, 654, 598, 647, 653, 647, 793, 619, 703, 643, 673, 674, 631, 776, 649, 828, 667, 795],
      "WindowCenter": [301.0, 299.0, 296.0, 297.0, 300.0, 299.0, 299.0, 297.0, 296.0, 301.0, 299.0, 297.0, 298.0, 296.0, 295.0, 297.0, 298.0, 300.0, 299.0, 298.0, 298.0, 298.0, 297.0, 298.0, 298.0, 298.0, 299.0, 299.0, 299.0, 298.0, 298.0, 298.0, 299.0, 298.0, 297.0, 296.0, 298.0, 298.0, 299.0, 298.0, 300.0, 300.0, 299.0, 299.0, 299.0, 299.0, 298.0, 299.0, 299.0, 299.0, 300.0, 299.0, 297.0, 297.0, 296.0, 297.0, 297.0, 299.0, 300.0, 299.0, 298.0, 295.0, 298.0, 298.0, 299.0, 298.0, 299.0, 298.0, 298.0, 298.0, 297.0, 296.0, 298.0, 299.0, 300.0, 298.0, 300.0, 299.0, 299.0, 298.0, 299.0, 298.0, 299.0, 298.0, 298.0, 299.0, 298.0, 299.0, 298.0, 298.0, 296.0, 299.0, 297.0, 297.0, 297.0, 295.0, 298.0, 298.0, 299.0, 298.0, 300.0, 299.0, 299.0, 298.0, 299.0, 297.0, 299.0, 297.0, 299.0, 297.0, 297.0, 296.0, 297.0, 297.0, 299.0, 300.0, 298.0, 298.0, 297.0, 298.0, 299.0, 296.0, 297.0, 295.0, 297.0, 299.0, 298.0, 299.0, 299.0, 299.0, 299.0, 298.0, 299.0, 297.0, 297.0, 300.0, 301.0, 299.0, 297.0, 297.0, 296.0, 298.0, 300.0, 299.0, 297.0, 297.0, 297.0, 298.0, 299.0, 298.0, 299.0, 295.0, 300.0, 298.0, 298.0, 295.0, 296.0, 299.0, 300.0, 297.0, 298.0, 296.0, 295.0, 298.0, 298.0, 299.0, 297.0, 298.0, 296.0, 297.0, 295.0, 296.0, 299.0, 298.0, 298.0, 297.0, 297.0, 298.0, 297.0, 298.0, 297.0, 297.0, 296.0, 297.0, 297.0, 298.0, 297.0, 298.0, 298.0, 296.0, 298.0, 296.0, 298.0, 297.0, 298.0, 297.0, 298.0, 297.0, 298.0, 297.0, 298.0, 295.0, 297.0, 296.0, 299.0, 295.0, 295.0, 296.0, 295.0, 296.0, 297.0, 298.0, 299.0, 298.0, 299.0, 300.0, 298.0, 296.0, 296.0, 299.0, 295.0, 298.0, 295.0, 294.0, 298.0, 297.0, 295.0, 296.0, 295.0, 295.0, 297.0, 298.0, 299.0, 297.0, 298.0, 297.0, 298.0, 297.0, 298.0, 297.0, 298.0, 299.0, 298.0, 298.0, 298.0, 297.0, 298.0, 298.0, 297.0, 298.0, 296.0, 297.0, 295.0, 297.0, 295.0, 295.0, 295.0, 295.0, 295.0, 297.0, 297.0, 297.0, 296.0, 295.0, 294.0, 295.0, 296.0, 296.0, 297.0, 295.0, 296.0, 295.0, 296.0, 295.0, 295.0, 296.0, 295.0, 297.0, 295.0, 298.0],
      "WindowWidth": [655.0, 652.0, 646.0, 648.0, 652.0, 650.0, 650.0, 647.0, 645.0, 653.0, 650.0, 647.0, 648.0, 646.0, 644.0, 648.0, 649.0, 652.0, 650.0, 649.0, 649.0, 649.0, 648.0, 649.0, 649.0, 649.0, 650.0, 650.0, 650.0, 649.0, 648.0, 648.0, 650.0, 648.0, 647.0, 646.0, 649.0, 649.0, 650.0, 649.0, 652.0, 652.0, 651.0, 650.0, 650.0, 650.0, 649.0, 650.0, 650.0, 651.0, 652.0, 650.0, 648.0, 647.0, 646.0, 648.0, 647.0, 650.0, 652.0, 649.0, 648.0, 644.0, 648.0, 649.0, 650.0, 649.0, 650.0, 649.0, 648.0, 648.0, 647.0, 646.0, 649.0, 651.0, 651.0, 649.0, 651.0, 651.0, 650.0, 650.0, 650.0, 649.0, 650.0, 649.0, 649.0, 650.0, 649.0, 651.0, 649.0, 648.0, 645.0, 650.0, 648.0, 648.0, 647.0, 645.0, 648.0, 649.0, 650.0, 648.0, 652.0, 651.0, 650.0, 648.0, 650.0, 648.0, 651.0, 648.0, 650.0, 647.0, 647.0, 645.0, 647.0, 647.0, 650.0, 651.0, 648.0, 648.0, 648.0, 648.0, 650.0, 645.0, 648.0, 645.0, 648.0, 650.0, 649.0, 651.0, 651.0, 651.0, 651.0, 649.0, 651.0, 648.0, 648.0, 652.0, 654.0, 650.0, 647.0, 648.0, 647.0, 649.0, 652.0, 651.0, 648.0, 647.0, 648.0, 648.0, 650.0, 649.0, 650.0, 645.0, 651.0, 649.0, 648.0, 644.0, 646.0, 651.0, 652.0, 647.0, 649.0, 646.0, 644.0, 649.0, 649.0, 650.0, 648.0, 649.0, 646.0, 647.0, 644.0, 647.0, 650.0, 649.0, 649.0, 648.0, 648.0, 649.0, 648.0, 648.0, 647.0, 647.0, 646.0, 647.0, 647.0, 649.0, 647.0, 648.0, 649.0, 646.0, 649.0, 646.0, 649.0, 647.0, 649.0, 648.0, 649.0, 647.0, 648.0, 648.0, 648.0, 645.0, 648.0, 646.0, 650.0, 645.0, 645.0, 646.0, 645.0, 646.0, 647.0, 649.0, 649.0, 648.0, 649.0, 651.0, 649.0, 646.0, 646.0, 650.0, 645.0, 649.0, 644.0, 642.0, 648.0, 647.0, 644.0, 646.0, 644.0, 645.0, 647.0, 649.0, 650.0, 647.0, 649.0, 647.0, 649.0, 647.0, 649.0, 647.0, 649.0, 650.0, 649.0, 649.0, 649.0, 647.0, 649.0, 649.0, 648.0, 649.0, 647.0, 647.0, 645.0, 647.0, 644.0, 644.0, 645.0, 645.0, 645.0, 648.0, 648.0, 648.0, 646.0, 645.0, 643.0, 645.0, 646.0, 647.0, 647.0, 645.0, 646.0, 644.0, 646.0, 644.0, 644.0, 646.0, 644.0, 647.0, 645.0, 648.0]
    },
    "slices": {}
  }
}