{
  "AcquisitionMatrixPE": 96,
  "AcquisitionNumber": 1,
  "AcquisitionTime": "13:57:30.512500",
  "BandwidthPerPixelPhaseEncode": 18.939,
  "BaseResolution": 96,
  "BodyPartExamined": "BRAIN",
  "ConsistencyInfo": "N4_VE11C_LATEST_20160120",
  "ConversionSoftware": "dcm2niix",
  "ConversionSoftwareVersion": "v1.0.20170923 (OpenJPEG build) GCC6.3.0",
  "DerivedVendorReportedEchoSpacing": 0.000550011,
  "DeviceSerialNumber": "66112",
  "DwellTime": 2.3e-06,
  "EchoTime": 0.033,
  "EchoTrainLength": 96,
  "EffectiveEchoSpacing": 0.000550011,
  "FlipAngle": 64,
  "ImageType": [
    "ORIGINAL",
    "PRIMARY",
    "FMRI",
    "NONE",
    "ND",
    "NORM",
    "MOSAIC"
],
  "InstitutionAddress": "Maynard_3_Hanover_NH_US_03755",
  "InstitutionName": "Dartmouth_College_-_PBS",
  "MagneticFieldStrength": 3,
  "Manufacturer": "Siemens",
  "ManufacturersModelName": "Prisma",
  "Modality": "MR",
  "MultibandAccelerationFactor": 4,
  "PartialFourier": 1,
  "PercentPhaseFOV": 100,
  "PhaseEncodingDirection": "j-",
  "PhaseEncodingSteps": 96,
  "PhaseResolution": 1,
  "ProcedureStepDescription": "Gobbini_Matteo_1017_famface-angles",
  "ProtocolName": "func_run-07_task-str1back",
  "PulseSequenceDetails": "%SiemensSeq%_ep2d_bold",
  "ReceiveCoilActiveElements": "HEA;HEP",
  "ReceiveCoilName": "Head_32",
  "ReconMatrixPE": 96,
  "RepetitionTime": 1.25,
  "ScanOptions": "FS",
  "ScanningSequence": "EP",
  "SequenceName": "_epfid2d1_96",
  "SequenceVariant": "SK",
  "SeriesDescription": "func_run-07_task-str1back",
  "SliceTiming": [0.8775, 0, 0.615, 0.0875, 0.7025, 0.175, 0.79, 0.3525, 0.9675, 0.44, 1.055, 0.5275, 1.1425, 0.2625, 0.8775, 0, 0.615, 0.0875, 0.7025, 0.175, 0.79, 0.3525, 0.9675, 0.44, 1.055, 0.5275, 1.1425, 0.2625, 0.8775, 0, 0.615, 0.0875, 0.7025, 0.175, 0.79, 0.3525, 0.9675, 0.44, 1.055, 0.5275, 1.1425, 0.2625, 0.8775, 0, 0.615, 0.0875, 0.7025, 0.175, 0.79, 0.3525, 0.9675, 0.44, 1.055, 0.5275, 1.1425, 0.2625],
  "SoftwareVersions": "syngo_MR_E11",
  "StationName": "AWP66112",
  "TaskName": "str1back",
  "TotalReadoutTime": 0.0522511,
  "dcmmeta_affine": [
    [-2.4999608993530273, 0.01396265346556902, 0.0006559203611686826, 120.99462890625],
    [0.013977774418890476, 2.4978954792022705, 0.1016010120511055, -97.42794036865234],
    [8.79202998476103e-05, -0.10160309076309204, 2.497934579849243, -86.63306427001953],
    [0.0, 0.0, 0.0, 1.0]
],
  "dcmmeta_reorient_transform": [
    [0.0, -1.0, 0.0, 95.0],
    [1.0, 0.0, 0.0, 0.0],
    [0.0, 0.0, 1.0, 0.0],
    [0.0, 0.0, 0.0, 1.0]
],
  "dcmmeta_shape": [96, 96, 56, 280],
  "dcmmeta_slice_dim": 2,
  "dcmmeta_version": 0.6,
  "global": {
    "const": {
      "AccessionNumber": "A000640",
      "AcquisitionMatrix": [96, 0, 0, 96],
      "AngioFlag": "N",
      "BitsAllocated": 16,
      "BitsStored": 12,
      "BodyPartExamined": "BRAIN",
      "Columns": 768,
      "EchoNumbers": 1,
      "EchoTime": 33.0,
      "EchoTrainLength": 96,
      "FlipAngle": 64.0,
      "HighBit": 11,
      "ImageOrientationPatient": [0.9999843690042, -0.0055911099511, 3.516812105e-05, 0.00558506134659, 0.99915819421312, 0.04064123554384],
      "ImagePositionPatient": [-966.99940398648, -974.46848391459, -130.45353758176],
      "ImageType": [
        "ORIGINAL",
        "PRIMARY",
        "FMRI",
        "NONE",
        "ND",
        "NORM",
        "MOSAIC"
],
      "ImagedNucleus": "1H",
      "ImagingFrequency": 123.252311,
      "InPlanePhaseEncodingDirection": "COL",
      "MRAcquisitionType": "2D",
      "MagneticFieldStrength": 3.0,
      "Manufacturer": "SIEMENS",
      "ManufacturerModelName": "Prisma",
      "Modality": "MR",
      "NumberOfAverages": 1.0,
      "NumberOfPhaseEncodingSteps": 96,
      "PercentPhaseFieldOfView": 100.0,
      "PercentSampling": 100.0,
      "PerformedProcedureStepStartTime": "125753.859000",
      "PhotometricInterpretation": "MONOCHROME2",
      "PixelBandwidth": 2265.0,
      "PixelRepresentation": 0,
      "PixelSpacing": [2.5, 2.5],
      "PositionReferenceIndicator": "",
      "ProtocolName": "func_run-07_task-str1back",
      "RepetitionTime": 1250.0,
      "Rows": 768,
      "SAR": 0.07222446161671,
      "SamplesPerPixel": 1,
      "ScanOptions": "FS",
      "ScanningSequence": "EP",
      "SequenceName": "*epfid2d1_96",
      "SequenceVariant": "SK",
      "SeriesDescription": "func_run-07_task-str1back",
      "SeriesNumber": 53,
      "SeriesTime": "135732.308000",
      "SliceLocation": -90.489254701413,
      "SliceThickness": 2.5,
      "SmallestImagePixelValue": 0,
      "SoftwareVersions": "syngo MR E11",
      "SpacingBetweenSlices": 2.5000000065041,
      "SpecificCharacterSet": "ISO_IR 100",
      "StudyID": "1",
      "StudyTime": "125753.772000",
      "TransmitCoilName": "Body",
      "VariableFlipAngleFlag": "N",
      "WindowCenterWidthExplanation": "Algo1",
      "dBdt": 0.0},
    "slices": {}
  },
  "time": {
    "samples": {
      "AcquisitionNumber": [1, 2, 3, 4, 5, 6, 7, 8, 9, 10, 11, 12, 13, 14, 15, 16, 17, 18, 19, 20, 21, 22, 23, 24, 25, 26, 27, 28, 29, 30, 31, 32, 33, 34, 35, 36, 37, 38, 39, 40, 41, 42, 43, 44, 45, 46, 47, 48, 49, 50, 51, 52, 53, 54, 55, 56, 57, 58, 59, 60, 61, 62, 63, 64, 65, 66, 67, 68, 69, 70, 71, 72, 73, 74, 75, 76, 77, 78, 79, 80, 81, 82, 83, 84, 85, 86, 87, 88, 89, 90, 91, 92, 93, 94, 95, 96, 97, 98, 99, 100, 101, 102, 103, 104, 105, 106, 107, 108, 109, 110, 111, 112, 113, 114, 115, 116, 117, 118, 119, 120, 121, 122, 123, 124, 125, 126, 127, 128, 129, 130, 131, 132, 133, 134, 135, 136, 137, 138, 139, 140, 141, 142, 143, 144, 145, 146, 147, 148, 149, 150, 151, 152, 153, 154, 155, 156, 157, 158, 159, 160, 161, 162, 163, 164, 165, 166, 167, 168, 169, 170, 171, 172, 173, 174, 175, 176, 177, 178, 179, 180, 181, 182, 183, 184, 185, 186, 187, 188, 189, 190, 191, 192, 193, 194, 195, 196, 197, 198, 199, 200, 201, 202, 203, 204, 205, 206, 207, 208, 209, 210, 211, 212, 213, 214, 215, 216, 217, 218, 219, 220, 221, 222, 223, 224, 225, 226, 227, 228, 229, 230, 231, 232, 233, 234, 235, 236, 237, 238, 239, 240, 241, 242, 243, 244, 245, 246, 247, 248, 249, 250, 251, 252, 253, 254, 255, 256, 257, 258, 259, 260, 261, 262, 263, 264, 265, 266, 267, 268, 269, 270, 271, 272, 273, 274, 275, 276, 277, 278, 279, 280],
      "AcquisitionTime": ["135730.512500", "135731.762500", "135733.012500", "135734.262500", "135735.512500", "135736.762500", "135738.012500", "135739.262500", "135740.512500", "135741.762500", "135743.012500", "135744.262500", "135745.512500", "135746.762500", "135748.012500", "135749.262500", "135750.512500", "135751.762500", "135753.012500", "135754.262500", "135755.512500", "135756.762500", "135758.012500", "135759.262500", "135800.512500", "135801.762500", "135803.012500", "135804.262500", "135805.512500", "135806.762500", "135808.012500", "135809.262500", "135810.512500", "135811.762500", "135813.012500", "135814.262500", "135815.512500", "135816.762500", "135818.012500", "135819.262500", "135820.512500", "135821.762500", "135823.012500", "135824.262500", "135825.512500", "135826.762500", "135828.012500", "135829.262500", "135830.512500", "135831.762500", "135833.012500", "135834.262500", "135835.512500", "135836.762500", "135838.012500", "135839.262500", "135840.512500", "135841.762500", "135843.012500", "135844.262500", "135845.512500", "135846.762500", "135848.012500", "135849.262500", "135850.512500", "135851.762500", "135853.012500", "135854.262500", "135855.512500", "135856.762500", "135858.012500", "135859.262500", "135900.512500", "135901.762500", "135903.012500", "135904.262500", "135905.512500", "135906.762500", "135908.012500", "135909.262500", "135910.512500", "135911.762500", "135913.012500", "135914.262500", "135915.512500", "135916.762500", "135918.012500", "135919.262500", "135920.512500", "135921.762500", "135923.012500", "135924.262500", "135925.512500", "135926.762500", "135928.012500", "135929.262500", "135930.512500", "135931.762500", "135933.012500", "135934.262500", "135935.512500", "135936.762500", "135938.012500", "135939.262500", "135940.512500", "135941.762500", "135943.012500", "135944.262500", "135945.512500", "135946.762500", "135948.012500", "135949.262500", "135950.512500", "135951.762500", "135953.012500", "135954.262500", "135955.512500", "135956.762500", "135958.012500", "135959.262500", "140000.512500", "140001.762500", "140003.012500", "140004.262500", "140005.512500", "140006.762500", "140008.012500", "140009.262500", "140010.512500", "140011.762500", "140013.012500", "140014.262500", "140015.512500", "140016.762500", "140018.012500", "140019.262500", "140020.512500", "140021.762500", "140023.012500", "140024.262500", "140025.512500", "140026.762500", "140028.012500", "140029.262500", "140030.512500", "140031.762500", "140033.012500", "140034.262500", "140035.512500", "140036.762500", "140038.012500", "140039.262500", "140040.512500", "140041.762500", "140043.012500", "140044.262500", "140045.512500", "140046.762500", "140048.012500", "140049.262500", "140050.512500", "140051.762500", "140053.012500", "140054.262500", "140055.512500", "140056.762500", "140058.012500", "140059.262500", "140100.512500", "140101.762500", "140103.012500", "140104.262500", "140105.512500", "140106.762500", "140108.012500", "140109.262500", "140110.512500", "140111.762500", "140113.012500", "140114.262500", "140115.512500", "140116.762500", "140118.012500", "140119.262500", "140120.512500", "140121.762500", "140123.012500", "140124.262500", "140125.512500", "140126.762500", "140128.012500", "140129.262500", "140130.512500", "140131.762500", "140133.012500", "140134.262500", "140135.512500", "140136.762500", "140138.012500", "140139.262500", "140140.512500", "140141.762500", "140143.012500", "140144.262500", "140145.512500", "140146.762500", "140148.012500", "140149.262500", "140150.512500", "140151.762500", "140153.012500", "140154.262500", "140155.512500", "140156.762500", "140158.012500", "140159.262500", "140200.512500", "140201.762500", "140203.012500", "140204.262500", "140205.512500", "140206.762500", "140208.012500", "140209.262500", "140210.512500", "140211.762500", "140213.012500", "140214.262500", "140215.512500", "140216.762500", "140218.012500", "140219.262500", "140220.512500", "140221.762500", "140223.012500", "140224.262500", "140225.512500", "140226.762500", "140228.012500", "140229.262500", "140230.512500", "140231.762500", "140233.012500", "140234.262500", "140235.512500", "140236.762500", "140238.012500", "140239.262500", "140240.512500", "140241.762500", "140243.012500", "140244.262500", "140245.512500", "140246.762500", "140248.012500", "140249.262500", "140250.512500", "140251.762500", "140253.012500", "140254.262500", "140255.512500", "140256.762500", "140258.012500", "140259.262500", "140300.512500", "140301.762500", "140303.012500", "140304.262500", "140305.512500", "140306.762500", "140308.012500", "140309.262500", "140310.512500", "140311.762500", "140313.012500", "140314.262500", "140315.512500", "140316.762500", "140318.012500", "140319.262500"],
      "ContentTime": ["135732.312000", "135733.389000", "135734.643000", "135735.876000", "135737.148000", "135738.362000", "135739.600000", "135740.897000", "135742.176000", "135743.391000", "135744.641000", "135745.883000", "135747.112000", "135748.373000", "135749.610000", "135750.857000", "135752.169000", "135753.420000", "135754.620000", "135755.894000", "135757.150000", "135758.396000", "135759.670000", "135800.874000", "135802.172000", "135803.397000", "135804.632000", "135805.943000", "135807.109000", "135808.377000", "135809.623000", "135810.866000", "135812.128000", "135813.382000", "135814.626000", "135815.872000", "135817.130000", "135818.370000", "135819.616000", "135820.881000", "135822.108000", "135823.395000", "135824.626000", "135825.899000", "135827.123000", "135828.359000", "135829.610000", "135830.903000", "135832.161000", "135833.390000", "135834.683000", "135835.894000", "135837.133000", "135838.347000", "135839.612000", "135840.866000", "135842.109000", "135843.351000", "135844.591000", "135845.893000", "135847.136000", "135848.379000", "135849.607000", "135850.857000", "135852.114000", "135853.374000", "135854.601000", "135855.872000", "135857.117000", "135858.374000", "135859.606000", "135900.863000", "135902.167000", "135903.403000", "135904.609000", "135905.885000", "135907.148000", "135908.363000", "135909.603000", "135910.886000", "135912.127000", "135913.343000", "135914.635000", "135915.860000", "135917.117000", "135918.381000", "135919.603000", "135920.887000", "135922.115000", "135923.369000", "135924.613000", "135925.880000", "135927.116000", "135928.391000", "135929.624000", "135930.867000", "135932.114000", "135933.377000", "135934.612000", "135935.877000", "135937.125000", "135938.386000", "135939.644000", "135940.923000", "135942.130000", "135943.374000", "135944.657000", "135945.903000", "135947.139000", "135948.384000", "135949.682000", "135950.877000", "135952.108000", "135953.391000", "135954.600000", "135955.905000", "135957.126000", "135958.378000", "135959.626000", "140000.899000", "140002.126000", "140003.382000", "140004.633000", "140005.862000", "140007.097000", "140008.381000", "140009.675000", "140010.898000", "140012.178000", "140013.355000", "140014.657000", "140015.867000", "140017.120000", "140018.360000", "140019.638000", "140020.897000", "140022.175000", "140023.366000", "140024.638000", "140025.879000", "140027.130000", "140028.386000", "140029.653000", "140030.871000", "140032.129000", "140033.371000", "140034.615000", "140035.855000", "140037.125000", "140038.392000", "140039.622000", "140040.888000", "140042.125000", "140043.394000", "140044.623000", "140045.879000", "140047.129000", "140048.361000", "140049.617000", "140050.906000", "140052.138000", "140053.377000", "140054.622000", "140055.918000", "140057.144000", "140058.396000", "140059.639000", "140100.891000", "140102.160000", "140103.391000", "140104.644000", "140105.831000", "140107.122000", "140108.382000", "140109.637000", "140110.874000", "140112.139000", "140113.389000", "140114.611000", "140115.876000", "140117.149000", "140118.399000", "140119.624000", "140120.926000", "140122.161000", "140123.400000", "140124.681000", "140125.875000", "140127.111000", "140128.387000", "140129.609000", "140130.923000", "140132.138000", "140133.375000", "140134.622000", "140135.881000", "140137.161000", "140138.373000", "140139.618000", "140140.916000", "140142.140000", "140143.377000", "140144.622000", "140145.891000", "140147.135000", "140148.391000", "140149.597000", "140150.900000", "140152.176000", "140153.383000", "140154.657000", "140155.846000", "140157.105000", "140158.360000", "140159.727000", "140200.869000", "140202.188000", "140203.396000", "140204.660000", "140205.867000", "140207.113000", "140208.375000", "140209.614000", "140210.854000", "140212.126000", "140213.397000", "140214.650000", "140215.875000", "140217.107000", "140218.381000", "140219.639000", "140220.899000", "140222.116000", "140223.373000", "140224.606000", "140225.896000", "140227.124000", "140228.356000", "140229.630000", "140230.868000", "140232.143000", "140233.376000", "140234.631000", "140235.927000", "140237.120000", "140238.383000", "140239.706000", "140240.866000", "140242.117000", "140243.389000", "140244.620000", "140245.880000", "140247.128000", "140248.351000", "140249.628000", "140250.900000", "140252.143000", "140253.367000", "140254.630000", "140255.916000", "140257.145000", "140258.390000", "140259.619000", "140300.885000", "140302.081000", "140303.355000", "140304.647000", "140305.877000", "140307.137000", "140308.346000", "140309.692000", "140310.893000", "140312.140000", "140313.366000", "140314.642000", "140315.893000", "140317.127000", "140318.427000", "140319.612000", "140320.931000"],
      "InstanceCreationTime": ["135732.312000", "135733.389000", "135734.643000", "135735.876000", "135737.148000", "135738.362000", "135739.600000", "135740.897000", "135742.176000", "135743.391000", "135744.641000", "135745.883000", "135747.112000", "135748.373000", "135749.610000", "135750.857000", "135752.169000", "135753.420000", "135754.620000", "135755.894000", "135757.150000", "135758.396000", "135759.670000", "135800.874000", "135802.172000", "135803.397000", "135804.632000", "135805.943000", "135807.109000", "135808.377000", "135809.623000", "135810.866000", "135812.128000", "135813.382000", "135814.626000", "135815.872000", "135817.130000", "135818.370000", "135819.616000", "135820.881000", "135822.108000", "135823.395000", "135824.626000", "135825.899000", "135827.123000", "135828.359000", "135829.610000", "135830.903000", "135832.161000", "135833.390000", "135834.683000", "135835.894000", "135837.133000", "135838.347000", "135839.612000", "135840.866000", "135842.109000", "135843.351000", "135844.591000", "135845.893000", "135847.136000", "135848.379000", "135849.607000", "135850.857000", "135852.114000", "135853.374000", "135854.601000", "135855.872000", "135857.117000", "135858.374000", "135859.606000", "135900.863000", "135902.167000", "135903.403000", "135904.609000", "135905.885000", "135907.148000", "135908.363000", "135909.603000", "135910.886000", "135912.127000", "135913.343000", "135914.635000", "135915.860000", "135917.117000", "135918.381000", "135919.603000", "135920.887000", "135922.115000", "135923.369000", "135924.613000", "135925.880000", "135927.116000", "135928.391000", "135929.624000", "135930.867000", "135932.114000", "135933.377000", "135934.612000", "135935.877000", "135937.125000", "135938.386000", "135939.644000", "135940.923000", "135942.130000", "135943.374000", "135944.657000", "135945.903000", "135947.139000", "135948.384000", "135949.682000", "135950.877000", "135952.108000", "135953.391000", "135954.600000", "135955.905000", "135957.126000", "135958.378000", "135959.626000", "140000.899000", "140002.126000", "140003.382000", "140004.633000", "140005.862000", "140007.097000", "140008.381000", "140009.675000", "140010.898000", "140012.178000", "140013.355000", "140014.657000", "140015.867000", "140017.120000", "140018.360000", "140019.638000", "140020.897000", "140022.175000", "140023.366000", "140024.638000", "140025.879000", "140027.130000", "140028.386000", "140029.653000", "140030.871000", "140032.129000", "140033.371000", "140034.615000", "140035.855000", "140037.125000", "140038.392000", "140039.622000", "140040.888000", "140042.125000", "140043.394000", "140044.623000", "140045.879000", "140047.129000", "140048.361000", "140049.617000", "140050.906000", "140052.138000", "140053.377000", "140054.622000", "140055.918000", "140057.144000", "140058.396000", "140059.639000", "140100.891000", "140102.160000", "140103.391000", "140104.644000", "140105.831000", "140107.122000", "140108.382000", "140109.637000", "140110.874000", "140112.139000", "140113.389000", "140114.611000", "140115.876000", "140117.149000", "140118.399000", "140119.624000", "140120.926000", "140122.161000", "140123.400000", "140124.681000", "140125.875000", "140127.111000", "140128.387000", "140129.609000", "140130.923000", "140132.138000", "140133.375000", "140134.622000", "140135.881000", "140137.161000", "140138.373000", "140139.618000", "140140.916000", "140142.140000", "140143.377000", "140144.622000", "140145.891000", "140147.135000", "140148.391000", "140149.597000", "140150.900000", "140152.176000", "140153.383000", "140154.657000", "140155.846000", "140157.105000", "140158.360000", "140159.727000", "140200.869000", "140202.188000", "140203.396000", "140204.660000", "140205.867000", "140207.113000", "140208.375000", "140209.614000", "140210.854000", "140212.126000", "140213.397000", "140214.650000", "140215.875000", "140217.107000", "140218.381000", "140219.639000", "140220.899000", "140222.116000", "140223.373000", "140224.606000", "140225.896000", "140227.124000", "140228.356000", "140229.630000", "140230.868000", "140232.143000", "140233.376000", "140234.631000", "140235.927000", "140237.120000", "140238.383000", "140239.706000", "140240.866000", "140242.117000", "140243.389000", "140244.620000", "140245.880000", "140247.128000", "140248.351000", "140249.628000", "140250.900000", "140252.143000", "140253.367000", "140254.630000", "140255.916000", "140257.145000", "140258.390000", "140259.619000", "140300.885000", "140302.081000", "140303.355000", "140304.647000", "140305.877000", "140307.137000", "140308.346000", "140309.692000", "140310.893000", "140312.140000", "140313.366000", "140314.642000", "140315.893000", "140317.127000", "140318.427000", "140319.612000", "140320.931000"],
      "InstanceNumber": [1, 2, 3, 4, 5, 6, 7, 8, 9, 10, 11, 12, 13, 14, 15, 16, 17, 18, 19, 20, 21, 22, 23, 24, 25, 26, 27, 28, 29, 30, 31, 32, 33, 34, 35, 36, 37, 38, 39, 40, 41, 42, 43, 44, 45, 46, 47, 48, 49, 50, 51, 52, 53, 54, 55, 56, 57, 58, 59, 60, 61, 62, 63, 64, 65, 66, 67, 68, 69, 70, 71, 72, 73, 74, 75, 76, 77, 78, 79, 80, 81, 82, 83, 84, 85, 86, 87, 88, 89, 90, 91, 92, 93, 94, 95, 96, 97, 98, 99, 100, 101, 102, 103, 104, 105, 106, 107, 108, 109, 110, 111, 112, 113, 114, 115, 116, 117, 118, 119, 120, 121, 122, 123, 124, 125, 126, 127, 128, 129, 130, 131, 132, 133, 134, 135, 136, 137, 138, 139, 140, 141, 142, 143, 144, 145, 146, 147, 148, 149, 150, 151, 152, 153, 154, 155, 156, 157, 158, 159, 160, 161, 162, 163, 164, 165, 166, 167, 168, 169, 170, 171, 172, 173, 174, 175, 176, 177, 178, 179, 180, 181, 182, 183, 184, 185, 186, 187, 188, 189, 190, 191, 192, 193, 194, 195, 196, 197, 198, 199, 200, 201, 202, 203, 204, 205, 206, 207, 208, 209, 210, 211, 212, 213, 214, 215, 216, 217, 218, 219, 220, 221, 222, 223, 224, 225, 226, 227, 228, 229, 230, 231, 232, 233, 234, 235, 236, 237, 238, 239, 240, 241, 242, 243, 244, 245, 246, 247, 248, 249, 250, 251, 252, 253, 254, 255, 256, 257, 258, 259, 260, 261, 262, 263, 264, 265, 266, 267, 268, 269, 270, 271, 272, 273, 274, 275, 276, 277, 278, 279, 280],
      "LargestImagePixelValue": [1079, 909, 777, 1096, 911, 902, 737, 1295, 912, 831, 786, 1131, 933, 876, 790, 1037, 1091, 912, 822, 790, 955, 1057, 892, 800, 1144, 912, 834, 702, 1151, 995, 901, 885, 1009, 915, 773, 1103, 917, 902, 734, 1166, 885, 843, 1108, 858, 814, 1160, 889, 793, 1045, 894, 862, 1074, 903, 828, 1149, 951, 881, 872, 1141, 899, 876, 799, 1158, 935, 906, 897, 888, 831, 1098, 1014, 910, 855, 877, 863, 1052, 895, 912, 799, 931, 1094, 924, 884, 880, 868, 1098, 906, 896, 841, 900, 1090, 1013, 883, 916, 850, 1157, 1075, 845, 898, 792, 841, 929, 1164, 937, 913, 867, 904, 1095, 1104, 856, 878, 800, 852, 936, 1132, 901, 858, 899, 839, 1105, 980, 900, 867, 948, 855, 913, 899, 1157, 1009, 869, 894, 860, 854, 883, 1012, 1076, 921, 838, 897, 772, 919, 1053, 1100, 849, 906, 791, 1012, 1115, 923, 867, 871, 854, 943, 1159, 913, 909, 889, 923, 852, 1075, 1104, 925, 877, 856, 842, 1141, 972, 903, 911, 918, 913, 914, 993, 1169, 857, 888, 875, 894, 906, 1073, 1081, 881, 870, 841, 811, 888, 1088, 973, 857, 1014, 972, 846, 890, 872, 883, 832, 954, 1164, 961, 854, 881, 854, 1069, 902, 883, 853, 899, 789, 994, 1023, 968, 870, 911, 870, 893, 764, 986, 1073, 889, 856, 860, 878, 902, 1185, 890, 904, 871, 846, 822, 1051, 1004, 889, 857, 822, 862, 866, 854, 851, 1017, 1021, 885, 852, 831, 858, 957, 993, 897, 810, 831, 671, 737, 1000, 977, 845, 853, 880, 834, 1159, 887, 802, 820, 944, 787, 786, 772, 973, 925, 818, 840, 831, 881, 866, 990, 1046, 926, 874, 858, 848, 862, 759, 839],
      "WindowCenter": [302.0, 300.0, 297.0, 301.0, 299.0, 299.0, 298.0, 302.0, 299.0, 299.0, 298.0, 301.0, 300.0, 299.0, 299.0, 301.0, 301.0, 299.0, 299.0, 298.0, 301.0, 301.0, 300.0, 299.0, 301.0, 299.0, 299.0, 297.0, 303.0, 301.0, 299.0, 299.0, 300.0, 299.0, 297.0, 301.0, 299.0, 299.0, 298.0, 301.0, 299.0, 298.0, 300.0, 298.0, 298.0, 301.0, 299.0, 298.0, 301.0, 299.0, 299.0, 301.0, 299.0, 298.0, 301.0, 300.0, 299.0, 299.0, 301.0, 299.0, 299.0, 299.0, 301.0, 299.0, 299.0, 299.0, 299.0, 299.0, 301.0, 300.0, 299.0, 298.0, 299.0, 298.0, 300.0, 298.0, 299.0, 298.0, 299.0, 301.0, 299.0, 299.0, 299.0, 298.0, 301.0, 299.0, 299.0, 299.0, 299.0, 301.0, 300.0, 299.0, 299.0, 299.0, 301.0, 300.0, 299.0, 299.0, 298.0, 299.0, 300.0, 301.0, 299.0, 299.0, 299.0, 299.0, 301.0, 301.0, 298.0, 299.0, 298.0, 299.0, 299.0, 301.0, 299.0, 299.0, 299.0, 299.0, 301.0, 300.0, 299.0, 299.0, 299.0, 299.0, 299.0, 299.0, 301.0, 300.0, 299.0, 299.0, 299.0, 299.0, 299.0, 300.0, 301.0, 300.0, 300.0, 299.0, 298.0, 299.0, 301.0, 301.0, 299.0, 300.0, 298.0, 300.0, 301.0, 299.0, 299.0, 300.0, 300.0, 300.0, 301.0, 300.0, 299.0, 299.0, 300.0, 299.0, 301.0, 301.0, 300.0, 299.0, 299.0, 298.0, 301.0, 300.0, 300.0, 300.0, 300.0, 299.0, 299.0, 300.0, 301.0, 298.0, 299.0, 299.0, 300.0, 299.0, 301.0, 300.0, 299.0, 299.0, 299.0, 299.0, 299.0, 301.0, 300.0, 299.0, 301.0, 300.0, 299.0, 299.0, 300.0, 300.0, 300.0, 300.0, 302.0, 300.0, 298.0, 299.0, 298.0, 301.0, 299.0, 299.0, 300.0, 300.0, 298.0, 301.0, 301.0, 300.0, 298.0, 299.0, 299.0, 299.0, 297.0, 300.0, 301.0, 299.0, 299.0, 299.0, 299.0, 298.0, 301.0, 298.0, 299.0, 299.0, 298.0, 298.0, 301.0, 300.0, 299.0, 299.0, 299.0, 299.0, 300.0, 299.0, 299.0, 300.0, 300.0, 299.0, 298.0, 298.0, 299.0, 300.0, 300.0, 299.0, 299.0, 299.0, 297.0, 298.0, 301.0, 300.0, 298.0, 299.0, 299.0, 298.0, 300.0, 297.0, 296.0, 297.0, 299.0, 298.0, 298.0, 298.0, 299.0, 299.0, 299.0, 299.0, 300.0, 300.0, 300.0, 300.0, 301.0, 299.0, 298.0, 299.0, 299.0, 300.0, 298.0, 300.0],
      "WindowWidth": [655.0, 652.0, 648.0, 653.0, 651.0, 651.0, 649.0, 654.0, 651.0, 650.0, 649.0, 653.0, 652.0, 651.0, 650.0, 653.0, 654.0, 651.0, 650.0, 649.0, 653.0, 654.0, 652.0, 650.0, 654.0, 651.0, 650.0, 648.0, 656.0, 653.0, 651.0, 651.0, 652.0, 650.0, 648.0, 652.0, 651.0, 651.0, 648.0, 654.0, 650.0, 649.0, 652.0, 649.0, 648.0, 653.0, 651.0, 649.0, 652.0, 650.0, 650.0, 652.0, 650.0, 649.0, 653.0, 652.0, 650.0, 651.0, 654.0, 651.0, 651.0, 651.0, 653.0, 651.0, 651.0, 651.0, 651.0, 650.0, 653.0, 652.0, 650.0, 649.0, 649.0, 648.0, 651.0, 649.0, 651.0, 649.0, 651.0, 652.0, 651.0, 651.0, 651.0, 649.0, 653.0, 651.0, 650.0, 650.0, 651.0, 652.0, 651.0, 651.0, 651.0, 649.0, 653.0, 651.0, 650.0, 651.0, 649.0, 650.0, 652.0, 653.0, 651.0, 651.0, 650.0, 649.0, 652.0, 652.0, 649.0, 650.0, 649.0, 650.0, 651.0, 654.0, 651.0, 650.0, 651.0, 650.0, 653.0, 651.0, 651.0, 650.0, 651.0, 650.0, 651.0, 651.0, 653.0, 652.0, 650.0, 650.0, 650.0, 650.0, 651.0, 652.0, 654.0, 652.0, 652.0, 651.0, 650.0, 651.0, 654.0, 654.0, 651.0, 651.0, 650.0, 651.0, 654.0, 650.0, 650.0, 651.0, 652.0, 652.0, 654.0, 651.0, 651.0, 651.0, 651.0, 650.0, 652.0, 654.0, 651.0, 650.0, 650.0, 649.0, 654.0, 652.0, 651.0, 651.0, 651.0, 651.0, 650.0, 651.0, 654.0, 649.0, 650.0, 650.0, 652.0, 651.0, 653.0, 652.0, 650.0, 650.0, 650.0, 650.0, 651.0, 653.0, 652.0, 650.0, 653.0, 652.0, 650.0, 651.0, 652.0, 651.0, 652.0, 652.0, 655.0, 652.0, 649.0, 651.0, 649.0, 653.0, 651.0, 651.0, 651.0, 652.0, 650.0, 653.0, 653.0, 652.0, 649.0, 651.0, 650.0, 651.0, 647.0, 652.0, 653.0, 650.0, 650.0, 650.0, 650.0, 649.0, 652.0, 649.0, 650.0, 650.0, 649.0, 649.0, 653.0, 651.0, 650.0, 650.0, 651.0, 650.0, 651.0, 650.0, 651.0, 652.0, 652.0, 650.0, 649.0, 649.0, 650.0, 651.0, 651.0, 651.0, 650.0, 651.0, 648.0, 649.0, 653.0, 652.0, 649.0, 650.0, 650.0, 649.0, 651.0, 647.0, 645.0, 647.0, 650.0, 648.0, 648.0, 648.0, 650.0, 651.0, 650.0, 651.0, 651.0, 652.0, 651.0, 652.0, 653.0, 651.0, 649.0, 650.0, 650.0, 653.0, 650.0, 652.0]
    },
    "slices": {}
  }
}