{
  "AcquisitionMatrixPE": 96,
  "AcquisitionNumber": 1,
  "AcquisitionTime": "14:05:3.167500",
  "BandwidthPerPixelPhaseEncode": 18.939,
  "BaseResolution": 96,
  "BodyPartExamined": "BRAIN",
  "ConsistencyInfo": "N4_VE11C_LATEST_20160120",
  "ConversionSoftware": "dcm2niix",
  "ConversionSoftwareVersion": "v1.0.20170923 (OpenJPEG build) GCC6.3.0",
  "DerivedVendorReportedEchoSpacing": 0.000550011,
  "DeviceSerialNumber": "66112",
  "DwellTime": 2.3e-06,
  "EchoTime": 0.033,
  "EchoTrainLength": 96,
  "EffectiveEchoSpacing": 0.000550011,
  "FlipAngle": 64,
  "ImageType": [
    "ORIGINAL",
    "PRIMARY",
    "FMRI",
    "NONE",
    "ND",
    "NORM",
    "MOSAIC"
],
  "InstitutionAddress": "Maynard_3_Hanover_NH_US_03755",
  "InstitutionName": "Dartmouth_College_-_PBS",
  "MagneticFieldStrength": 3,
  "Manufacturer": "Siemens",
  "ManufacturersModelName": "Prisma",
  "Modality": "MR",
  "MultibandAccelerationFactor": 4,
  "PartialFourier": 1,
  "PercentPhaseFOV": 100,
  "PhaseEncodingDirection": "j-",
  "PhaseEncodingSteps": 96,
  "PhaseResolution": 1,
  "ProcedureStepDescription": "Gobbini_Matteo_1017_famface-angles",
  "ProtocolName": "func_run-09_task-str1back",
  "PulseSequenceDetails": "%SiemensSeq%_ep2d_bold",
  "ReceiveCoilActiveElements": "HEA;HEP",
  "ReceiveCoilName": "Head_32",
  "ReconMatrixPE": 96,
  "RepetitionTime": 1.25,
  "ScanOptions": "FS",
  "ScanningSequence": "EP",
  "SequenceName": "_epfid2d1_96",
  "SequenceVariant": "SK",
  "SeriesDescription": "func_run-09_task-str1back",
  "SliceTiming": [0.8775, 0, 0.615, 0.0875, 0.7025, 0.175, 0.79, 0.35, 0.965, 0.44, 1.055, 0.5275, 1.1425, 0.2625, 0.8775, 0, 0.615, 0.0875, 0.7025, 0.175, 0.79, 0.35, 0.965, 0.44, 1.055, 0.5275, 1.1425, 0.2625, 0.8775, 0, 0.615, 0.0875, 0.7025, 0.175, 0.79, 0.35, 0.965, 0.44, 1.055, 0.5275, 1.1425, 0.2625, 0.8775, 0, 0.615, 0.0875, 0.7025, 0.175, 0.79, 0.35, 0.965, 0.44, 1.055, 0.5275, 1.1425, 0.2625],
  "SoftwareVersions": "syngo_MR_E11",
  "StationName": "AWP66112",
  "TaskName": "str1back",
  "TotalReadoutTime": 0.0522511,
  "dcmmeta_affine": [
    [-2.4951536655426025, 0.061851657927036285, 0.14276832342147827, 115.32459259033203],
    [0.06782371550798416, 2.496931314468384, 0.10360315442085266, -107.43690490722656],
    [0.14002986252307892, -0.10727554559707642, 2.4937689304351807, -63.76443099975586],
    [0.0, 0.0, 0.0, 1.0]
],
  "dcmmeta_reorient_transform": [
    [0.0, -1.0, 0.0, 95.0],
    [1.0, 0.0, 0.0, 0.0],
    [0.0, 0.0, 1.0, 0.0],
    [0.0, 0.0, 0.0, 1.0]
],
  "dcmmeta_shape": [96, 96, 56, 280],
  "dcmmeta_slice_dim": 2,
  "dcmmeta_version": 0.6,
  "global": {
    "const": {
      "AccessionNumber": "A000465",
      "AcquisitionMatrix": [96, 0, 0, 96],
      "AngioFlag": "N",
      "BitsAllocated": 16,
      "BitsStored": 12,
      "BodyPartExamined": "BRAIN",
      "Columns": 768,
      "EchoNumbers": 1,
      "EchoTime": 33.0,
      "EchoTrainLength": 96,
      "FlipAngle": 64.0,
      "HighBit": 11,
      "ImageOrientationPatient": [0.99806144738102, -0.0271294873154, 0.05601194666959, 0.02474066350521, 0.99877255303722, 0.04291021869943],
      "ImagePositionPatient": [-980.35427177015, -945.95175486667, -157.05022824766],
      "ImageType": [
        "ORIGINAL",
        "PRIMARY",
        "FMRI",
        "NONE",
        "ND",
        "NORM",
        "MOSAIC"
],
      "ImagedNucleus": "1H",
      "ImagingFrequency": 123.252362,
      "InPlanePhaseEncodingDirection": "COL",
      "MRAcquisitionType": "2D",
      "MagneticFieldStrength": 3.0,
      "Manufacturer": "SIEMENS",
      "ManufacturerModelName": "Prisma",
      "Modality": "MR",
      "NumberOfAverages": 1.0,
      "NumberOfPhaseEncodingSteps": 96,
      "PercentPhaseFieldOfView": 100.0,
      "PercentSampling": 100.0,
      "PerformedProcedureStepStartTime": "125640.563000",
      "PhotometricInterpretation": "MONOCHROME2",
      "PixelBandwidth": 2265.0,
      "PixelRepresentation": 0,
      "PixelSpacing": [2.5, 2.5],
      "PositionReferenceIndicator": "",
      "ProtocolName": "func_run-09_task-str1back",
      "RepetitionTime": 1250.0,
      "Rows": 768,
      "SAR": 0.04532105511013,
      "SamplesPerPixel": 1,
      "ScanOptions": "FS",
      "ScanningSequence": "EP",
      "SequenceName": "*epfid2d1_96",
      "SequenceVariant": "SK",
      "SeriesDescription": "func_run-09_task-str1back",
      "SeriesNumber": 64,
      "SeriesTime": "140504.353000",
      "SliceLocation": -61.471946402508,
      "SliceThickness": 2.5,
      "SmallestImagePixelValue": 0,
      "SoftwareVersions": "syngo MR E11",
      "SpacingBetweenSlices": 2.4999999815211,
      "SpecificCharacterSet": "ISO_IR 100",
      "StudyID": "1",
      "StudyTime": "125640.491000",
      "TransmitCoilName": "Body",
      "VariableFlipAngleFlag": "N",
      "WindowCenterWidthExplanation": "Algo1",
      "dBdt": 0.0},
    "slices": {}
  },
  "time": {
    "samples": {
      "AcquisitionNumber": [1, 2, 3, 4, 5, 6, 7, 8, 9, 10, 11, 12, 13, 14, 15, 16, 17, 18, 19, 20, 21, 22, 23, 24, 25, 26, 27, 28, 29, 30, 31, 32, 33, 34, 35, 36, 37, 38, 39, 40, 41, 42, 43, 44, 45, 46, 47, 48, 49, 50, 51, 52, 53, 54, 55, 56, 57, 58, 59, 60, 61, 62, 63, 64, 65, 66, 67, 68, 69, 70, 71, 72, 73, 74, 75, 76, 77, 78, 79, 80, 81, 82, 83, 84, 85, 86, 87, 88, 89, 90, 91, 92, 93, 94, 95, 96, 97, 98, 99, 100, 101, 102, 103, 104, 105, 106, 107, 108, 109, 110, 111, 112, 113, 114, 115, 116, 117, 118, 119, 120, 121, 122, 123, 124, 125, 126, 127, 128, 129, 130, 131, 132, 133, 134, 135, 136, 137, 138, 139, 140, 141, 142, 143, 144, 145, 146, 147, 148, 149, 150, 151, 152, 153, 154, 155, 156, 157, 158, 159, 160, 161, 162, 163, 164, 165, 166, 167, 168, 169, 170, 171, 172, 173, 174, 175, 176, 177, 178, 179, 180, 181, 182, 183, 184, 185, 186, 187, 188, 189, 190, 191, 192, 193, 194, 195, 196, 197, 198, 199, 200, 201, 202, 203, 204, 205, 206, 207, 208, 209, 210, 211, 212, 213, 214, 215, 216, 217, 218, 219, 220, 221, 222, 223, 224, 225, 226, 227, 228, 229, 230, 231, 232, 233, 234, 235, 236, 237, 238, 239, 240, 241, 242, 243, 244, 245, 246, 247, 248, 249, 250, 251, 252, 253, 254, 255, 256, 257, 258, 259, 260, 261, 262, 263, 264, 265, 266, 267, 268, 269, 270, 271, 272, 273, 274, 275, 276, 277, 278, 279, 280],
      "AcquisitionTime": ["140503.167500", "140504.417500", "140505.667500", "140506.917500", "140508.167500", "140509.417500", "140510.667500", "140511.917500", "140513.167500", "140514.417500", "140515.667500", "140516.917500", "140518.167500", "140519.417500", "140520.667500", "140521.917500", "140523.167500", "140524.417500", "140525.667500", "140526.917500", "140528.167500", "140529.417500", "140530.667500", "140531.917500", "140533.167500", "140534.417500", "140535.667500", "140536.917500", "140538.167500", "140539.417500", "140540.667500", "140541.917500", "140543.167500", "140544.417500", "140545.667500", "140546.917500", "140548.167500", "140549.417500", "140550.667500", "140551.917500", "140553.167500", "140554.417500", "140555.667500", "140556.917500", "140558.167500", "140559.417500", "140600.667500", "140601.917500", "140603.167500", "140604.417500", "140605.667500", "140606.917500", "140608.167500", "140609.417500", "140610.667500", "140611.917500", "140613.167500", "140614.417500", "140615.667500", "140616.917500", "140618.167500", "140619.417500", "140620.667500", "140621.917500", "140623.167500", "140624.417500", "140625.667500", "140626.917500", "140628.167500", "140629.417500", "140630.667500", "140631.917500", "140633.167500", "140634.417500", "140635.667500", "140636.917500", "140638.167500", "140639.417500", "140640.667500", "140641.917500", "140643.167500", "140644.417500", "140645.667500", "140646.917500", "140648.167500", "140649.417500", "140650.667500", "140651.917500", "140653.167500", "140654.417500", "140655.667500", "140656.917500", "140658.167500", "140659.417500", "140700.667500", "140701.917500", "140703.167500", "140704.417500", "140705.667500", "140706.917500", "140708.167500", "140709.417500", "140710.667500", "140711.917500", "140713.167500", "140714.417500", "140715.667500", "140716.917500", "140718.167500", "140719.417500", "140720.667500", "140721.917500", "140723.167500", "140724.417500", "140725.667500", "140726.917500", "140728.167500", "140729.417500", "140730.667500", "140731.917500", "140733.167500", "140734.417500", "140735.667500", "140736.917500", "140738.167500", "140739.417500", "140740.667500", "140741.917500", "140743.167500", "140744.417500", "140745.667500", "140746.917500", "140748.167500", "140749.417500", "140750.667500", "140751.917500", "140753.167500", "140754.417500", "140755.667500", "140756.917500", "140758.167500", "140759.417500", "140800.667500", "140801.917500", "140803.167500", "140804.417500", "140805.667500", "140806.917500", "140808.167500", "140809.417500", "140810.667500", "140811.917500", "140813.167500", "140814.417500", "140815.667500", "140816.917500", "140818.167500", "140819.417500", "140820.667500", "140821.917500", "140823.167500", "140824.417500", "140825.667500", "140826.917500", "140828.167500", "140829.417500", "140830.667500", "140831.917500", "140833.167500", "140834.417500", "140835.667500", "140836.917500", "140838.167500", "140839.417500", "140840.667500", "140841.917500", "140843.167500", "140844.417500", "140845.667500", "140846.917500", "140848.167500", "140849.417500", "140850.667500", "140851.917500", "140853.167500", "140854.417500", "140855.667500", "140856.917500", "140858.167500", "140859.417500", "140900.667500", "140901.917500", "140903.167500", "140904.417500", "140905.667500", "140906.917500", "140908.167500", "140909.417500", "140910.667500", "140911.917500", "140913.167500", "140914.417500", "140915.667500", "140916.917500", "140918.167500", "140919.417500", "140920.667500", "140921.917500", "140923.167500", "140924.417500", "140925.667500", "140926.917500", "140928.167500", "140929.417500", "140930.667500", "140931.917500", "140933.167500", "140934.417500", "140935.667500", "140936.917500", "140938.167500", "140939.417500", "140940.667500", "140941.917500", "140943.167500", "140944.417500", "140945.667500", "140946.917500", "140948.167500", "140949.417500", "140950.667500", "140951.917500", "140953.167500", "140954.417500", "140955.667500", "140956.917500", "140958.167500", "140959.417500", "141000.667500", "141001.917500", "141003.167500", "141004.417500", "141005.667500", "141006.917500", "141008.167500", "141009.417500", "141010.667500", "141011.917500", "141013.167500", "141014.417500", "141015.667500", "141016.917500", "141018.167500", "141019.417500", "141020.667500", "141021.917500", "141023.167500", "141024.417500", "141025.667500", "141026.917500", "141028.167500", "141029.417500", "141030.667500", "141031.917500", "141033.167500", "141034.417500", "141035.667500", "141036.917500", "141038.167500", "141039.417500", "141040.667500", "141041.917500", "141043.167500", "141044.417500", "141045.667500", "141046.917500", "141048.167500", "141049.417500", "141050.667500", "141051.917500"],
      "ContentTime": ["140504.356000", "140505.415000", "140506.671000", "140507.920000", "140509.159000", "140510.386000", "140511.654000", "140512.915000", "140514.200000", "140515.443000", "140516.629000", "140517.899000", "140519.176000", "140520.418000", "140521.673000", "140522.956000", "140524.147000", "140525.388000", "140526.667000", "140527.938000", "140529.174000", "140530.408000", "140531.652000", "140532.927000", "140534.159000", "140535.422000", "140536.632000", "140537.919000", "140539.138000", "140540.386000", "140541.647000", "140542.909000", "140544.145000", "140545.432000", "140546.723000", "140547.920000", "140549.154000", "140550.404000", "140551.676000", "140552.904000", "140554.187000", "140555.434000", "140556.660000", "140557.897000", "140559.129000", "140600.383000", "140601.708000", "140602.907000", "140604.143000", "140605.417000", "140606.692000", "140607.910000", "140609.119000", "140610.403000", "140611.663000", "140612.924000", "140614.137000", "140615.404000", "140616.676000", "140617.887000", "140619.154000", "140620.394000", "140621.667000", "140622.921000", "140624.160000", "140625.407000", "140626.656000", "140627.878000", "140629.140000", "140630.417000", "140631.638000", "140632.897000", "140634.145000", "140635.389000", "140636.643000", "140637.924000", "140639.154000", "140640.386000", "140641.660000", "140642.896000", "140644.135000", "140645.419000", "140646.683000", "140647.962000", "140649.194000", "140650.448000", "140651.680000", "140652.907000", "140654.174000", "140655.444000", "140656.653000", "140657.912000", "140659.149000", "140700.404000", "140701.658000", "140702.879000", "140704.168000", "140705.394000", "140706.649000", "140707.913000", "140709.178000", "140710.425000", "140711.674000", "140712.901000", "140714.159000", "140715.423000", "140716.680000", "140717.923000", "140719.190000", "140720.417000", "140721.673000", "140722.922000", "140724.152000", "140725.433000", "140726.682000", "140727.912000", "140729.163000", "140730.382000", "140731.683000", "140732.918000", "140734.183000", "140735.464000", "140736.672000", "140737.913000", "140739.156000", "140740.416000", "140741.700000", "140742.910000", "140744.144000", "140745.440000", "140746.672000", "140747.909000", "140749.152000", "140750.461000", "140751.660000", "140752.902000", "140754.172000", "140755.405000", "140756.667000", "140757.927000", "140759.175000", "140800.429000", "140801.660000", "140802.954000", "140804.174000", "140805.409000", "140806.661000", "140807.878000", "140809.149000", "140810.412000", "140811.653000", "140812.906000", "140814.148000", "140815.398000", "140816.675000", "140817.916000", "140819.153000", "140820.424000", "140821.663000", "140822.910000", "140824.155000", "140825.416000", "140826.658000", "140827.911000", "140829.167000", "140830.399000", "140831.677000", "140832.924000", "140834.162000", "140835.420000", "140836.662000", "140837.891000", "140839.120000", "140840.419000", "140841.673000", "140842.919000", "140844.211000", "140845.417000", "140846.642000", "140848.000000", "140849.195000", "140850.398000", "140851.650000", "140852.921000", "140854.168000", "140855.395000", "140856.664000", "140857.904000", "140859.151000", "140900.394000", "140901.652000", "140902.957000", "140904.140000", "140905.400000", "140906.662000", "140907.912000", "140909.187000", "140910.443000", "140911.671000", "140912.914000", "140914.156000", "140915.414000", "140916.646000", "140917.907000", "140919.208000", "140920.410000", "140921.654000", "140922.943000", "140924.142000", "140925.400000", "140926.658000", "140927.905000", "140929.133000", "140930.446000", "140931.680000", "140932.957000", "140934.159000", "140935.413000", "140936.670000", "140937.887000", "140939.157000", "140940.417000", "140941.711000", "140942.955000", "140944.179000", "140945.416000", "140946.686000", "140947.945000", "140949.179000", "140950.433000", "140951.681000", "140952.916000", "140954.166000", "140955.420000", "140956.646000", "140957.890000", "140959.163000", "141000.463000", "141001.679000", "141002.958000", "141004.164000", "141005.414000", "141006.654000", "141007.919000", "141009.208000", "141010.422000", "141011.653000", "141012.946000", "141014.190000", "141015.412000", "141016.665000", "141017.942000", "141019.182000", "141020.414000", "141021.669000", "141022.903000", "141024.216000", "141025.446000", "141026.696000", "141027.906000", "141029.192000", "141030.429000", "141031.645000", "141032.885000", "141034.163000", "141035.384000", "141036.648000", "141037.945000", "141039.197000", "141040.413000", "141041.689000", "141042.927000", "141044.164000", "141045.394000", "141046.653000", "141047.881000", "141049.191000", "141050.426000", "141051.670000", "141052.974000"],
      "InstanceCreationTime": ["140504.356000", "140505.415000", "140506.671000", "140507.920000", "140509.159000", "140510.386000", "140511.654000", "140512.915000", "140514.200000", "140515.443000", "140516.629000", "140517.899000", "140519.176000", "140520.418000", "140521.673000", "140522.956000", "140524.147000", "140525.388000", "140526.667000", "140527.938000", "140529.174000", "140530.408000", "140531.652000", "140532.927000", "140534.159000", "140535.422000", "140536.632000", "140537.919000", "140539.138000", "140540.386000", "140541.647000", "140542.909000", "140544.145000", "140545.432000", "140546.723000", "140547.920000", "140549.154000", "140550.404000", "140551.676000", "140552.904000", "140554.187000", "140555.434000", "140556.660000", "140557.897000", "140559.129000", "140600.383000", "140601.708000", "140602.907000", "140604.143000", "140605.417000", "140606.692000", "140607.910000", "140609.119000", "140610.403000", "140611.663000", "140612.924000", "140614.137000", "140615.404000", "140616.676000", "140617.887000", "140619.154000", "140620.394000", "140621.667000", "140622.921000", "140624.160000", "140625.407000", "140626.656000", "140627.878000", "140629.140000", "140630.417000", "140631.638000", "140632.897000", "140634.145000", "140635.389000", "140636.643000", "140637.924000", "140639.154000", "140640.386000", "140641.660000", "140642.896000", "140644.135000", "140645.419000", "140646.683000", "140647.962000", "140649.194000", "140650.448000", "140651.680000", "140652.907000", "140654.174000", "140655.444000", "140656.653000", "140657.912000", "140659.149000", "140700.404000", "140701.658000", "140702.879000", "140704.168000", "140705.394000", "140706.649000", "140707.913000", "140709.178000", "140710.425000", "140711.674000", "140712.901000", "140714.159000", "140715.423000", "140716.680000", "140717.923000", "140719.190000", "140720.417000", "140721.673000", "140722.922000", "140724.152000", "140725.433000", "140726.682000", "140727.912000", "140729.163000", "140730.382000", "140731.683000", "140732.918000", "140734.183000", "140735.464000", "140736.672000", "140737.913000", "140739.156000", "140740.416000", "140741.700000", "140742.910000", "140744.144000", "140745.440000", "140746.672000", "140747.909000", "140749.152000", "140750.461000", "140751.660000", "140752.902000", "140754.172000", "140755.405000", "140756.667000", "140757.927000", "140759.175000", "140800.429000", "140801.660000", "140802.954000", "140804.174000", "140805.409000", "140806.661000", "140807.878000", "140809.149000", "140810.412000", "140811.653000", "140812.906000", "140814.148000", "140815.398000", "140816.675000", "140817.916000", "140819.153000", "140820.424000", "140821.663000", "140822.910000", "140824.155000", "140825.416000", "140826.658000", "140827.911000", "140829.167000", "140830.399000", "140831.677000", "140832.924000", "140834.162000", "140835.420000", "140836.662000", "140837.891000", "140839.120000", "140840.419000", "140841.673000", "140842.919000", "140844.211000", "140845.417000", "140846.642000", "140848.000000", "140849.195000", "140850.398000", "140851.650000", "140852.921000", "140854.168000", "140855.395000", "140856.664000", "140857.904000", "140859.151000", "140900.394000", "140901.652000", "140902.957000", "140904.140000", "140905.400000", "140906.662000", "140907.912000", "140909.187000", "140910.443000", "140911.671000", "140912.914000", "140914.156000", "140915.414000", "140916.646000", "140917.907000", "140919.208000", "140920.410000", "140921.654000", "140922.943000", "140924.142000", "140925.400000", "140926.658000", "140927.905000", "140929.133000", "140930.446000", "140931.680000", "140932.957000", "140934.159000", "140935.413000", "140936.670000", "140937.887000", "140939.157000", "140940.417000", "140941.711000", "140942.955000", "140944.179000", "140945.416000", "140946.686000", "140947.945000", "140949.179000", "140950.433000", "140951.681000", "140952.916000", "140954.166000", "140955.420000", "140956.646000", "140957.890000", "140959.163000", "141000.463000", "141001.679000", "141002.958000", "141004.164000", "141005.414000", "141006.654000", "141007.919000", "141009.208000", "141010.422000", "141011.653000", "141012.946000", "141014.190000", "141015.412000", "141016.665000", "141017.942000", "141019.182000", "141020.414000", "141021.669000", "141022.903000", "141024.216000", "141025.446000", "141026.696000", "141027.906000", "141029.192000", "141030.429000", "141031.645000", "141032.885000", "141034.163000", "141035.384000", "141036.648000", "141037.945000", "141039.197000", "141040.413000", "141041.689000", "141042.927000", "141044.164000", "141045.394000", "141046.653000", "141047.881000", "141049.191000", "141050.426000", "141051.670000", "141052.974000"],
      "InstanceNumber": [1, 2, 3, 4, 5, 6, 7, 8, 9, 10, 11, 12, 13, 14, 15, 16, 17, 18, 19, 20, 21, 22, 23, 24, 25, 26, 27, 28, 29, 30, 31, 32, 33, 34, 35, 36, 37, 38, 39, 40, 41, 42, 43, 44, 45, 46, 47, 48, 49, 50, 51, 52, 53, 54, 55, 56, 57, 58, 59, 60, 61, 62, 63, 64, 65, 66, 67, 68, 69, 70, 71, 72, 73, 74, 75, 76, 77, 78, 79, 80, 81, 82, 83, 84, 85, 86, 87, 88, 89, 90, 91, 92, 93, 94, 95, 96, 97, 98, 99, 100, 101, 102, 103, 104, 105, 106, 107, 108, 109, 110, 111, 112, 113, 114, 115, 116, 117, 118, 119, 120, 121, 122, 123, 124, 125, 126, 127, 128, 129, 130, 131, 132, 133, 134, 135, 136, 137, 138, 139, 140, 141, 142, 143, 144, 145, 146, 147, 148, 149, 150, 151, 152, 153, 154, 155, 156, 157, 158, 159, 160, 161, 162, 163, 164, 165, 166, 167, 168, 169, 170, 171, 172, 173, 174, 175, 176, 177, 178, 179, 180, 181, 182, 183, 184, 185, 186, 187, 188, 189, 190, 191, 192, 193, 194, 195, 196, 197, 198, 199, 200, 201, 202, 203, 204, 205, 206, 207, 208, 209, 210, 211, 212, 213, 214, 215, 216, 217, 218, 219, 220, 221, 222, 223, 224, 225, 226, 227, 228, 229, 230, 231, 232, 233, 234, 235, 236, 237, 238, 239, 240, 241, 242, 243, 244, 245, 246, 247, 248, 249, 250, 251, 252, 253, 254, 255, 256, 257, 258, 259, 260, 261, 262, 263, 264, 265, 266, 267, 268, 269, 270, 271, 272, 273, 274, 275, 276, 277, 278, 279, 280],
      "LargestImagePixelValue": [753, 851, 921, 785, 948, 963, 836, 946, 988, 866, 947, 1054, 1046, 893, 1030, 994, 913, 910, 927, 832, 906, 1038, 778, 1035, 1033, 929, 931, 802, 934, 1059, 875, 927, 828, 994, 953, 982, 1046, 770, 920, 945, 738, 913, 1020, 872, 1014, 840, 886, 992, 938, 949, 1052, 876, 930, 948, 744, 957, 973, 728, 979, 1003, 894, 867, 855, 888, 984, 758, 1020, 1158, 903, 972, 891, 855, 963, 911, 940, 996, 797, 958, 914, 912, 1016, 835, 1001, 1098, 837, 958, 851, 960, 952, 826, 940, 834, 968, 1079, 840, 992, 762, 1002, 1032, 860, 1020, 740, 975, 872, 929, 1003, 788, 967, 866, 1009, 963, 868, 994, 815, 971, 872, 991, 1042, 821, 991, 1073, 837, 937, 870, 922, 972, 793, 905, 955, 789, 948, 1167, 845, 968, 887, 859, 972, 763, 956, 999, 835, 997, 1098, 912, 923, 716, 931, 983, 824, 976, 953, 892, 991, 738, 909, 885, 844, 942, 888, 950, 1008, 866, 955, 862, 958, 1013, 860, 971, 757, 877, 934, 751, 953, 1221, 846, 996, 877, 895, 940, 747, 918, 955, 753, 923, 948, 848, 977, 832, 923, 977, 856, 981, 812, 929, 993, 814, 917, 973, 883, 885, 1121, 905, 957, 849, 902, 991, 841, 934, 798, 899, 995, 861, 947, 866, 946, 1006, 757, 1007, 944, 890, 979, 802, 931, 946, 875, 982, 769, 962, 961, 887, 962, 773, 971, 981, 851, 937, 842, 909, 999, 760, 880, 938, 923, 886, 737, 924, 979, 918, 936, 786, 885, 928, 887, 898, 787, 907, 976, 890, 993, 777, 949, 972, 878, 1013, 751, 920, 972, 768, 962, 1044, 840, 972, 956, 858, 938, 885, 878, 977, 824, 910],
      "WindowCenter": [342.0, 343.0, 344.0, 343.0, 344.0, 344.0, 343.0, 344.0, 344.0, 343.0, 344.0, 345.0, 344.0, 342.0, 343.0, 343.0, 343.0, 343.0, 344.0, 344.0, 344.0, 345.0, 341.0, 343.0, 343.0, 341.0, 342.0, 340.0, 343.0, 344.0, 342.0, 343.0, 342.0, 343.0, 343.0, 343.0, 343.0, 340.0, 342.0, 343.0, 341.0, 343.0, 344.0, 343.0, 344.0, 342.0, 343.0, 344.0, 343.0, 343.0, 344.0, 342.0, 343.0, 343.0, 341.0, 343.0, 343.0, 339.0, 343.0, 343.0, 342.0, 342.0, 343.0, 343.0, 343.0, 341.0, 344.0, 344.0, 342.0, 343.0, 342.0, 343.0, 344.0, 343.0, 343.0, 343.0, 341.0, 343.0, 343.0, 343.0, 344.0, 342.0, 343.0, 345.0, 342.0, 343.0, 342.0, 343.0, 343.0, 342.0, 343.0, 342.0, 343.0, 345.0, 342.0, 344.0, 341.0, 343.0, 344.0, 342.0, 344.0, 340.0, 343.0, 342.0, 344.0, 344.0, 341.0, 343.0, 342.0, 343.0, 343.0, 342.0, 344.0, 342.0, 343.0, 342.0, 343.0, 343.0, 340.0, 343.0, 344.0, 341.0, 343.0, 342.0, 343.0, 343.0, 341.0, 343.0, 344.0, 342.0, 344.0, 345.0, 341.0, 342.0, 342.0, 342.0, 344.0, 341.0, 343.0, 343.0, 341.0, 343.0, 343.0, 341.0, 342.0, 340.0, 343.0, 343.0, 341.0, 343.0, 342.0, 342.0, 343.0, 339.0, 342.0, 342.0, 342.0, 344.0, 342.0, 343.0, 343.0, 342.0, 343.0, 342.0, 343.0, 343.0, 342.0, 343.0, 340.0, 342.0, 344.0, 341.0, 344.0, 346.0, 341.0, 343.0, 341.0, 341.0, 343.0, 341.0, 344.0, 344.0, 341.0, 343.0, 343.0, 341.0, 343.0, 342.0, 343.0, 344.0, 342.0, 343.0, 341.0, 342.0, 343.0, 342.0, 343.0, 343.0, 343.0, 343.0, 345.0, 342.0, 343.0, 341.0, 342.0, 343.0, 342.0, 343.0, 341.0, 343.0, 344.0, 342.0, 343.0, 342.0, 343.0, 343.0, 341.0, 343.0, 342.0, 342.0, 343.0, 341.0, 344.0, 344.0, 342.0, 343.0, 341.0, 343.0, 343.0, 342.0, 343.0, 341.0, 343.0, 343.0, 342.0, 342.0, 341.0, 342.0, 343.0, 340.0, 342.0, 343.0, 344.0, 344.0, 342.0, 343.0, 344.0, 342.0, 343.0, 341.0, 342.0, 343.0, 343.0, 343.0, 341.0, 343.0, 344.0, 342.0, 344.0, 341.0, 344.0, 344.0, 342.0, 343.0, 340.0, 343.0, 343.0, 341.0, 343.0, 344.0, 341.0, 343.0, 342.0, 342.0, 342.0, 342.0, 342.0, 343.0, 341.0, 343.0],
      "WindowWidth": [734.0, 735.0, 737.0, 735.0, 737.0, 737.0, 734.0, 736.0, 736.0, 735.0, 736.0, 737.0, 736.0, 732.0, 734.0, 734.0, 734.0, 734.0, 736.0, 736.0, 737.0, 737.0, 731.0, 734.0, 733.0, 732.0, 732.0, 730.0, 733.0, 735.0, 733.0, 734.0, 733.0, 735.0, 733.0, 733.0, 733.0, 729.0, 732.0, 734.0, 731.0, 735.0, 736.0, 734.0, 736.0, 733.0, 734.0, 736.0, 735.0, 734.0, 735.0, 733.0, 734.0, 734.0, 731.0, 735.0, 734.0, 729.0, 733.0, 734.0, 733.0, 733.0, 735.0, 734.0, 735.0, 731.0, 735.0, 736.0, 732.0, 735.0, 733.0, 734.0, 735.0, 734.0, 734.0, 734.0, 731.0, 735.0, 734.0, 734.0, 736.0, 732.0, 734.0, 736.0, 732.0, 734.0, 732.0, 734.0, 734.0, 732.0, 734.0, 733.0, 735.0, 736.0, 734.0, 736.0, 732.0, 735.0, 735.0, 733.0, 736.0, 731.0, 735.0, 733.0, 735.0, 736.0, 732.0, 733.0, 732.0, 733.0, 734.0, 734.0, 736.0, 733.0, 735.0, 733.0, 734.0, 734.0, 730.0, 733.0, 735.0, 731.0, 734.0, 733.0, 734.0, 734.0, 731.0, 734.0, 736.0, 733.0, 735.0, 737.0, 732.0, 733.0, 732.0, 733.0, 736.0, 732.0, 735.0, 735.0, 731.0, 733.0, 734.0, 731.0, 732.0, 730.0, 734.0, 734.0, 731.0, 733.0, 733.0, 732.0, 733.0, 729.0, 733.0, 733.0, 734.0, 735.0, 733.0, 734.0, 734.0, 732.0, 735.0, 733.0, 734.0, 734.0, 732.0, 734.0, 730.0, 733.0, 735.0, 732.0, 736.0, 738.0, 731.0, 733.0, 732.0, 732.0, 733.0, 731.0, 735.0, 736.0, 732.0, 734.0, 734.0, 731.0, 735.0, 732.0, 734.0, 735.0, 733.0, 735.0, 731.0, 733.0, 734.0, 733.0, 734.0, 735.0, 734.0, 735.0, 737.0, 733.0, 734.0, 732.0, 733.0, 734.0, 732.0, 734.0, 731.0, 734.0, 736.0, 733.0, 734.0, 733.0, 734.0, 735.0, 731.0, 735.0, 733.0, 733.0, 733.0, 731.0, 735.0, 735.0, 733.0, 735.0, 731.0, 734.0, 734.0, 733.0, 734.0, 732.0, 735.0, 734.0, 732.0, 733.0, 731.0, 733.0, 734.0, 730.0, 733.0, 734.0, 735.0, 736.0, 733.0, 735.0, 735.0, 733.0, 734.0, 731.0, 733.0, 734.0, 734.0, 734.0, 733.0, 735.0, 735.0, 733.0, 735.0, 732.0, 735.0, 735.0, 733.0, 735.0, 730.0, 734.0, 735.0, 731.0, 734.0, 735.0, 731.0, 734.0, 732.0, 732.0, 733.0, 733.0, 733.0, 734.0, 732.0, 734.0]
    },
    "slices": {}
  }
}