{
  "AcquisitionMatrixPE": 96,
  "AcquisitionNumber": 1,
  "AcquisitionTime": "13:52:12.052500",
  "BandwidthPerPixelPhaseEncode": 18.939,
  "BaseResolution": 96,
  "BodyPartExamined": "BRAIN",
  "ConsistencyInfo": "N4_VE11C_LATEST_20160120",
  "ConversionSoftware": "dcm2niix",
  "ConversionSoftwareVersion": "v1.0.20170923 (OpenJPEG build) GCC6.3.0",
  "DerivedVendorReportedEchoSpacing": 0.000550011,
  "DeviceSerialNumber": "66112",
  "DwellTime": 2.3e-06,
  "EchoTime": 0.033,
  "EchoTrainLength": 96,
  "EffectiveEchoSpacing": 0.000550011,
  "FlipAngle": 64,
  "ImageType": [
    "ORIGINAL",
    "PRIMARY",
    "FMRI",
    "NONE",
    "ND",
    "NORM",
    "MOSAIC"
],
  "InstitutionAddress": "Maynard_3_Hanover_NH_US_03755",
  "InstitutionName": "Dartmouth_College_-_PBS",
  "MagneticFieldStrength": 3,
  "Manufacturer": "Siemens",
  "ManufacturersModelName": "Prisma",
  "Modality": "MR",
  "MultibandAccelerationFactor": 4,
  "PartialFourier": 1,
  "PercentPhaseFOV": 100,
  "PhaseEncodingDirection": "j-",
  "PhaseEncodingSteps": 96,
  "PhaseResolution": 1,
  "ProcedureStepDescription": "Gobbini_Matteo_1017_famface-angles",
  "ProtocolName": "func_run-07_task-str1back",
  "PulseSequenceDetails": "%SiemensSeq%_ep2d_bold",
  "ReceiveCoilActiveElements": "HEA;HEP",
  "ReceiveCoilName": "Head_32",
  "ReconMatrixPE": 96,
  "RepetitionTime": 1.25,
  "ScanOptions": "FS",
  "ScanningSequence": "EP",
  "SequenceName": "_epfid2d1_96",
  "SequenceVariant": "SK",
  "SeriesDescription": "func_run-07_task-str1back",
  "SliceTiming": [0.8775, 0, 0.615, 0.0875, 0.7025, 0.175, 0.79, 0.3525, 0.9675, 0.44, 1.055, 0.5275, 1.1425, 0.2625, 0.8775, 0, 0.615, 0.0875, 0.7025, 0.175, 0.79, 0.3525, 0.9675, 0.44, 1.055, 0.5275, 1.1425, 0.2625, 0.8775, 0, 0.615, 0.0875, 0.7025, 0.175, 0.79, 0.3525, 0.9675, 0.44, 1.055, 0.5275, 1.1425, 0.2625, 0.8775, 0, 0.615, 0.0875, 0.7025, 0.175, 0.79, 0.3525, 0.9675, 0.44, 1.055, 0.5275, 1.1425, 0.2625],
  "SoftwareVersions": "syngo_MR_E11",
  "StationName": "AWP66112",
  "TaskName": "str1back",
  "TotalReadoutTime": 0.0522511,
  "dcmmeta_affine": [
    [-2.4951536655426025, 0.061851657927036285, 0.14276832342147827, 115.32459259033203],
    [0.06782371550798416, 2.496931314468384, 0.10360315442085266, -107.43690490722656],
    [0.14002986252307892, -0.10727554559707642, 2.4937689304351807, -63.76443099975586],
    [0.0, 0.0, 0.0, 1.0]
],
  "dcmmeta_reorient_transform": [
    [0.0, -1.0, 0.0, 95.0],
    [1.0, 0.0, 0.0, 0.0],
    [0.0, 0.0, 1.0, 0.0],
    [0.0, 0.0, 0.0, 1.0]
],
  "dcmmeta_shape": [96, 96, 56, 280],
  "dcmmeta_slice_dim": 2,
  "dcmmeta_version": 0.6,
  "global": {
    "const": {
      "AccessionNumber": "A000465",
      "AcquisitionMatrix": [96, 0, 0, 96],
      "AngioFlag": "N",
      "BitsAllocated": 16,
      "BitsStored": 12,
      "BodyPartExamined": "BRAIN",
      "Columns": 768,
      "EchoNumbers": 1,
      "EchoTime": 33.0,
      "EchoTrainLength": 96,
      "FlipAngle": 64.0,
      "HighBit": 11,
      "ImageOrientationPatient": [0.99806144738102, -0.0271294873154, 0.05601194666959, 0.02474066350521, 0.99877255303722, 0.04291021869943],
      "ImagePositionPatient": [-980.35427177015, -945.95175486667, -157.05022824766],
      "ImageType": [
        "ORIGINAL",
        "PRIMARY",
        "FMRI",
        "NONE",
        "ND",
        "NORM",
        "MOSAIC"
],
      "ImagedNucleus": "1H",
      "ImagingFrequency": 123.25236,
      "InPlanePhaseEncodingDirection": "COL",
      "MRAcquisitionType": "2D",
      "MagneticFieldStrength": 3.0,
      "Manufacturer": "SIEMENS",
      "ManufacturerModelName": "Prisma",
      "Modality": "MR",
      "NumberOfAverages": 1.0,
      "NumberOfPhaseEncodingSteps": 96,
      "PercentPhaseFieldOfView": 100.0,
      "PercentSampling": 100.0,
      "PerformedProcedureStepStartTime": "125640.563000",
      "PhotometricInterpretation": "MONOCHROME2",
      "PixelBandwidth": 2265.0,
      "PixelRepresentation": 0,
      "PixelSpacing": [2.5, 2.5],
      "PositionReferenceIndicator": "",
      "ProtocolName": "func_run-07_task-str1back",
      "RepetitionTime": 1250.0,
      "Rows": 768,
      "SAR": 0.04532105511013,
      "SamplesPerPixel": 1,
      "ScanOptions": "FS",
      "ScanningSequence": "EP",
      "SequenceName": "*epfid2d1_96",
      "SequenceVariant": "SK",
      "SeriesDescription": "func_run-07_task-str1back",
      "SeriesNumber": 50,
      "SeriesTime": "135213.942000",
      "SliceLocation": -61.471946402508,
      "SliceThickness": 2.5,
      "SmallestImagePixelValue": 0,
      "SoftwareVersions": "syngo MR E11",
      "SpacingBetweenSlices": 2.4999999815211,
      "SpecificCharacterSet": "ISO_IR 100",
      "StudyID": "1",
      "StudyTime": "125640.491000",
      "TransmitCoilName": "Body",
      "VariableFlipAngleFlag": "N",
      "WindowCenterWidthExplanation": "Algo1",
      "dBdt": 0.0},
    "slices": {}
  },
  "time": {
    "samples": {
      "AcquisitionNumber": [1, 2, 3, 4, 5, 6, 7, 8, 9, 10, 11, 12, 13, 14, 15, 16, 17, 18, 19, 20, 21, 22, 23, 24, 25, 26, 27, 28, 29, 30, 31, 32, 33, 34, 35, 36, 37, 38, 39, 40, 41, 42, 43, 44, 45, 46, 47, 48, 49, 50, 51, 52, 53, 54, 55, 56, 57, 58, 59, 60, 61, 62, 63, 64, 65, 66, 67, 68, 69, 70, 71, 72, 73, 74, 75, 76, 77, 78, 79, 80, 81, 82, 83, 84, 85, 86, 87, 88, 89, 90, 91, 92, 93, 94, 95, 96, 97, 98, 99, 100, 101, 102, 103, 104, 105, 106, 107, 108, 109, 110, 111, 112, 113, 114, 115, 116, 117, 118, 119, 120, 121, 122, 123, 124, 125, 126, 127, 128, 129, 130, 131, 132, 133, 134, 135, 136, 137, 138, 139, 140, 141, 142, 143, 144, 145, 146, 147, 148, 149, 150, 151, 152, 153, 154, 155, 156, 157, 158, 159, 160, 161, 162, 163, 164, 165, 166, 167, 168, 169, 170, 171, 172, 173, 174, 175, 176, 177, 178, 179, 180, 181, 182, 183, 184, 185, 186, 187, 188, 189, 190, 191, 192, 193, 194, 195, 196, 197, 198, 199, 200, 201, 202, 203, 204, 205, 206, 207, 208, 209, 210, 211, 212, 213, 214, 215, 216, 217, 218, 219, 220, 221, 222, 223, 224, 225, 226, 227, 228, 229, 230, 231, 232, 233, 234, 235, 236, 237, 238, 239, 240, 241, 242, 243, 244, 245, 246, 247, 248, 249, 250, 251, 252, 253, 254, 255, 256, 257, 258, 259, 260, 261, 262, 263, 264, 265, 266, 267, 268, 269, 270, 271, 272, 273, 274, 275, 276, 277, 278, 279, 280],
      "AcquisitionTime": ["135212.052500", "135213.302500", "135214.552500", "135215.802500", "135217.052500", "135218.302500", "135219.552500", "135220.802500", "135222.052500", "135223.302500", "135224.552500", "135225.802500", "135227.052500", "135228.302500", "135229.552500", "135230.802500", "135232.052500", "135233.302500", "135234.552500", "135235.802500", "135237.052500", "135238.302500", "135239.552500", "135240.802500", "135242.052500", "135243.302500", "135244.552500", "135245.802500", "135247.052500", "135248.302500", "135249.552500", "135250.802500", "135252.052500", "135253.302500", "135254.552500", "135255.802500", "135257.052500", "135258.302500", "135259.552500", "135300.802500", "135302.052500", "135303.302500", "135304.552500", "135305.802500", "135307.052500", "135308.302500", "135309.552500", "135310.802500", "135312.052500", "135313.302500", "135314.552500", "135315.802500", "135317.052500", "135318.302500", "135319.552500", "135320.802500", "135322.052500", "135323.302500", "135324.552500", "135325.802500", "135327.052500", "135328.302500", "135329.552500", "135330.802500", "135332.052500", "135333.302500", "135334.552500", "135335.802500", "135337.052500", "135338.302500", "135339.552500", "135340.802500", "135342.052500", "135343.302500", "135344.552500", "135345.802500", "135347.052500", "135348.302500", "135349.552500", "135350.802500", "135352.052500", "135353.302500", "135354.552500", "135355.802500", "135357.052500", "135358.302500", "135359.552500", "135400.802500", "135402.052500", "135403.302500", "135404.552500", "135405.802500", "135407.052500", "135408.302500", "135409.552500", "135410.802500", "135412.052500", "135413.302500", "135414.552500", "135415.802500", "135417.052500", "135418.302500", "135419.552500", "135420.802500", "135422.052500", "135423.302500", "135424.552500", "135425.802500", "135427.052500", "135428.302500", "135429.552500", "135430.802500", "135432.052500", "135433.302500", "135434.552500", "135435.802500", "135437.052500", "135438.302500", "135439.552500", "135440.802500", "135442.052500", "135443.302500", "135444.552500", "135445.802500", "135447.052500", "135448.302500", "135449.552500", "135450.802500", "135452.052500", "135453.302500", "135454.552500", "135455.802500", "135457.052500", "135458.302500", "135459.552500", "135500.802500", "135502.052500", "135503.302500", "135504.552500", "135505.802500", "135507.052500", "135508.302500", "135509.552500", "135510.802500", "135512.052500", "135513.302500", "135514.552500", "135515.802500", "135517.052500", "135518.302500", "135519.552500", "135520.802500", "135522.052500", "135523.302500", "135524.552500", "135525.802500", "135527.052500", "135528.302500", "135529.552500", "135530.802500", "135532.052500", "135533.302500", "135534.552500", "135535.802500", "135537.052500", "135538.302500", "135539.552500", "135540.802500", "135542.052500", "135543.302500", "135544.552500", "135545.802500", "135547.052500", "135548.302500", "135549.552500", "135550.802500", "135552.052500", "135553.302500", "135554.552500", "135555.802500", "135557.052500", "135558.302500", "135559.552500", "135600.802500", "135602.052500", "135603.302500", "135604.552500", "135605.802500", "135607.052500", "135608.302500", "135609.552500", "135610.802500", "135612.052500", "135613.302500", "135614.552500", "135615.802500", "135617.052500", "135618.302500", "135619.552500", "135620.802500", "135622.052500", "135623.302500", "135624.552500", "135625.802500", "135627.052500", "135628.302500", "135629.552500", "135630.802500", "135632.052500", "135633.302500", "135634.552500", "135635.802500", "135637.052500", "135638.302500", "135639.552500", "135640.802500", "135642.052500", "135643.302500", "135644.552500", "135645.802500", "135647.052500", "135648.302500", "135649.552500", "135650.802500", "135652.052500", "135653.302500", "135654.552500", "135655.802500", "135657.052500", "135658.302500", "135659.552500", "135700.802500", "135702.052500", "135703.302500", "135704.552500", "135705.802500", "135707.052500", "135708.302500", "135709.552500", "135710.802500", "135712.052500", "135713.302500", "135714.552500", "135715.802500", "135717.052500", "135718.302500", "135719.552500", "135720.802500", "135722.052500", "135723.302500", "135724.552500", "135725.802500", "135727.052500", "135728.302500", "135729.552500", "135730.802500", "135732.052500", "135733.302500", "135734.552500", "135735.802500", "135737.052500", "135738.302500", "135739.552500", "135740.802500", "135742.052500", "135743.302500", "135744.552500", "135745.802500", "135747.052500", "135748.302500", "135749.552500", "135750.802500", "135752.052500", "135753.302500", "135754.552500", "135755.802500", "135757.052500", "135758.302500", "135759.552500", "135800.802500"],
      "ContentTime": ["135213.946000", "135215.009000", "135216.250000", "135217.594000", "135218.780000", "135219.991000", "135221.225000", "135222.505000", "135223.751000", "135225.000000", "135226.241000", "135227.489000", "135228.757000", "135230.009000", "135231.226000", "135232.509000", "135233.815000", "135234.997000", "135236.276000", "135237.469000", "135238.763000", "135239.991000", "135241.248000", "135242.533000", "135243.786000", "135245.000000", "135246.238000", "135247.490000", "135248.747000", "135249.985000", "135251.260000", "135252.476000", "135253.709000", "135254.989000", "135256.236000", "135257.489000", "135258.745000", "135259.980000", "135301.234000", "135302.500000", "135303.750000", "135305.053000", "135306.232000", "135307.536000", "135308.739000", "135310.044000", "135311.276000", "135312.533000", "135313.789000", "135315.058000", "135316.289000", "135317.518000", "135318.753000", "135320.002000", "135321.251000", "135322.495000", "135323.799000", "135325.008000", "135326.276000", "135327.502000", "135328.765000", "135330.022000", "135331.245000", "135332.471000", "135333.720000", "135334.977000", "135336.246000", "135337.503000", "135338.737000", "135340.005000", "135341.257000", "135342.482000", "135343.759000", "135344.987000", "135346.218000", "135347.507000", "135348.734000", "135349.997000", "135351.266000", "135352.489000", "135353.748000", "135354.968000", "135356.231000", "135357.496000", "135358.753000", "135359.990000", "135401.252000", "135402.502000", "135403.742000", "135404.989000", "135406.248000", "135407.493000", "135408.732000", "135409.992000", "135411.248000", "135412.510000", "135413.751000", "135414.994000", "135416.280000", "135417.552000", "135418.744000", "135420.007000", "135421.272000", "135422.503000", "135423.783000", "135425.002000", "135426.247000", "135427.503000", "135428.741000", "135430.001000", "135431.225000", "135432.513000", "135433.768000", "135435.046000", "135436.283000", "135437.506000", "135438.749000", "135440.004000", "135441.252000", "135442.511000", "135443.770000", "135444.993000", "135446.260000", "135447.508000", "135448.752000", "135450.032000", "135451.259000", "135452.527000", "135453.762000", "135455.017000", "135456.265000", "135457.494000", "135458.735000", "135500.010000", "135501.272000", "135502.512000", "135503.761000", "135505.086000", "135506.272000", "135507.513000", "135508.762000", "135510.073000", "135511.259000", "135512.500000", "135513.731000", "135515.005000", "135516.251000", "135517.520000", "135518.745000", "135520.010000", "135521.281000", "135522.505000", "135523.758000", "135525.040000", "135526.268000", "135527.504000", "135528.737000", "135530.024000", "135531.269000", "135532.518000", "135533.758000", "135535.038000", "135536.278000", "135537.502000", "135538.747000", "135540.017000", "135541.244000", "135542.535000", "135543.753000", "135545.005000", "135546.267000", "135547.520000", "135548.752000", "135549.986000", "135551.251000", "135552.514000", "135553.763000", "135555.023000", "135556.252000", "135557.517000", "135558.762000", "135600.025000", "135601.270000", "135602.529000", "135603.967000", "135605.013000", "135606.267000", "135607.510000", "135608.760000", "135610.036000", "135611.243000", "135612.500000", "135613.755000", "135615.011000", "135616.245000", "135617.519000", "135618.793000", "135620.009000", "135621.259000", "135622.526000", "135623.763000", "135625.012000", "135626.283000", "135627.505000", "135628.735000", "135630.009000", "135631.271000", "135632.501000", "135633.744000", "135635.015000", "135636.242000", "135637.511000", "135638.781000", "135640.066000", "135641.245000", "135642.542000", "135643.727000", "135644.988000", "135646.294000", "135647.503000", "135648.728000", "135650.010000", "135651.258000", "135652.508000", "135653.743000", "135654.994000", "135656.246000", "135657.501000", "135658.755000", "135659.996000", "135701.216000", "135702.535000", "135703.745000", "135705.016000", "135706.276000", "135707.458000", "135708.741000", "135710.001000", "135711.233000", "135712.493000", "135713.762000", "135714.990000", "135716.266000", "135717.510000", "135718.786000", "135720.037000", "135721.277000", "135722.501000", "135723.758000", "135725.008000", "135726.245000", "135727.514000", "135728.762000", "135729.994000", "135731.258000", "135732.501000", "135733.790000", "135734.977000", "135736.259000", "135737.502000", "135738.755000", "135740.013000", "135741.244000", "135742.521000", "135743.762000", "135745.010000", "135746.278000", "135747.526000", "135748.779000", "135750.024000", "135751.289000", "135752.519000", "135753.786000", "135755.014000", "135756.246000", "135757.498000", "135758.765000", "135759.981000", "135801.259000", "135802.542000"],
      "InstanceCreationTime": ["135213.946000", "135215.009000", "135216.250000", "135217.594000", "135218.780000", "135219.991000", "135221.225000", "135222.505000", "135223.751000", "135225.000000", "135226.241000", "135227.489000", "135228.757000", "135230.009000", "135231.226000", "135232.509000", "135233.815000", "135234.997000", "135236.276000", "135237.469000", "135238.763000", "135239.991000", "135241.248000", "135242.533000", "135243.786000", "135245.000000", "135246.238000", "135247.490000", "135248.747000", "135249.985000", "135251.260000", "135252.476000", "135253.709000", "135254.989000", "135256.236000", "135257.489000", "135258.745000", "135259.980000", "135301.234000", "135302.500000", "135303.750000", "135305.053000", "135306.232000", "135307.536000", "135308.739000", "135310.044000", "135311.276000", "135312.533000", "135313.789000", "135315.058000", "135316.289000", "135317.518000", "135318.753000", "135320.002000", "135321.251000", "135322.495000", "135323.799000", "135325.008000", "135326.276000", "135327.502000", "135328.765000", "135330.022000", "135331.245000", "135332.471000", "135333.720000", "135334.977000", "135336.246000", "135337.503000", "135338.737000", "135340.005000", "135341.257000", "135342.482000", "135343.759000", "135344.987000", "135346.218000", "135347.507000", "135348.734000", "135349.997000", "135351.266000", "135352.489000", "135353.748000", "135354.968000", "135356.231000", "135357.496000", "135358.753000", "135359.990000", "135401.252000", "135402.502000", "135403.742000", "135404.989000", "135406.248000", "135407.493000", "135408.732000", "135409.992000", "135411.248000", "135412.510000", "135413.751000", "135414.994000", "135416.280000", "135417.552000", "135418.744000", "135420.007000", "135421.272000", "135422.503000", "135423.783000", "135425.002000", "135426.247000", "135427.503000", "135428.741000", "135430.001000", "135431.225000", "135432.513000", "135433.768000", "135435.046000", "135436.283000", "135437.506000", "135438.749000", "135440.004000", "135441.252000", "135442.511000", "135443.770000", "135444.993000", "135446.260000", "135447.508000", "135448.752000", "135450.032000", "135451.259000", "135452.527000", "135453.762000", "135455.017000", "135456.265000", "135457.494000", "135458.735000", "135500.010000", "135501.272000", "135502.512000", "135503.761000", "135505.086000", "135506.272000", "135507.513000", "135508.762000", "135510.073000", "135511.259000", "135512.500000", "135513.731000", "135515.005000", "135516.251000", "135517.520000", "135518.745000", "135520.010000", "135521.281000", "135522.505000", "135523.758000", "135525.040000", "135526.268000", "135527.504000", "135528.737000", "135530.024000", "135531.269000", "135532.518000", "135533.758000", "135535.038000", "135536.278000", "135537.502000", "135538.747000", "135540.017000", "135541.244000", "135542.535000", "135543.753000", "135545.005000", "135546.267000", "135547.520000", "135548.752000", "135549.986000", "135551.251000", "135552.514000", "135553.763000", "135555.023000", "135556.252000", "135557.517000", "135558.762000", "135600.025000", "135601.270000", "135602.529000", "135603.967000", "135605.013000", "135606.267000", "135607.510000", "135608.760000", "135610.036000", "135611.243000", "135612.500000", "135613.755000", "135615.011000", "135616.245000", "135617.519000", "135618.793000", "135620.009000", "135621.259000", "135622.526000", "135623.763000", "135625.012000", "135626.283000", "135627.505000", "135628.735000", "135630.009000", "135631.271000", "135632.501000", "135633.744000", "135635.015000", "135636.242000", "135637.511000", "135638.781000", "135640.066000", "135641.245000", "135642.542000", "135643.727000", "135644.988000", "135646.294000", "135647.503000", "135648.728000", "135650.010000", "135651.258000", "135652.508000", "135653.743000", "135654.994000", "135656.246000", "135657.501000", "135658.755000", "135659.996000", "135701.216000", "135702.535000", "135703.745000", "135705.016000", "135706.276000", "135707.458000", "135708.741000", "135710.001000", "135711.233000", "135712.493000", "135713.762000", "135714.990000", "135716.266000", "135717.510000", "135718.786000", "135720.037000", "135721.277000", "135722.501000", "135723.758000", "135725.008000", "135726.245000", "135727.514000", "135728.762000", "135729.994000", "135731.258000", "135732.501000", "135733.790000", "135734.977000", "135736.259000", "135737.502000", "135738.755000", "135740.013000", "135741.244000", "135742.521000", "135743.762000", "135745.010000", "135746.278000", "135747.526000", "135748.779000", "135750.024000", "135751.289000", "135752.519000", "135753.786000", "135755.014000", "135756.246000", "135757.498000", "135758.765000", "135759.981000", "135801.259000", "135802.542000"],
      "InstanceNumber": [1, 2, 3, 4, 5, 6, 7, 8, 9, 10, 11, 12, 13, 14, 15, 16, 17, 18, 19, 20, 21, 22, 23, 24, 25, 26, 27, 28, 29, 30, 31, 32, 33, 34, 35, 36, 37, 38, 39, 40, 41, 42, 43, 44, 45, 46, 47, 48, 49, 50, 51, 52, 53, 54, 55, 56, 57, 58, 59, 60, 61, 62, 63, 64, 65, 66, 67, 68, 69, 70, 71, 72, 73, 74, 75, 76, 77, 78, 79, 80, 81, 82, 83, 84, 85, 86, 87, 88, 89, 90, 91, 92, 93, 94, 95, 96, 97, 98, 99, 100, 101, 102, 103, 104, 105, 106, 107, 108, 109, 110, 111, 112, 113, 114, 115, 116, 117, 118, 119, 120, 121, 122, 123, 124, 125, 126, 127, 128, 129, 130, 131, 132, 133, 134, 135, 136, 137, 138, 139, 140, 141, 142, 143, 144, 145, 146, 147, 148, 149, 150, 151, 152, 153, 154, 155, 156, 157, 158, 159, 160, 161, 162, 163, 164, 165, 166, 167, 168, 169, 170, 171, 172, 173, 174, 175, 176, 177, 178, 179, 180, 181, 182, 183, 184, 185, 186, 187, 188, 189, 190, 191, 192, 193, 194, 195, 196, 197, 198, 199, 200, 201, 202, 203, 204, 205, 206, 207, 208, 209, 210, 211, 212, 213, 214, 215, 216, 217, 218, 219, 220, 221, 222, 223, 224, 225, 226, 227, 228, 229, 230, 231, 232, 233, 234, 235, 236, 237, 238, 239, 240, 241, 242, 243, 244, 245, 246, 247, 248, 249, 250, 251, 252, 253, 254, 255, 256, 257, 258, 259, 260, 261, 262, 263, 264, 265, 266, 267, 268, 269, 270, 271, 272, 273, 274, 275, 276, 277, 278, 279, 280],
      "LargestImagePixelValue": [961, 988, 723, 900, 878, 1014, 757, 933, 1002, 740, 902, 1008, 737, 891, 1040, 785, 1017, 1098, 841, 907, 886, 891, 978, 867, 998, 1042, 756, 973, 989, 863, 944, 915, 882, 1018, 781, 954, 1007, 798, 914, 965, 850, 1002, 723, 913, 1030, 845, 981, 868, 903, 991, 876, 939, 912, 868, 986, 901, 953, 962, 830, 975, 839, 916, 986, 810, 997, 815, 926, 975, 898, 910, 1074, 856, 963, 723, 862, 1052, 823, 895, 1090, 758, 964, 1059, 817, 871, 872, 872, 997, 751, 936, 1078, 786, 1007, 953, 889, 1022, 798, 952, 1005, 875, 984, 751, 881, 967, 855, 881, 875, 856, 964, 784, 944, 957, 862, 960, 906, 980, 1059, 845, 1024, 882, 894, 991, 920, 942, 958, 874, 1023, 781, 930, 1044, 900, 903, 737, 901, 1073, 858, 1008, 753, 943, 1096, 832, 962, 809, 871, 1042, 848, 977, 806, 933, 1061, 891, 883, 721, 890, 1051, 864, 994, 812, 971, 1065, 895, 885, 867, 834, 1013, 748, 936, 853, 844, 976, 787, 907, 971, 853, 1003, 751, 940, 936, 873, 955, 783, 944, 1065, 864, 918, 921, 874, 1030, 711, 939, 951, 857, 1017, 759, 980, 994, 869, 934, 825, 928, 1055, 874, 895, 710, 848, 1060, 787, 951, 980, 908, 1048, 811, 967, 1054, 814, 897, 971, 860, 1018, 826, 964, 1064, 885, 1022, 784, 894, 867, 881, 1031, 788, 976, 1014, 892, 1052, 716, 917, 895, 889, 1023, 819, 958, 1029, 820, 905, 850, 898, 1037, 801, 928, 984, 857, 982, 821, 908, 1029, 819, 960, 945, 833, 996, 810, 911, 1033, 739, 922, 982, 855, 994, 800, 921, 1017, 736, 878, 1012, 820, 892, 901, 875, 1001, 803, 911],
      "WindowCenter": [340.0, 341.0, 338.0, 342.0, 342.0, 343.0, 340.0, 342.0, 343.0, 341.0, 344.0, 346.0, 342.0, 344.0, 345.0, 341.0, 344.0, 345.0, 343.0, 344.0, 344.0, 344.0, 344.0, 343.0, 344.0, 344.0, 341.0, 344.0, 344.0, 342.0, 344.0, 343.0, 343.0, 344.0, 341.0, 343.0, 344.0, 341.0, 343.0, 343.0, 342.0, 343.0, 341.0, 343.0, 345.0, 342.0, 344.0, 342.0, 343.0, 343.0, 343.0, 343.0, 343.0, 342.0, 344.0, 343.0, 343.0, 344.0, 342.0, 343.0, 342.0, 344.0, 344.0, 342.0, 344.0, 341.0, 343.0, 344.0, 342.0, 343.0, 345.0, 344.0, 344.0, 341.0, 343.0, 345.0, 343.0, 344.0, 345.0, 341.0, 344.0, 344.0, 342.0, 342.0, 343.0, 343.0, 344.0, 342.0, 344.0, 345.0, 341.0, 344.0, 343.0, 342.0, 344.0, 342.0, 344.0, 344.0, 342.0, 343.0, 341.0, 342.0, 343.0, 342.0, 343.0, 343.0, 343.0, 344.0, 341.0, 344.0, 343.0, 342.0, 344.0, 344.0, 345.0, 345.0, 342.0, 344.0, 342.0, 342.0, 343.0, 343.0, 343.0, 343.0, 342.0, 343.0, 340.0, 342.0, 343.0, 342.0, 342.0, 341.0, 343.0, 345.0, 342.0, 343.0, 340.0, 342.0, 344.0, 342.0, 343.0, 342.0, 344.0, 345.0, 343.0, 343.0, 340.0, 342.0, 343.0, 342.0, 342.0, 341.0, 343.0, 345.0, 342.0, 344.0, 341.0, 343.0, 343.0, 341.0, 342.0, 342.0, 342.0, 344.0, 341.0, 343.0, 342.0, 342.0, 344.0, 342.0, 344.0, 344.0, 342.0, 343.0, 341.0, 343.0, 343.0, 342.0, 344.0, 341.0, 343.0, 344.0, 342.0, 343.0, 343.0, 342.0, 344.0, 340.0, 344.0, 343.0, 342.0, 344.0, 341.0, 344.0, 343.0, 342.0, 344.0, 342.0, 343.0, 344.0, 342.0, 342.0, 340.0, 343.0, 346.0, 343.0, 344.0, 343.0, 342.0, 343.0, 341.0, 343.0, 344.0, 341.0, 342.0, 343.0, 342.0, 344.0, 342.0, 343.0, 343.0, 342.0, 343.0, 341.0, 343.0, 343.0, 344.0, 345.0, 341.0, 344.0, 343.0, 342.0, 344.0, 340.0, 344.0, 344.0, 343.0, 344.0, 342.0, 343.0, 343.0, 341.0, 342.0, 342.0, 343.0, 344.0, 341.0, 343.0, 343.0, 342.0, 343.0, 342.0, 343.0, 344.0, 342.0, 344.0, 343.0, 342.0, 344.0, 342.0, 344.0, 344.0, 340.0, 343.0, 343.0, 342.0, 344.0, 341.0, 343.0, 343.0, 340.0, 342.0, 344.0, 342.0, 343.0, 343.0, 342.0, 344.0, 341.0, 343.0],
      "WindowWidth": [730.0, 730.0, 726.0, 731.0, 732.0, 734.0, 730.0, 733.0, 734.0, 731.0, 736.0, 739.0, 734.0, 736.0, 737.0, 732.0, 736.0, 737.0, 734.0, 736.0, 736.0, 736.0, 736.0, 735.0, 736.0, 736.0, 732.0, 735.0, 735.0, 734.0, 735.0, 734.0, 734.0, 736.0, 732.0, 735.0, 736.0, 732.0, 734.0, 735.0, 733.0, 735.0, 731.0, 734.0, 737.0, 733.0, 735.0, 734.0, 734.0, 735.0, 734.0, 734.0, 734.0, 732.0, 735.0, 734.0, 735.0, 735.0, 733.0, 735.0, 734.0, 735.0, 736.0, 733.0, 736.0, 732.0, 734.0, 735.0, 733.0, 734.0, 736.0, 736.0, 735.0, 731.0, 734.0, 738.0, 735.0, 735.0, 738.0, 731.0, 735.0, 735.0, 732.0, 733.0, 734.0, 735.0, 736.0, 733.0, 736.0, 736.0, 732.0, 735.0, 734.0, 733.0, 735.0, 733.0, 736.0, 736.0, 733.0, 734.0, 731.0, 733.0, 735.0, 733.0, 734.0, 734.0, 734.0, 735.0, 732.0, 735.0, 735.0, 733.0, 736.0, 735.0, 737.0, 737.0, 733.0, 735.0, 732.0, 732.0, 734.0, 734.0, 735.0, 735.0, 733.0, 734.0, 730.0, 733.0, 734.0, 733.0, 733.0, 731.0, 734.0, 736.0, 733.0, 734.0, 730.0, 733.0, 735.0, 732.0, 735.0, 733.0, 735.0, 737.0, 734.0, 734.0, 730.0, 732.0, 734.0, 733.0, 733.0, 731.0, 734.0, 737.0, 734.0, 735.0, 731.0, 733.0, 734.0, 731.0, 732.0, 732.0, 733.0, 736.0, 731.0, 734.0, 733.0, 733.0, 736.0, 733.0, 736.0, 735.0, 734.0, 735.0, 731.0, 735.0, 734.0, 733.0, 735.0, 732.0, 735.0, 735.0, 733.0, 734.0, 734.0, 733.0, 735.0, 730.0, 735.0, 735.0, 733.0, 735.0, 732.0, 735.0, 735.0, 733.0, 735.0, 733.0, 734.0, 736.0, 733.0, 733.0, 730.0, 735.0, 738.0, 734.0, 736.0, 735.0, 733.0, 734.0, 731.0, 734.0, 735.0, 731.0, 733.0, 734.0, 733.0, 736.0, 733.0, 734.0, 734.0, 732.0, 734.0, 731.0, 734.0, 735.0, 736.0, 737.0, 732.0, 735.0, 734.0, 733.0, 735.0, 730.0, 735.0, 735.0, 735.0, 736.0, 732.0, 734.0, 734.0, 731.0, 733.0, 733.0, 734.0, 736.0, 732.0, 734.0, 735.0, 733.0, 735.0, 734.0, 735.0, 736.0, 733.0, 735.0, 734.0, 733.0, 736.0, 733.0, 735.0, 736.0, 730.0, 734.0, 735.0, 733.0, 735.0, 732.0, 734.0, 734.0, 730.0, 733.0, 736.0, 733.0, 734.0, 734.0, 734.0, 735.0, 732.0, 734.0]
    },
    "slices": {}
  }
}