{
  "AcquisitionMatrixPE": 96,
  "AcquisitionNumber": 1,
  "AcquisitionTime": "13:18:35.937500",
  "BandwidthPerPixelPhaseEncode": 18.939,
  "BaseResolution": 96,
  "BodyPartExamined": "BRAIN",
  "ConsistencyInfo": "N4_VE11C_LATEST_20160120",
  "ConversionSoftware": "dcm2niix",
  "ConversionSoftwareVersion": "v1.0.20170923 (OpenJPEG build) GCC6.3.0",
  "DerivedVendorReportedEchoSpacing": 0.000550011,
  "DeviceSerialNumber": "66112",
  "DwellTime": 2.3e-06,
  "EchoTime": 0.033,
  "EchoTrainLength": 96,
  "EffectiveEchoSpacing": 0.000550011,
  "FlipAngle": 64,
  "ImageType": [
    "ORIGINAL",
    "PRIMARY",
    "FMRI",
    "NONE",
    "ND",
    "NORM",
    "MOSAIC"
],
  "InstitutionAddress": "Maynard_3_Hanover_NH_US_03755",
  "InstitutionName": "Dartmouth_College_-_PBS",
  "MagneticFieldStrength": 3,
  "Manufacturer": "Siemens",
  "ManufacturersModelName": "Prisma",
  "Modality": "MR",
  "MultibandAccelerationFactor": 4,
  "PartialFourier": 1,
  "PercentPhaseFOV": 100,
  "PhaseEncodingDirection": "j-",
  "PhaseEncodingSteps": 96,
  "PhaseResolution": 1,
  "ProcedureStepDescription": "Gobbini_Matteo_1017_famface-angles",
  "ProtocolName": "func_run-02_task-str1back",
  "PulseSequenceDetails": "%SiemensSeq%_ep2d_bold",
  "ReceiveCoilActiveElements": "HEA;HEP",
  "ReceiveCoilName": "Head_32",
  "ReconMatrixPE": 96,
  "RepetitionTime": 1.25,
  "ScanOptions": "FS",
  "ScanningSequence": "EP",
  "SequenceName": "_epfid2d1_96",
  "SequenceVariant": "SK",
  "SeriesDescription": "func_run-02_task-str1back",
  "SliceTiming": [0.88, 0, 0.615, 0.09, 0.705, 0.1775, 0.7925, 0.3525, 0.9675, 0.44, 1.055, 0.5275, 1.1425, 0.265, 0.88, 0, 0.615, 0.09, 0.705, 0.1775, 0.7925, 0.3525, 0.9675, 0.44, 1.055, 0.5275, 1.1425, 0.265, 0.88, 0, 0.615, 0.09, 0.705, 0.1775, 0.7925, 0.3525, 0.9675, 0.44, 1.055, 0.5275, 1.1425, 0.265, 0.88, 0, 0.615, 0.09, 0.705, 0.1775, 0.7925, 0.3525, 0.9675, 0.44, 1.055, 0.5275, 1.1425, 0.265],
  "SoftwareVersions": "syngo_MR_E11",
  "StationName": "AWP66112",
  "TaskName": "str1back",
  "TotalReadoutTime": 0.0522511,
  "dcmmeta_affine": [
    [-2.4951536655426025, 0.061851657927036285, 0.14276832342147827, 115.32459259033203],
    [0.06782371550798416, 2.496931314468384, 0.10360315442085266, -107.43690490722656],
    [0.14002986252307892, -0.10727554559707642, 2.4937689304351807, -63.76443099975586],
    [0.0, 0.0, 0.0, 1.0]
],
  "dcmmeta_reorient_transform": [
    [0.0, -1.0, 0.0, 95.0],
    [1.0, 0.0, 0.0, 0.0],
    [0.0, 0.0, 1.0, 0.0],
    [0.0, 0.0, 0.0, 1.0]
],
  "dcmmeta_shape": [96, 96, 56, 280],
  "dcmmeta_slice_dim": 2,
  "dcmmeta_version": 0.6,
  "global": {
    "const": {
      "AccessionNumber": "A000465",
      "AcquisitionMatrix": [96, 0, 0, 96],
      "AngioFlag": "N",
      "BitsAllocated": 16,
      "BitsStored": 12,
      "BodyPartExamined": "BRAIN",
      "Columns": 768,
      "EchoNumbers": 1,
      "EchoTime": 33.0,
      "EchoTrainLength": 96,
      "FlipAngle": 64.0,
      "HighBit": 11,
      "ImageOrientationPatient": [0.99806144738102, -0.0271294873154, 0.05601194666959, 0.02474066350521, 0.99877255303722, 0.04291021869943],
      "ImagePositionPatient": [-980.35427177015, -945.95175486667, -157.05022824766],
      "ImageType": [
        "ORIGINAL",
        "PRIMARY",
        "FMRI",
        "NONE",
        "ND",
        "NORM",
        "MOSAIC"
],
      "ImagedNucleus": "1H",
      "ImagingFrequency": 123.252353,
      "InPlanePhaseEncodingDirection": "COL",
      "MRAcquisitionType": "2D",
      "MagneticFieldStrength": 3.0,
      "Manufacturer": "SIEMENS",
      "ManufacturerModelName": "Prisma",
      "Modality": "MR",
      "NumberOfAverages": 1.0,
      "NumberOfPhaseEncodingSteps": 96,
      "PercentPhaseFieldOfView": 100.0,
      "PercentSampling": 100.0,
      "PerformedProcedureStepStartTime": "125640.563000",
      "PhotometricInterpretation": "MONOCHROME2",
      "PixelBandwidth": 2265.0,
      "PixelRepresentation": 0,
      "PixelSpacing": [2.5, 2.5],
      "PositionReferenceIndicator": "",
      "ProtocolName": "func_run-02_task-str1back",
      "RepetitionTime": 1250.0,
      "Rows": 768,
      "SAR": 0.04532105511013,
      "SamplesPerPixel": 1,
      "ScanOptions": "FS",
      "ScanningSequence": "EP",
      "SequenceName": "*epfid2d1_96",
      "SequenceVariant": "SK",
      "SeriesDescription": "func_run-02_task-str1back",
      "SeriesNumber": 15,
      "SeriesTime": "131837.550000",
      "SliceLocation": -61.471946402508,
      "SliceThickness": 2.5,
      "SmallestImagePixelValue": 0,
      "SoftwareVersions": "syngo MR E11",
      "SpacingBetweenSlices": 2.4999999815211,
      "SpecificCharacterSet": "ISO_IR 100",
      "StudyID": "1",
      "StudyTime": "125640.491000",
      "TransmitCoilName": "Body",
      "VariableFlipAngleFlag": "N",
      "WindowCenterWidthExplanation": "Algo1",
      "dBdt": 0.0},
    "slices": {}
  },
  "time": {
    "samples": {
      "AcquisitionNumber": [1, 2, 3, 4, 5, 6, 7, 8, 9, 10, 11, 12, 13, 14, 15, 16, 17, 18, 19, 20, 21, 22, 23, 24, 25, 26, 27, 28, 29, 30, 31, 32, 33, 34, 35, 36, 37, 38, 39, 40, 41, 42, 43, 44, 45, 46, 47, 48, 49, 50, 51, 52, 53, 54, 55, 56, 57, 58, 59, 60, 61, 62, 63, 64, 65, 66, 67, 68, 69, 70, 71, 72, 73, 74, 75, 76, 77, 78, 79, 80, 81, 82, 83, 84, 85, 86, 87, 88, 89, 90, 91, 92, 93, 94, 95, 96, 97, 98, 99, 100, 101, 102, 103, 104, 105, 106, 107, 108, 109, 110, 111, 112, 113, 114, 115, 116, 117, 118, 119, 120, 121, 122, 123, 124, 125, 126, 127, 128, 129, 130, 131, 132, 133, 134, 135, 136, 137, 138, 139, 140, 141, 142, 143, 144, 145, 146, 147, 148, 149, 150, 151, 152, 153, 154, 155, 156, 157, 158, 159, 160, 161, 162, 163, 164, 165, 166, 167, 168, 169, 170, 171, 172, 173, 174, 175, 176, 177, 178, 179, 180, 181, 182, 183, 184, 185, 186, 187, 188, 189, 190, 191, 192, 193, 194, 195, 196, 197, 198, 199, 200, 201, 202, 203, 204, 205, 206, 207, 208, 209, 210, 211, 212, 213, 214, 215, 216, 217, 218, 219, 220, 221, 222, 223, 224, 225, 226, 227, 228, 229, 230, 231, 232, 233, 234, 235, 236, 237, 238, 239, 240, 241, 242, 243, 244, 245, 246, 247, 248, 249, 250, 251, 252, 253, 254, 255, 256, 257, 258, 259, 260, 261, 262, 263, 264, 265, 266, 267, 268, 269, 270, 271, 272, 273, 274, 275, 276, 277, 278, 279, 280],
      "AcquisitionTime": ["131835.937500", "131837.187500", "131838.437500", "131839.687500", "131840.937500", "131842.187500", "131843.437500", "131844.687500", "131845.937500", "131847.187500", "131848.437500", "131849.687500", "131850.937500", "131852.187500", "131853.437500", "131854.687500", "131855.937500", "131857.187500", "131858.437500", "131859.687500", "131900.937500", "131902.187500", "131903.437500", "131904.687500", "131905.937500", "131907.187500", "131908.437500", "131909.687500", "131910.937500", "131912.187500", "131913.437500", "131914.687500", "131915.937500", "131917.187500", "131918.437500", "131919.687500", "131920.937500", "131922.187500", "131923.437500", "131924.687500", "131925.937500", "131927.187500", "131928.437500", "131929.687500", "131930.937500", "131932.187500", "131933.437500", "131934.687500", "131935.937500", "131937.187500", "131938.437500", "131939.687500", "131940.937500", "131942.187500", "131943.437500", "131944.687500", "131945.937500", "131947.187500", "131948.437500", "131949.687500", "131950.937500", "131952.187500", "131953.437500", "131954.687500", "131955.937500", "131957.187500", "131958.437500", "131959.687500", "132000.937500", "132002.187500", "132003.437500", "132004.687500", "132005.937500", "132007.187500", "132008.437500", "132009.687500", "132010.937500", "132012.187500", "132013.437500", "132014.687500", "132015.937500", "132017.187500", "132018.437500", "132019.687500", "132020.937500", "132022.187500", "132023.437500", "132024.687500", "132025.937500", "132027.187500", "132028.437500", "132029.687500", "132030.937500", "132032.187500", "132033.437500", "132034.687500", "132035.937500", "132037.187500", "132038.437500", "132039.687500", "132040.937500", "132042.187500", "132043.437500", "132044.687500", "132045.937500", "132047.187500", "132048.437500", "132049.687500", "132050.937500", "132052.187500", "132053.437500", "132054.687500", "132055.937500", "132057.187500", "132058.437500", "132059.687500", "132100.937500", "132102.187500", "132103.437500", "132104.687500", "132105.937500", "132107.187500", "132108.437500", "132109.687500", "132110.937500", "132112.187500", "132113.437500", "132114.687500", "132115.937500", "132117.187500", "132118.437500", "132119.687500", "132120.937500", "132122.187500", "132123.437500", "132124.687500", "132125.937500", "132127.187500", "132128.437500", "132129.687500", "132130.937500", "132132.187500", "132133.437500", "132134.687500", "132135.937500", "132137.187500", "132138.437500", "132139.687500", "132140.937500", "132142.187500", "132143.437500", "132144.687500", "132145.937500", "132147.187500", "132148.437500", "132149.687500", "132150.937500", "132152.187500", "132153.437500", "132154.687500", "132155.937500", "132157.187500", "132158.437500", "132159.687500", "132200.937500", "132202.187500", "132203.437500", "132204.687500", "132205.937500", "132207.187500", "132208.437500", "132209.687500", "132210.937500", "132212.187500", "132213.437500", "132214.687500", "132215.937500", "132217.187500", "132218.437500", "132219.687500", "132220.937500", "132222.187500", "132223.437500", "132224.687500", "132225.937500", "132227.187500", "132228.437500", "132229.687500", "132230.937500", "132232.187500", "132233.437500", "132234.687500", "132235.937500", "132237.187500", "132238.437500", "132239.687500", "132240.937500", "132242.187500", "132243.437500", "132244.687500", "132245.937500", "132247.187500", "132248.437500", "132249.687500", "132250.937500", "132252.187500", "132253.437500", "132254.687500", "132255.937500", "132257.187500", "132258.437500", "132259.687500", "132300.937500", "132302.187500", "132303.437500", "132304.687500", "132305.937500", "132307.187500", "132308.437500", "132309.687500", "132310.937500", "132312.187500", "132313.437500", "132314.687500", "132315.937500", "132317.187500", "132318.437500", "132319.687500", "132320.937500", "132322.187500", "132323.437500", "132324.687500", "132325.937500", "132327.187500", "132328.437500", "132329.687500", "132330.937500", "132332.187500", "132333.437500", "132334.687500", "132335.937500", "132337.187500", "132338.437500", "132339.687500", "132340.937500", "132342.187500", "132343.437500", "132344.687500", "132345.937500", "132347.187500", "132348.437500", "132349.687500", "132350.937500", "132352.187500", "132353.437500", "132354.687500", "132355.937500", "132357.187500", "132358.437500", "132359.687500", "132400.937500", "132402.187500", "132403.437500", "132404.687500", "132405.937500", "132407.187500", "132408.437500", "132409.687500", "132410.937500", "132412.187500", "132413.437500", "132414.687500", "132415.937500", "132417.187500", "132418.437500", "132419.687500", "132420.937500", "132422.187500", "132423.437500", "132424.687500"],
      "ContentTime": ["131837.565000", "131838.618000", "131839.829000", "131841.165000", "131842.327000", "131843.621000", "131844.824000", "131846.076000", "131847.323000", "131848.620000", "131849.868000", "131851.100000", "131852.320000", "131853.596000", "131854.875000", "131856.084000", "131857.335000", "131858.600000", "131859.835000", "131901.077000", "131902.369000", "131903.578000", "131904.818000", "131906.105000", "131907.344000", "131908.566000", "131909.855000", "131911.094000", "131912.363000", "131913.586000", "131914.844000", "131916.097000", "131917.314000", "131918.585000", "131919.840000", "131921.102000", "131922.324000", "131923.617000", "131924.825000", "131926.087000", "131927.327000", "131928.573000", "131929.821000", "131931.092000", "131932.319000", "131933.593000", "131934.838000", "131936.111000", "131937.334000", "131938.559000", "131939.824000", "131941.055000", "131942.317000", "131943.591000", "131944.824000", "131946.117000", "131947.350000", "131948.597000", "131949.820000", "131951.090000", "131952.330000", "131953.575000", "131954.814000", "131956.118000", "131957.311000", "131958.592000", "131959.823000", "132001.102000", "132002.316000", "132003.569000", "132004.856000", "132006.080000", "132007.339000", "132008.604000", "132009.828000", "132011.077000", "132012.326000", "132013.591000", "132014.833000", "132016.075000", "132017.343000", "132018.583000", "132019.852000", "132021.137000", "132022.334000", "132023.591000", "132024.825000", "132026.076000", "132027.325000", "132028.573000", "132029.843000", "132031.077000", "132032.344000", "132033.582000", "132034.861000", "132036.104000", "132037.341000", "132038.611000", "132039.828000", "132041.117000", "132042.337000", "132043.595000", "132044.845000", "132046.111000", "132047.335000", "132048.616000", "132049.829000", "132051.114000", "132052.391000", "132053.612000", "132054.860000", "132056.110000", "132057.356000", "132058.637000", "132059.900000", "132101.134000", "132102.322000", "132103.595000", "132104.865000", "132106.135000", "132107.326000", "132108.570000", "132109.863000", "132111.090000", "132112.323000", "132113.587000", "132114.874000", "132116.105000", "132117.325000", "132118.593000", "132119.911000", "132121.098000", "132122.352000", "132123.682000", "132124.863000", "132126.104000", "132127.338000", "132128.598000", "132129.849000", "132131.095000", "132132.347000", "132133.600000", "132134.853000", "132136.106000", "132137.364000", "132138.594000", "132139.853000", "132141.093000", "132142.329000", "132143.563000", "132144.849000", "132146.089000", "132147.354000", "132148.601000", "132149.853000", "132151.105000", "132152.324000", "132153.577000", "132154.826000", "132156.071000", "132157.329000", "132158.594000", "132159.856000", "132201.073000", "132202.341000", "132203.594000", "132204.838000", "132206.061000", "132207.341000", "132208.617000", "132209.847000", "132211.100000", "132212.343000", "132213.615000", "132214.878000", "132216.093000", "132217.375000", "132218.659000", "132219.839000", "132221.095000", "132222.330000", "132223.612000", "132224.861000", "132226.103000", "132227.402000", "132228.598000", "132229.907000", "132231.091000", "132232.401000", "132233.592000", "132234.846000", "132236.167000", "132237.351000", "132238.624000", "132239.879000", "132241.173000", "132242.351000", "132243.597000", "132244.839000", "132246.126000", "132247.353000", "132248.599000", "132249.831000", "132251.127000", "132252.346000", "132253.604000", "132254.851000", "132256.108000", "132257.356000", "132258.627000", "132259.866000", "132301.129000", "132302.370000", "132303.590000", "132304.853000", "132306.103000", "132307.346000", "132308.624000", "132309.828000", "132311.091000", "132312.340000", "132313.586000", "132314.840000", "132316.093000", "132317.366000", "132318.620000", "132319.808000", "132321.146000", "132322.360000", "132323.589000", "132324.848000", "132326.098000", "132327.370000", "132328.642000", "132329.844000", "132331.092000", "132332.349000", "132333.555000", "132334.839000", "132336.074000", "132337.356000", "132338.641000", "132339.873000", "132341.083000", "132342.326000", "132343.603000", "132344.858000", "132346.092000", "132347.349000", "132348.585000", "132349.856000", "132351.085000", "132352.374000", "132353.614000", "132354.847000", "132356.082000", "132357.329000", "132358.565000", "132359.823000", "132401.115000", "132402.365000", "132403.586000", "132404.864000", "132406.117000", "132407.344000", "132408.584000", "132409.853000", "132411.100000", "132412.360000", "132413.640000", "132414.847000", "132416.100000", "132417.350000", "132418.572000", "132419.873000", "132421.114000", "132422.342000", "132423.596000", "132424.854000", "132426.234000"],
      "InstanceCreationTime": ["131837.565000", "131838.618000", "131839.829000", "131841.165000", "131842.327000", "131843.621000", "131844.824000", "131846.076000", "131847.323000", "131848.620000", "131849.868000", "131851.100000", "131852.320000", "131853.596000", "131854.875000", "131856.084000", "131857.335000", "131858.600000", "131859.835000", "131901.077000", "131902.369000", "131903.578000", "131904.818000", "131906.105000", "131907.344000", "131908.566000", "131909.855000", "131911.094000", "131912.363000", "131913.586000", "131914.844000", "131916.097000", "131917.314000", "131918.585000", "131919.840000", "131921.102000", "131922.324000", "131923.617000", "131924.825000", "131926.087000", "131927.327000", "131928.573000", "131929.821000", "131931.092000", "131932.319000", "131933.593000", "131934.838000", "131936.111000", "131937.334000", "131938.559000", "131939.824000", "131941.055000", "131942.317000", "131943.591000", "131944.824000", "131946.117000", "131947.350000", "131948.597000", "131949.820000", "131951.090000", "131952.330000", "131953.575000", "131954.814000", "131956.118000", "131957.311000", "131958.592000", "131959.823000", "132001.102000", "132002.316000", "132003.569000", "132004.856000", "132006.080000", "132007.339000", "132008.604000", "132009.828000", "132011.077000", "132012.326000", "132013.591000", "132014.833000", "132016.075000", "132017.343000", "132018.583000", "132019.852000", "132021.137000", "132022.334000", "132023.591000", "132024.825000", "132026.076000", "132027.325000", "132028.573000", "132029.843000", "132031.077000", "132032.344000", "132033.582000", "132034.861000", "132036.104000", "132037.341000", "132038.611000", "132039.828000", "132041.117000", "132042.337000", "132043.595000", "132044.845000", "132046.111000", "132047.335000", "132048.616000", "132049.829000", "132051.114000", "132052.391000", "132053.612000", "132054.860000", "132056.110000", "132057.356000", "132058.637000", "132059.900000", "132101.134000", "132102.322000", "132103.595000", "132104.865000", "132106.135000", "132107.326000", "132108.570000", "132109.863000", "132111.090000", "132112.323000", "132113.587000", "132114.874000", "132116.105000", "132117.325000", "132118.593000", "132119.911000", "132121.098000", "132122.352000", "132123.682000", "132124.863000", "132126.104000", "132127.338000", "132128.598000", "132129.849000", "132131.095000", "132132.347000", "132133.600000", "132134.853000", "132136.106000", "132137.364000", "132138.594000", "132139.853000", "132141.093000", "132142.329000", "132143.563000", "132144.849000", "132146.089000", "132147.354000", "132148.601000", "132149.853000", "132151.105000", "132152.324000", "132153.577000", "132154.826000", "132156.071000", "132157.329000", "132158.594000", "132159.856000", "132201.073000", "132202.341000", "132203.594000", "132204.838000", "132206.061000", "132207.341000", "132208.617000", "132209.847000", "132211.100000", "132212.343000", "132213.615000", "132214.878000", "132216.093000", "132217.375000", "132218.659000", "132219.839000", "132221.095000", "132222.330000", "132223.612000", "132224.861000", "132226.103000", "132227.402000", "132228.598000", "132229.907000", "132231.091000", "132232.401000", "132233.592000", "132234.846000", "132236.167000", "132237.351000", "132238.624000", "132239.879000", "132241.173000", "132242.351000", "132243.597000", "132244.839000", "132246.126000", "132247.353000", "132248.599000", "132249.831000", "132251.127000", "132252.346000", "132253.604000", "132254.851000", "132256.108000", "132257.356000", "132258.627000", "132259.866000", "132301.129000", "132302.370000", "132303.590000", "132304.853000", "132306.103000", "132307.346000", "132308.624000", "132309.828000", "132311.091000", "132312.340000", "132313.586000", "132314.840000", "132316.093000", "132317.366000", "132318.620000", "132319.808000", "132321.146000", "132322.360000", "132323.589000", "132324.848000", "132326.098000", "132327.370000", "132328.642000", "132329.844000", "132331.092000", "132332.349000", "132333.555000", "132334.839000", "132336.074000", "132337.356000", "132338.641000", "132339.873000", "132341.083000", "132342.326000", "132343.603000", "132344.858000", "132346.092000", "132347.349000", "132348.585000", "132349.856000", "132351.085000", "132352.374000", "132353.614000", "132354.847000", "132356.082000", "132357.329000", "132358.565000", "132359.823000", "132401.115000", "132402.365000", "132403.586000", "132404.864000", "132406.117000", "132407.344000", "132408.584000", "132409.853000", "132411.100000", "132412.360000", "132413.640000", "132414.847000", "132416.100000", "132417.350000", "132418.572000", "132419.873000", "132421.114000", "132422.342000", "132423.596000", "132424.854000", "132426.234000"],
      "InstanceNumber": [1, 2, 3, 4, 5, 6, 7, 8, 9, 10, 11, 12, 13, 14, 15, 16, 17, 18, 19, 20, 21, 22, 23, 24, 25, 26, 27, 28, 29, 30, 31, 32, 33, 34, 35, 36, 37, 38, 39, 40, 41, 42, 43, 44, 45, 46, 47, 48, 49, 50, 51, 52, 53, 54, 55, 56, 57, 58, 59, 60, 61, 62, 63, 64, 65, 66, 67, 68, 69, 70, 71, 72, 73, 74, 75, 76, 77, 78, 79, 80, 81, 82, 83, 84, 85, 86, 87, 88, 89, 90, 91, 92, 93, 94, 95, 96, 97, 98, 99, 100, 101, 102, 103, 104, 105, 106, 107, 108, 109, 110, 111, 112, 113, 114, 115, 116, 117, 118, 119, 120, 121, 122, 123, 124, 125, 126, 127, 128, 129, 130, 131, 132, 133, 134, 135, 136, 137, 138, 139, 140, 141, 142, 143, 144, 145, 146, 147, 148, 149, 150, 151, 152, 153, 154, 155, 156, 157, 158, 159, 160, 161, 162, 163, 164, 165, 166, 167, 168, 169, 170, 171, 172, 173, 174, 175, 176, 177, 178, 179, 180, 181, 182, 183, 184, 185, 186, 187, 188, 189, 190, 191, 192, 193, 194, 195, 196, 197, 198, 199, 200, 201, 202, 203, 204, 205, 206, 207, 208, 209, 210, 211, 212, 213, 214, 215, 216, 217, 218, 219, 220, 221, 222, 223, 224, 225, 226, 227, 228, 229, 230, 231, 232, 233, 234, 235, 236, 237, 238, 239, 240, 241, 242, 243, 244, 245, 246, 247, 248, 249, 250, 251, 252, 253, 254, 255, 256, 257, 258, 259, 260, 261, 262, 263, 264, 265, 266, 267, 268, 269, 270, 271, 272, 273, 274, 275, 276, 277, 278, 279, 280],
      "LargestImagePixelValue": [957, 747, 1024, 795, 875, 935, 845, 954, 972, 820, 957, 766, 901, 822, 810, 888, 896, 968, 805, 834, 1070, 785, 883, 763, 881, 997, 812, 936, 846, 943, 976, 861, 1003, 734, 901, 961, 862, 918, 763, 914, 899, 831, 951, 848, 940, 881, 821, 929, 726, 912, 998, 873, 913, 716, 882, 947, 847, 886, 948, 809, 872, 807, 955, 771, 941, 918, 827, 992, 726, 882, 907, 871, 962, 884, 845, 886, 851, 942, 823, 887, 988, 758, 929, 933, 835, 908, 722, 877, 899, 846, 972, 846, 977, 885, 869, 930, 835, 1002, 865, 983, 799, 916, 915, 858, 997, 729, 940, 838, 879, 985, 749, 888, 906, 889, 982, 821, 891, 845, 906, 1011, 856, 952, 696, 994, 841, 896, 960, 852, 977, 771, 884, 930, 856, 931, 855, 920, 752, 902, 929, 868, 954, 792, 927, 930, 862, 988, 765, 954, 859, 864, 933, 852, 1006, 782, 952, 787, 913, 940, 852, 983, 741, 944, 809, 950, 845, 865, 1001, 834, 967, 763, 950, 947, 838, 958, 842, 904, 736, 906, 954, 843, 962, 814, 954, 907, 834, 1001, 845, 983, 846, 869, 814, 814, 987, 789, 981, 883, 906, 973, 826, 1004, 806, 951, 812, 933, 864, 843, 980, 808, 911, 974, 822, 969, 740, 941, 844, 853, 896, 791, 1031, 840, 999, 798, 906, 724, 977, 758, 895, 926, 823, 930, 856, 944, 759, 951, 943, 828, 917, 827, 985, 870, 954, 751, 970, 964, 836, 930, 808, 927, 945, 840, 921, 778, 967, 1007, 830, 955, 735, 969, 856, 845, 971, 811, 999, 890, 849, 976, 789, 923, 814, 886, 940, 837, 957, 733, 892, 960, 841, 902, 749, 873],
      "WindowCenter": [346.0, 342.0, 345.0, 342.0, 343.0, 344.0, 343.0, 344.0, 343.0, 341.0, 342.0, 340.0, 342.0, 342.0, 342.0, 343.0, 344.0, 344.0, 342.0, 343.0, 346.0, 342.0, 343.0, 341.0, 343.0, 344.0, 342.0, 344.0, 343.0, 344.0, 344.0, 343.0, 344.0, 340.0, 342.0, 343.0, 342.0, 343.0, 341.0, 343.0, 343.0, 341.0, 342.0, 341.0, 342.0, 342.0, 341.0, 342.0, 339.0, 342.0, 342.0, 341.0, 342.0, 340.0, 342.0, 342.0, 341.0, 342.0, 342.0, 341.0, 342.0, 342.0, 344.0, 341.0, 343.0, 342.0, 341.0, 343.0, 339.0, 342.0, 342.0, 343.0, 343.0, 342.0, 341.0, 342.0, 342.0, 343.0, 342.0, 343.0, 343.0, 340.0, 341.0, 342.0, 341.0, 342.0, 340.0, 343.0, 343.0, 342.0, 343.0, 342.0, 344.0, 342.0, 342.0, 342.0, 341.0, 343.0, 341.0, 343.0, 341.0, 342.0, 342.0, 342.0, 343.0, 340.0, 342.0, 341.0, 342.0, 343.0, 340.0, 342.0, 342.0, 341.0, 343.0, 341.0, 343.0, 342.0, 343.0, 344.0, 341.0, 342.0, 339.0, 343.0, 341.0, 342.0, 343.0, 342.0, 343.0, 340.0, 342.0, 343.0, 342.0, 343.0, 342.0, 342.0, 340.0, 342.0, 343.0, 342.0, 343.0, 341.0, 342.0, 342.0, 341.0, 342.0, 339.0, 342.0, 341.0, 341.0, 342.0, 342.0, 343.0, 341.0, 342.0, 341.0, 342.0, 342.0, 342.0, 343.0, 340.0, 342.0, 341.0, 343.0, 342.0, 342.0, 343.0, 341.0, 342.0, 340.0, 342.0, 342.0, 341.0, 342.0, 341.0, 342.0, 340.0, 342.0, 343.0, 341.0, 342.0, 341.0, 343.0, 342.0, 341.0, 343.0, 341.0, 342.0, 341.0, 341.0, 341.0, 342.0, 344.0, 341.0, 342.0, 341.0, 341.0, 342.0, 341.0, 343.0, 341.0, 343.0, 341.0, 342.0, 341.0, 341.0, 343.0, 341.0, 343.0, 343.0, 340.0, 342.0, 340.0, 343.0, 342.0, 342.0, 342.0, 341.0, 343.0, 341.0, 342.0, 340.0, 342.0, 340.0, 344.0, 340.0, 342.0, 342.0, 341.0, 343.0, 342.0, 343.0, 340.0, 342.0, 342.0, 341.0, 342.0, 341.0, 343.0, 342.0, 342.0, 340.0, 342.0, 342.0, 341.0, 343.0, 341.0, 342.0, 342.0, 341.0, 342.0, 341.0, 343.0, 343.0, 341.0, 342.0, 339.0, 343.0, 342.0, 342.0, 343.0, 341.0, 343.0, 341.0, 341.0, 342.0, 340.0, 342.0, 341.0, 342.0, 342.0, 341.0, 342.0, 339.0, 342.0, 342.0, 341.0, 342.0, 340.0, 342.0],
      "WindowWidth": [739.0, 733.0, 737.0, 733.0, 735.0, 736.0, 734.0, 736.0, 735.0, 732.0, 733.0, 730.0, 733.0, 733.0, 733.0, 735.0, 736.0, 736.0, 733.0, 734.0, 738.0, 733.0, 735.0, 732.0, 734.0, 735.0, 733.0, 736.0, 736.0, 737.0, 736.0, 734.0, 735.0, 731.0, 733.0, 734.0, 733.0, 734.0, 731.0, 734.0, 733.0, 732.0, 733.0, 731.0, 733.0, 732.0, 731.0, 733.0, 729.0, 732.0, 732.0, 731.0, 733.0, 729.0, 732.0, 733.0, 731.0, 732.0, 733.0, 730.0, 733.0, 733.0, 735.0, 732.0, 734.0, 732.0, 730.0, 733.0, 729.0, 732.0, 733.0, 734.0, 734.0, 732.0, 731.0, 732.0, 733.0, 734.0, 733.0, 734.0, 734.0, 729.0, 731.0, 732.0, 731.0, 733.0, 731.0, 734.0, 734.0, 733.0, 734.0, 732.0, 735.0, 733.0, 733.0, 733.0, 732.0, 734.0, 731.0, 734.0, 731.0, 732.0, 732.0, 732.0, 734.0, 729.0, 733.0, 730.0, 732.0, 734.0, 730.0, 733.0, 732.0, 731.0, 734.0, 732.0, 734.0, 733.0, 734.0, 735.0, 731.0, 733.0, 728.0, 734.0, 732.0, 733.0, 734.0, 732.0, 734.0, 730.0, 732.0, 734.0, 732.0, 734.0, 733.0, 733.0, 730.0, 733.0, 734.0, 733.0, 734.0, 731.0, 732.0, 733.0, 731.0, 733.0, 729.0, 733.0, 731.0, 731.0, 733.0, 732.0, 734.0, 731.0, 733.0, 731.0, 733.0, 733.0, 732.0, 734.0, 729.0, 733.0, 731.0, 734.0, 733.0, 733.0, 734.0, 732.0, 733.0, 730.0, 733.0, 732.0, 730.0, 733.0, 731.0, 732.0, 730.0, 733.0, 734.0, 732.0, 733.0, 731.0, 734.0, 733.0, 732.0, 734.0, 730.0, 732.0, 731.0, 731.0, 731.0, 733.0, 735.0, 731.0, 733.0, 731.0, 731.0, 733.0, 731.0, 734.0, 732.0, 734.0, 732.0, 733.0, 731.0, 731.0, 735.0, 732.0, 734.0, 734.0, 730.0, 733.0, 730.0, 734.0, 733.0, 733.0, 734.0, 731.0, 733.0, 730.0, 732.0, 729.0, 733.0, 730.0, 735.0, 730.0, 733.0, 733.0, 732.0, 734.0, 733.0, 734.0, 730.0, 733.0, 733.0, 730.0, 732.0, 731.0, 734.0, 732.0, 733.0, 730.0, 733.0, 733.0, 732.0, 733.0, 731.0, 733.0, 733.0, 731.0, 732.0, 731.0, 734.0, 734.0, 732.0, 733.0, 729.0, 734.0, 732.0, 733.0, 734.0, 731.0, 733.0, 731.0, 731.0, 732.0, 730.0, 733.0, 732.0, 732.0, 733.0, 731.0, 733.0, 729.0, 732.0, 733.0, 732.0, 732.0, 729.0, 732.0]
    },
    "slices": {}
  }
}