{
  "AcquisitionMatrixPE": 96,
  "AcquisitionNumber": 1,
  "AcquisitionTime": "15:09:30.605000",
  "BandwidthPerPixelPhaseEncode": 18.939,
  "BaseResolution": 96,
  "BodyPartExamined": "BRAIN",
  "ConsistencyInfo": "N4_VE11C_LATEST_20160120",
  "ConversionSoftware": "dcm2niix",
  "ConversionSoftwareVersion": "v1.0.20170923 (OpenJPEG build) GCC6.3.0",
  "DerivedVendorReportedEchoSpacing": 0.000550011,
  "DeviceSerialNumber": "66112",
  "DwellTime": 2.3e-06,
  "EchoTime": 0.033,
  "EchoTrainLength": 96,
  "EffectiveEchoSpacing": 0.000550011,
  "FlipAngle": 64,
  "ImageType": [
    "ORIGINAL",
    "PRIMARY",
    "FMRI",
    "NONE",
    "ND",
    "NORM",
    "MOSAIC"
],
  "InstitutionAddress": "Maynard_3_Hanover_NH_US_03755",
  "InstitutionName": "Dartmouth_College_-_PBS",
  "MagneticFieldStrength": 3,
  "Manufacturer": "Siemens",
  "ManufacturersModelName": "Prisma",
  "Modality": "MR",
  "MultibandAccelerationFactor": 4,
  "PartialFourier": 1,
  "PercentPhaseFOV": 100,
  "PhaseEncodingDirection": "j-",
  "PhaseEncodingSteps": 96,
  "PhaseResolution": 1,
  "ProcedureStepDescription": "Gobbini_Matteo_1017_famface-angles",
  "ProtocolName": "func_run-02_task-fam1back",
  "PulseSequenceDetails": "%SiemensSeq%_ep2d_bold",
  "ReceiveCoilActiveElements": "HEA;HEP",
  "ReceiveCoilName": "Head_32",
  "ReconMatrixPE": 96,
  "RepetitionTime": 1.25,
  "ScanOptions": "FS",
  "ScanningSequence": "EP",
  "SequenceName": "_epfid2d1_96",
  "SequenceVariant": "SK",
  "SeriesDescription": "func_run-02_task-fam1back",
  "SliceTiming": [0.88, 0, 0.615, 0.0875, 0.7025, 0.1775, 0.7925, 0.3525, 0.9675, 0.44, 1.055, 0.5275, 1.1425, 0.265, 0.88, 0, 0.615, 0.0875, 0.7025, 0.1775, 0.7925, 0.3525, 0.9675, 0.44, 1.055, 0.5275, 1.1425, 0.265, 0.88, 0, 0.615, 0.0875, 0.7025, 0.1775, 0.7925, 0.3525, 0.9675, 0.44, 1.055, 0.5275, 1.1425, 0.265, 0.88, 0, 0.615, 0.0875, 0.7025, 0.1775, 0.7925, 0.3525, 0.9675, 0.44, 1.055, 0.5275, 1.1425, 0.265],
  "SoftwareVersions": "syngo_MR_E11",
  "StationName": "AWP66112",
  "TaskName": "fam1back",
  "TotalReadoutTime": 0.0522511,
  "dcmmeta_affine": [
    [-2.4959781169891357, 0.13998380303382874, 0.022302908822894096, 115.51658630371094],
    [0.1405237764120102, 2.4951913356781006, 0.0653679296374321, -115.20475006103516],
    [0.01859983056783676, -0.06651640683412552, 2.4990458488464355, -65.01366424560547],
    [0.0, 0.0, 0.0, 1.0]
],
  "dcmmeta_reorient_transform": [
    [0.0, -1.0, 0.0, 95.0],
    [1.0, 0.0, 0.0, 0.0],
    [0.0, 0.0, 1.0, 0.0],
    [0.0, 0.0, 0.0, 1.0]
],
  "dcmmeta_shape": [96, 96, 56, 280],
  "dcmmeta_slice_dim": 2,
  "dcmmeta_version": 0.6,
  "global": {
    "const": {
      "AccessionNumber": "A000466",
      "AcquisitionMatrix": [96, 0, 0, 96],
      "AngioFlag": "N",
      "BitsAllocated": 16,
      "BitsStored": 12,
      "BodyPartExamined": "BRAIN",
      "Columns": 768,
      "EchoNumbers": 1,
      "EchoTime": 33.0,
      "EchoTrainLength": 96,
      "FlipAngle": 64.0,
      "HighBit": 11,
      "ImageOrientationPatient": [0.99839127531587, -0.0562095079388, 0.00743993215231, 0.05599351937345, 0.99807655849099, 0.02660656270469],
      "ImagePositionPatient": [-1014.4982780047, -913.00675299057, -99.931781669165],
      "ImageType": [
        "ORIGINAL",
        "PRIMARY",
        "FMRI",
        "NONE",
        "ND",
        "NORM",
        "MOSAIC"
],
      "ImagedNucleus": "1H",
      "ImagingFrequency": 123.252361,
      "InPlanePhaseEncodingDirection": "COL",
      "MRAcquisitionType": "2D",
      "MagneticFieldStrength": 3.0,
      "Manufacturer": "SIEMENS",
      "ManufacturerModelName": "Prisma",
      "Modality": "MR",
      "NumberOfAverages": 1.0,
      "NumberOfPhaseEncodingSteps": 96,
      "PercentPhaseFieldOfView": 100.0,
      "PercentSampling": 100.0,
      "PerformedProcedureStepStartTime": "143328.798000",
      "PhotometricInterpretation": "MONOCHROME2",
      "PixelBandwidth": 2265.0,
      "PixelRepresentation": 0,
      "PixelSpacing": [2.5, 2.5],
      "PositionReferenceIndicator": "",
      "ProtocolName": "func_run-02_task-fam1back",
      "RepetitionTime": 1250.0,
      "Rows": 768,
      "SAR": 0.04378393971437,
      "SamplesPerPixel": 1,
      "ScanOptions": "FS",
      "ScanningSequence": "EP",
      "SequenceName": "*epfid2d1_96",
      "SequenceVariant": "SK",
      "SeriesDescription": "func_run-02_task-fam1back",
      "SeriesNumber": 15,
      "SeriesTime": "150931.771000",
      "SliceLocation": -66.970587462773,
      "SliceThickness": 2.5,
      "SmallestImagePixelValue": 0,
      "SoftwareVersions": "syngo MR E11",
      "SpacingBetweenSlices": 2.5000000300206,
      "SpecificCharacterSet": "ISO_IR 100",
      "StudyID": "3",
      "StudyTime": "143328.746000",
      "TransmitCoilName": "Body",
      "VariableFlipAngleFlag": "N",
      "WindowCenterWidthExplanation": "Algo1",
      "dBdt": 0.0},
    "slices": {}
  },
  "time": {
    "samples": {
      "AcquisitionNumber": [1, 2, 3, 4, 5, 6, 7, 8, 9, 10, 11, 12, 13, 14, 15, 16, 17, 18, 19, 20, 21, 22, 23, 24, 25, 26, 27, 28, 29, 30, 31, 32, 33, 34, 35, 36, 37, 38, 39, 40, 41, 42, 43, 44, 45, 46, 47, 48, 49, 50, 51, 52, 53, 54, 55, 56, 57, 58, 59, 60, 61, 62, 63, 64, 65, 66, 67, 68, 69, 70, 71, 72, 73, 74, 75, 76, 77, 78, 79, 80, 81, 82, 83, 84, 85, 86, 87, 88, 89, 90, 91, 92, 93, 94, 95, 96, 97, 98, 99, 100, 101, 102, 103, 104, 105, 106, 107, 108, 109, 110, 111, 112, 113, 114, 115, 116, 117, 118, 119, 120, 121, 122, 123, 124, 125, 126, 127, 128, 129, 130, 131, 132, 133, 134, 135, 136, 137, 138, 139, 140, 141, 142, 143, 144, 145, 146, 147, 148, 149, 150, 151, 152, 153, 154, 155, 156, 157, 158, 159, 160, 161, 162, 163, 164, 165, 166, 167, 168, 169, 170, 171, 172, 173, 174, 175, 176, 177, 178, 179, 180, 181, 182, 183, 184, 185, 186, 187, 188, 189, 190, 191, 192, 193, 194, 195, 196, 197, 198, 199, 200, 201, 202, 203, 204, 205, 206, 207, 208, 209, 210, 211, 212, 213, 214, 215, 216, 217, 218, 219, 220, 221, 222, 223, 224, 225, 226, 227, 228, 229, 230, 231, 232, 233, 234, 235, 236, 237, 238, 239, 240, 241, 242, 243, 244, 245, 246, 247, 248, 249, 250, 251, 252, 253, 254, 255, 256, 257, 258, 259, 260, 261, 262, 263, 264, 265, 266, 267, 268, 269, 270, 271, 272, 273, 274, 275, 276, 277, 278, 279, 280],
      "AcquisitionTime": ["150930.605000", "150931.855000", "150933.105000", "150934.355000", "150935.605000", "150936.855000", "150938.105000", "150939.355000", "150940.605000", "150941.855000", "150943.105000", "150944.355000", "150945.605000", "150946.855000", "150948.105000", "150949.355000", "150950.605000", "150951.855000", "150953.105000", "150954.355000", "150955.605000", "150956.855000", "150958.105000", "150959.355000", "151000.605000", "151001.855000", "151003.105000", "151004.355000", "151005.605000", "151006.855000", "151008.105000", "151009.355000", "151010.605000", "151011.855000", "151013.105000", "151014.355000", "151015.605000", "151016.855000", "151018.105000", "151019.355000", "151020.605000", "151021.855000", "151023.105000", "151024.355000", "151025.605000", "151026.855000", "151028.105000", "151029.355000", "151030.605000", "151031.855000", "151033.105000", "151034.355000", "151035.605000", "151036.855000", "151038.105000", "151039.355000", "151040.605000", "151041.855000", "151043.105000", "151044.355000", "151045.605000", "151046.855000", "151048.105000", "151049.355000", "151050.605000", "151051.855000", "151053.105000", "151054.355000", "151055.605000", "151056.855000", "151058.105000", "151059.355000", "151100.605000", "151101.855000", "151103.105000", "151104.355000", "151105.605000", "151106.855000", "151108.105000", "151109.355000", "151110.605000", "151111.855000", "151113.105000", "151114.355000", "151115.605000", "151116.855000", "151118.105000", "151119.355000", "151120.605000", "151121.855000", "151123.105000", "151124.355000", "151125.605000", "151126.855000", "151128.105000", "151129.355000", "151130.605000", "151131.855000", "151133.105000", "151134.355000", "151135.605000", "151136.855000", "151138.105000", "151139.355000", "151140.605000", "151141.855000", "151143.105000", "151144.355000", "151145.605000", "151146.855000", "151148.105000", "151149.355000", "151150.605000", "151151.855000", "151153.105000", "151154.355000", "151155.605000", "151156.855000", "151158.105000", "151159.355000", "151200.605000", "151201.855000", "151203.105000", "151204.355000", "151205.605000", "151206.855000", "151208.105000", "151209.355000", "151210.605000", "151211.855000", "151213.105000", "151214.355000", "151215.605000", "151216.855000", "151218.105000", "151219.355000", "151220.605000", "151221.855000", "151223.105000", "151224.355000", "151225.605000", "151226.855000", "151228.105000", "151229.355000", "151230.605000", "151231.855000", "151233.105000", "151234.355000", "151235.605000", "151236.855000", "151238.105000", "151239.355000", "151240.605000", "151241.855000", "151243.105000", "151244.355000", "151245.605000", "151246.855000", "151248.105000", "151249.355000", "151250.605000", "151251.855000", "151253.105000", "151254.355000", "151255.605000", "151256.855000", "151258.105000", "151259.355000", "151300.605000", "151301.855000", "151303.105000", "151304.355000", "151305.605000", "151306.855000", "151308.105000", "151309.355000", "151310.605000", "151311.855000", "151313.105000", "151314.355000", "151315.605000", "151316.855000", "151318.105000", "151319.355000", "151320.605000", "151321.855000", "151323.105000", "151324.355000", "151325.605000", "151326.855000", "151328.105000", "151329.355000", "151330.605000", "151331.855000", "151333.105000", "151334.355000", "151335.605000", "151336.855000", "151338.105000", "151339.355000", "151340.605000", "151341.855000", "151343.105000", "151344.355000", "151345.605000", "151346.855000", "151348.105000", "151349.355000", "151350.605000", "151351.855000", "151353.105000", "151354.355000", "151355.605000", "151356.855000", "151358.105000", "151359.355000", "151400.605000", "151401.855000", "151403.105000", "151404.355000", "151405.605000", "151406.855000", "151408.105000", "151409.355000", "151410.605000", "151411.855000", "151413.105000", "151414.355000", "151415.605000", "151416.855000", "151418.105000", "151419.355000", "151420.605000", "151421.855000", "151423.105000", "151424.355000", "151425.605000", "151426.855000", "151428.105000", "151429.355000", "151430.605000", "151431.855000", "151433.105000", "151434.355000", "151435.605000", "151436.855000", "151438.105000", "151439.355000", "151440.605000", "151441.855000", "151443.105000", "151444.355000", "151445.605000", "151446.855000", "151448.105000", "151449.355000", "151450.605000", "151451.855000", "151453.105000", "151454.355000", "151455.605000", "151456.855000", "151458.105000", "151459.355000", "151500.605000", "151501.855000", "151503.105000", "151504.355000", "151505.605000", "151506.855000", "151508.105000", "151509.355000", "151510.605000", "151511.855000", "151513.105000", "151514.355000", "151515.605000", "151516.855000", "151518.105000", "151519.355000"],
      "ContentTime": ["150931.774000", "150932.804000", "150934.050000", "150935.299000", "150936.597000", "150937.821000", "150939.050000", "150940.335000", "150941.566000", "150942.859000", "150944.073000", "150945.302000", "150946.548000", "150947.804000", "150949.061000", "150950.286000", "150951.532000", "150952.825000", "150954.061000", "150955.306000", "150956.561000", "150957.807000", "150959.038000", "151000.301000", "151001.536000", "151002.788000", "151004.021000", "151005.292000", "151006.533000", "151007.818000", "151009.029000", "151010.341000", "151011.542000", "151012.805000", "151014.055000", "151015.364000", "151016.543000", "151017.818000", "151019.089000", "151020.299000", "151021.556000", "151022.807000", "151024.074000", "151025.310000", "151026.555000", "151027.799000", "151029.095000", "151030.297000", "151031.554000", "151032.812000", "151034.127000", "151035.349000", "151036.541000", "151037.834000", "151039.084000", "151040.294000", "151041.552000", "151042.783000", "151044.046000", "151045.281000", "151046.552000", "151047.872000", "151049.075000", "151050.316000", "151051.548000", "151052.772000", "151054.029000", "151055.295000", "151056.541000", "151057.843000", "151059.028000", "151100.257000", "151101.549000", "151102.788000", "151104.100000", "151105.340000", "151106.559000", "151107.818000", "151109.034000", "151110.314000", "151111.545000", "151112.808000", "151114.054000", "151115.302000", "151116.608000", "151117.818000", "151119.034000", "151120.296000", "151121.611000", "151122.780000", "151124.074000", "151125.295000", "151126.560000", "151127.790000", "151129.041000", "151130.307000", "151131.543000", "151132.804000", "151134.039000", "151135.297000", "151136.564000", "151137.792000", "151139.029000", "151140.312000", "151141.586000", "151142.830000", "151144.057000", "151145.308000", "151146.565000", "151147.821000", "151149.070000", "151150.309000", "151151.570000", "151152.843000", "151154.061000", "151155.302000", "151156.556000", "151157.783000", "151159.044000", "151200.303000", "151201.584000", "151202.796000", "151204.065000", "151205.299000", "151206.558000", "151207.812000", "151209.120000", "151210.345000", "151211.561000", "151212.808000", "151214.104000", "151215.305000", "151216.628000", "151217.820000", "151219.126000", "151220.332000", "151221.626000", "151222.811000", "151224.052000", "151225.306000", "151226.568000", "151227.812000", "151229.064000", "151230.295000", "151231.539000", "151232.825000", "151234.052000", "151235.314000", "151236.589000", "151237.810000", "151239.067000", "151240.308000", "151241.566000", "151242.790000", "151244.049000", "151245.320000", "151246.540000", "151247.822000", "151249.073000", "151250.316000", "151251.581000", "151252.799000", "151254.046000", "151255.312000", "151256.547000", "151257.826000", "151259.036000", "151300.308000", "151301.567000", "151302.799000", "151304.056000", "151305.329000", "151306.564000", "151307.815000", "151309.080000", "151310.344000", "151311.575000", "151312.790000", "151314.087000", "151315.296000", "151316.594000", "151317.797000", "151319.063000", "151320.314000", "151321.566000", "151322.818000", "151324.073000", "151325.291000", "151326.568000", "151327.822000", "151329.049000", "151330.311000", "151331.532000", "151332.805000", "151334.139000", "151335.354000", "151336.556000", "151337.839000", "151339.100000", "151340.323000", "151341.571000", "151342.820000", "151344.087000", "151345.321000", "151346.579000", "151347.831000", "151349.097000", "151350.323000", "151351.519000", "151352.814000", "151354.044000", "151355.338000", "151356.574000", "151357.814000", "151359.054000", "151400.328000", "151401.601000", "151402.813000", "151404.032000", "151405.319000", "151406.575000", "151407.808000", "151409.080000", "151410.326000", "151411.573000", "151412.805000", "151414.071000", "151415.312000", "151416.567000", "151417.800000", "151419.053000", "151420.296000", "151421.562000", "151422.841000", "151424.029000", "151425.354000", "151426.632000", "151427.829000", "151429.065000", "151430.284000", "151431.554000", "151432.816000", "151434.105000", "151435.328000", "151436.556000", "151437.859000", "151439.066000", "151440.312000", "151441.521000", "151442.812000", "151444.066000", "151445.337000", "151446.552000", "151447.824000", "151449.124000", "151450.307000", "151451.544000", "151452.824000", "151454.065000", "151455.286000", "151456.585000", "151457.862000", "151459.027000", "151500.362000", "151501.574000", "151502.789000", "151504.076000", "151505.312000", "151506.542000", "151507.804000", "151509.095000", "151510.313000", "151511.555000", "151512.837000", "151514.074000", "151515.331000", "151516.540000", "151517.793000", "151519.058000", "151520.325000"],
      "InstanceCreationTime": ["150931.774000", "150932.804000", "150934.050000", "150935.299000", "150936.597000", "150937.821000", "150939.050000", "150940.335000", "150941.566000", "150942.859000", "150944.073000", "150945.302000", "150946.548000", "150947.804000", "150949.061000", "150950.286000", "150951.532000", "150952.825000", "150954.061000", "150955.306000", "150956.561000", "150957.807000", "150959.038000", "151000.301000", "151001.536000", "151002.788000", "151004.021000", "151005.292000", "151006.533000", "151007.818000", "151009.029000", "151010.341000", "151011.542000", "151012.805000", "151014.055000", "151015.364000", "151016.543000", "151017.818000", "151019.089000", "151020.299000", "151021.556000", "151022.807000", "151024.074000", "151025.310000", "151026.555000", "151027.799000", "151029.095000", "151030.297000", "151031.554000", "151032.812000", "151034.127000", "151035.349000", "151036.541000", "151037.834000", "151039.084000", "151040.294000", "151041.552000", "151042.783000", "151044.046000", "151045.281000", "151046.552000", "151047.872000", "151049.075000", "151050.316000", "151051.548000", "151052.772000", "151054.029000", "151055.295000", "151056.541000", "151057.843000", "151059.028000", "151100.257000", "151101.549000", "151102.788000", "151104.100000", "151105.340000", "151106.559000", "151107.818000", "151109.034000", "151110.314000", "151111.545000", "151112.808000", "151114.054000", "151115.302000", "151116.608000", "151117.818000", "151119.034000", "151120.296000", "151121.611000", "151122.780000", "151124.074000", "151125.295000", "151126.560000", "151127.790000", "151129.041000", "151130.307000", "151131.543000", "151132.804000", "151134.039000", "151135.297000", "151136.564000", "151137.792000", "151139.029000", "151140.312000", "151141.586000", "151142.830000", "151144.057000", "151145.308000", "151146.565000", "151147.821000", "151149.070000", "151150.309000", "151151.570000", "151152.843000", "151154.061000", "151155.302000", "151156.556000", "151157.783000", "151159.044000", "151200.303000", "151201.584000", "151202.796000", "151204.065000", "151205.299000", "151206.558000", "151207.812000", "151209.120000", "151210.345000", "151211.561000", "151212.808000", "151214.104000", "151215.305000", "151216.628000", "151217.820000", "151219.126000", "151220.332000", "151221.626000", "151222.811000", "151224.052000", "151225.306000", "151226.568000", "151227.812000", "151229.064000", "151230.295000", "151231.539000", "151232.825000", "151234.052000", "151235.314000", "151236.589000", "151237.810000", "151239.067000", "151240.308000", "151241.566000", "151242.790000", "151244.049000", "151245.320000", "151246.540000", "151247.822000", "151249.073000", "151250.316000", "151251.581000", "151252.799000", "151254.046000", "151255.312000", "151256.547000", "151257.826000", "151259.036000", "151300.308000", "151301.567000", "151302.799000", "151304.056000", "151305.329000", "151306.564000", "151307.815000", "151309.080000", "151310.344000", "151311.575000", "151312.790000", "151314.087000", "151315.296000", "151316.594000", "151317.797000", "151319.063000", "151320.314000", "151321.566000", "151322.818000", "151324.073000", "151325.291000", "151326.568000", "151327.822000", "151329.049000", "151330.311000", "151331.532000", "151332.805000", "151334.139000", "151335.354000", "151336.556000", "151337.839000", "151339.100000", "151340.323000", "151341.571000", "151342.820000", "151344.087000", "151345.321000", "151346.579000", "151347.831000", "151349.097000", "151350.323000", "151351.519000", "151352.814000", "151354.044000", "151355.338000", "151356.574000", "151357.814000", "151359.054000", "151400.328000", "151401.601000", "151402.813000", "151404.032000", "151405.319000", "151406.575000", "151407.808000", "151409.080000", "151410.326000", "151411.573000", "151412.805000", "151414.071000", "151415.312000", "151416.567000", "151417.800000", "151419.053000", "151420.296000", "151421.562000", "151422.841000", "151424.029000", "151425.354000", "151426.632000", "151427.829000", "151429.065000", "151430.284000", "151431.554000", "151432.816000", "151434.105000", "151435.328000", "151436.556000", "151437.859000", "151439.066000", "151440.312000", "151441.521000", "151442.812000", "151444.066000", "151445.337000", "151446.552000", "151447.824000", "151449.124000", "151450.307000", "151451.544000", "151452.824000", "151454.065000", "151455.286000", "151456.585000", "151457.862000", "151459.027000", "151500.362000", "151501.574000", "151502.789000", "151504.076000", "151505.312000", "151506.542000", "151507.804000", "151509.095000", "151510.313000", "151511.555000", "151512.837000", "151514.074000", "151515.331000", "151516.540000", "151517.793000", "151519.058000", "151520.325000"],
      "InstanceNumber": [1, 2, 3, 4, 5, 6, 7, 8, 9, 10, 11, 12, 13, 14, 15, 16, 17, 18, 19, 20, 21, 22, 23, 24, 25, 26, 27, 28, 29, 30, 31, 32, 33, 34, 35, 36, 37, 38, 39, 40, 41, 42, 43, 44, 45, 46, 47, 48, 49, 50, 51, 52, 53, 54, 55, 56, 57, 58, 59, 60, 61, 62, 63, 64, 65, 66, 67, 68, 69, 70, 71, 72, 73, 74, 75, 76, 77, 78, 79, 80, 81, 82, 83, 84, 85, 86, 87, 88, 89, 90, 91, 92, 93, 94, 95, 96, 97, 98, 99, 100, 101, 102, 103, 104, 105, 106, 107, 108, 109, 110, 111, 112, 113, 114, 115, 116, 117, 118, 119, 120, 121, 122, 123, 124, 125, 126, 127, 128, 129, 130, 131, 132, 133, 134, 135, 136, 137, 138, 139, 140, 141, 142, 143, 144, 145, 146, 147, 148, 149, 150, 151, 152, 153, 154, 155, 156, 157, 158, 159, 160, 161, 162, 163, 164, 165, 166, 167, 168, 169, 170, 171, 172, 173, 174, 175, 176, 177, 178, 179, 180, 181, 182, 183, 184, 185, 186, 187, 188, 189, 190, 191, 192, 193, 194, 195, 196, 197, 198, 199, 200, 201, 202, 203, 204, 205, 206, 207, 208, 209, 210, 211, 212, 213, 214, 215, 216, 217, 218, 219, 220, 221, 222, 223, 224, 225, 226, 227, 228, 229, 230, 231, 232, 233, 234, 235, 236, 237, 238, 239, 240, 241, 242, 243, 244, 245, 246, 247, 248, 249, 250, 251, 252, 253, 254, 255, 256, 257, 258, 259, 260, 261, 262, 263, 264, 265, 266, 267, 268, 269, 270, 271, 272, 273, 274, 275, 276, 277, 278, 279, 280],
      "LargestImagePixelValue": [756, 983, 769, 1097, 719, 710, 847, 714, 977, 720, 1073, 714, 808, 803, 710, 1040, 716, 737, 932, 748, 1063, 720, 709, 875, 708, 1026, 713, 858, 814, 711, 989, 717, 716, 908, 717, 716, 886, 710, 819, 855, 712, 903, 762, 817, 939, 719, 735, 834, 713, 1009, 751, 715, 999, 751, 817, 954, 779, 710, 973, 817, 724, 1029, 740, 752, 853, 706, 942, 714, 710, 814, 817, 914, 711, 975, 779, 704, 950, 714, 772, 868, 747, 949, 738, 963, 712, 1007, 713, 713, 894, 704, 1025, 715, 1021, 741, 750, 888, 712, 878, 788, 791, 952, 709, 1007, 758, 801, 866, 707, 843, 801, 709, 714, 1067, 776, 1032, 707, 794, 734, 711, 874, 714, 705, 838, 712, 989, 732, 1026, 802, 778, 935, 706, 997, 735, 887, 794, 757, 904, 708, 973, 711, 719, 944, 716, 1082, 734, 795, 872, 711, 992, 711, 1030, 708, 964, 759, 709, 954, 769, 740, 994, 750, 1052, 710, 762, 878, 712, 1003, 767, 711, 973, 734, 710, 999, 776, 789, 999, 795, 718, 1038, 730, 1083, 754, 784, 867, 710, 709, 1006, 732, 1056, 739, 702, 824, 701, 964, 776, 711, 1014, 712, 878, 835, 749, 988, 751, 707, 993, 711, 701, 913, 701, 1030, 801, 704, 1037, 808, 703, 699, 796, 743, 702, 935, 871, 709, 1046, 768, 717, 859, 782, 700, 927, 818, 833, 874, 840, 929, 715, 696, 833, 704, 1017, 704, 933, 789, 782, 935, 703, 1009, 703, 763, 895, 698, 1035, 727, 746, 872, 696, 702, 982, 762, 823, 922, 737, 986, 703, 707, 779, 708, 989, 697, 1022, 702, 799, 763, 701, 963, 781, 694, 956, 698, 1031, 810, 705, 822],
      "WindowCenter": [347.0, 348.0, 344.0, 347.0, 342.0, 343.0, 345.0, 344.0, 348.0, 344.0, 348.0, 344.0, 345.0, 345.0, 344.0, 348.0, 344.0, 345.0, 347.0, 344.0, 348.0, 344.0, 343.0, 346.0, 344.0, 349.0, 345.0, 347.0, 346.0, 344.0, 348.0, 344.0, 345.0, 347.0, 344.0, 344.0, 347.0, 344.0, 346.0, 347.0, 345.0, 348.0, 346.0, 346.0, 347.0, 344.0, 344.0, 345.0, 344.0, 348.0, 345.0, 345.0, 348.0, 346.0, 346.0, 347.0, 345.0, 345.0, 348.0, 346.0, 345.0, 348.0, 345.0, 344.0, 346.0, 343.0, 347.0, 344.0, 345.0, 346.0, 346.0, 346.0, 343.0, 347.0, 345.0, 344.0, 348.0, 345.0, 346.0, 347.0, 345.0, 347.0, 344.0, 346.0, 343.0, 347.0, 344.0, 344.0, 348.0, 345.0, 348.0, 345.0, 348.0, 344.0, 345.0, 347.0, 345.0, 347.0, 346.0, 346.0, 348.0, 344.0, 348.0, 345.0, 346.0, 346.0, 343.0, 346.0, 345.0, 345.0, 346.0, 350.0, 346.0, 348.0, 342.0, 344.0, 343.0, 343.0, 347.0, 345.0, 345.0, 348.0, 346.0, 349.0, 345.0, 348.0, 345.0, 344.0, 347.0, 344.0, 349.0, 345.0, 347.0, 346.0, 344.0, 346.0, 343.0, 347.0, 345.0, 345.0, 348.0, 345.0, 349.0, 344.0, 345.0, 347.0, 345.0, 349.0, 345.0, 349.0, 344.0, 347.0, 345.0, 344.0, 348.0, 346.0, 346.0, 349.0, 345.0, 348.0, 343.0, 344.0, 347.0, 344.0, 348.0, 345.0, 344.0, 348.0, 345.0, 345.0, 349.0, 346.0, 346.0, 349.0, 346.0, 345.0, 349.0, 344.0, 348.0, 344.0, 344.0, 346.0, 345.0, 345.0, 350.0, 346.0, 349.0, 343.0, 343.0, 345.0, 344.0, 348.0, 347.0, 345.0, 349.0, 345.0, 347.0, 346.0, 344.0, 347.0, 345.0, 345.0, 349.0, 345.0, 345.0, 348.0, 344.0, 348.0, 346.0, 344.0, 349.0, 346.0, 344.0, 345.0, 346.0, 346.0, 345.0, 349.0, 348.0, 344.0, 348.0, 345.0, 344.0, 347.0, 346.0, 345.0, 349.0, 347.0, 346.0, 346.0, 345.0, 346.0, 344.0, 345.0, 347.0, 345.0, 349.0, 345.0, 347.0, 345.0, 345.0, 347.0, 344.0, 348.0, 344.0, 345.0, 347.0, 345.0, 349.0, 345.0, 345.0, 347.0, 344.0, 345.0, 349.0, 347.0, 347.0, 348.0, 344.0, 347.0, 343.0, 344.0, 346.0, 346.0, 350.0, 346.0, 349.0, 343.0, 344.0, 345.0, 343.0, 347.0, 346.0, 345.0, 349.0, 345.0, 349.0, 345.0, 343.0, 346.0],
      "WindowWidth": [745.0, 745.0, 738.0, 742.0, 736.0, 736.0, 740.0, 739.0, 745.0, 740.0, 745.0, 738.0, 739.0, 740.0, 739.0, 745.0, 740.0, 740.0, 743.0, 739.0, 744.0, 738.0, 737.0, 741.0, 739.0, 745.0, 740.0, 743.0, 742.0, 738.0, 744.0, 740.0, 740.0, 743.0, 740.0, 739.0, 742.0, 739.0, 742.0, 743.0, 741.0, 745.0, 742.0, 742.0, 743.0, 739.0, 739.0, 741.0, 738.0, 744.0, 740.0, 740.0, 745.0, 742.0, 741.0, 743.0, 741.0, 740.0, 745.0, 742.0, 740.0, 745.0, 740.0, 739.0, 741.0, 737.0, 743.0, 739.0, 740.0, 742.0, 741.0, 742.0, 737.0, 742.0, 740.0, 739.0, 745.0, 740.0, 742.0, 743.0, 741.0, 743.0, 738.0, 741.0, 737.0, 742.0, 739.0, 739.0, 744.0, 740.0, 745.0, 740.0, 744.0, 739.0, 740.0, 743.0, 741.0, 744.0, 742.0, 742.0, 744.0, 738.0, 744.0, 741.0, 741.0, 742.0, 737.0, 741.0, 741.0, 740.0, 743.0, 748.0, 741.0, 744.0, 736.0, 739.0, 737.0, 737.0, 742.0, 740.0, 741.0, 745.0, 743.0, 747.0, 741.0, 744.0, 740.0, 739.0, 743.0, 739.0, 745.0, 741.0, 742.0, 741.0, 739.0, 741.0, 737.0, 743.0, 740.0, 741.0, 745.0, 741.0, 746.0, 739.0, 740.0, 743.0, 741.0, 747.0, 741.0, 746.0, 738.0, 743.0, 740.0, 738.0, 745.0, 743.0, 742.0, 746.0, 740.0, 743.0, 738.0, 739.0, 743.0, 739.0, 744.0, 740.0, 739.0, 744.0, 740.0, 741.0, 746.0, 742.0, 742.0, 746.0, 743.0, 740.0, 745.0, 739.0, 743.0, 739.0, 739.0, 741.0, 741.0, 741.0, 748.0, 742.0, 745.0, 737.0, 736.0, 740.0, 739.0, 744.0, 743.0, 741.0, 747.0, 741.0, 743.0, 741.0, 738.0, 744.0, 741.0, 740.0, 747.0, 741.0, 741.0, 744.0, 739.0, 745.0, 742.0, 739.0, 745.0, 742.0, 739.0, 740.0, 742.0, 742.0, 742.0, 746.0, 744.0, 739.0, 744.0, 740.0, 739.0, 743.0, 742.0, 741.0, 746.0, 744.0, 742.0, 742.0, 740.0, 741.0, 739.0, 740.0, 743.0, 741.0, 746.0, 740.0, 743.0, 740.0, 740.0, 743.0, 739.0, 744.0, 739.0, 741.0, 744.0, 740.0, 745.0, 740.0, 741.0, 743.0, 739.0, 740.0, 747.0, 743.0, 744.0, 744.0, 739.0, 742.0, 737.0, 739.0, 743.0, 742.0, 748.0, 742.0, 745.0, 738.0, 739.0, 740.0, 738.0, 743.0, 742.0, 740.0, 746.0, 740.0, 745.0, 741.0, 738.0, 742.0]
    },
    "slices": {}
  }
}