{
  "AcquisitionMatrixPE": 96,
  "AcquisitionNumber": 1,
  "AcquisitionTime": "15:35:15.257500",
  "BandwidthPerPixelPhaseEncode": 18.939,
  "BaseResolution": 96,
  "BodyPartExamined": "BRAIN",
  "ConsistencyInfo": "N4_VE11C_LATEST_20160120",
  "ConversionSoftware": "dcm2niix",
  "ConversionSoftwareVersion": "v1.0.20170923 (OpenJPEG build) GCC6.3.0",
  "DerivedVendorReportedEchoSpacing": 0.000550011,
  "DeviceSerialNumber": "66112",
  "DwellTime": 2.3e-06,
  "EchoTime": 0.033,
  "EchoTrainLength": 96,
  "EffectiveEchoSpacing": 0.000550011,
  "FlipAngle": 64,
  "ImageType": [
    "ORIGINAL",
    "PRIMARY",
    "FMRI",
    "NONE",
    "ND",
    "NORM",
    "MOSAIC"
],
  "InstitutionAddress": "Maynard_3_Hanover_NH_US_03755",
  "InstitutionName": "Dartmouth_College_-_PBS",
  "MagneticFieldStrength": 3,
  "Manufacturer": "Siemens",
  "ManufacturersModelName": "Prisma",
  "Modality": "MR",
  "MultibandAccelerationFactor": 4,
  "PartialFourier": 1,
  "PercentPhaseFOV": 100,
  "PhaseEncodingDirection": "j-",
  "PhaseEncodingSteps": 96,
  "PhaseResolution": 1,
  "ProcedureStepDescription": "Gobbini_Matteo_1017_famface-angles",
  "ProtocolName": "func_run-06_task-localizer",
  "PulseSequenceDetails": "%SiemensSeq%_ep2d_bold",
  "ReceiveCoilActiveElements": "HEA;HEP",
  "ReceiveCoilName": "Head_32",
  "ReconMatrixPE": 96,
  "RepetitionTime": 1.25,
  "ScanOptions": "FS",
  "ScanningSequence": "EP",
  "SequenceName": "_epfid2d1_96",
  "SequenceVariant": "SK",
  "SeriesDescription": "func_run-06_task-localizer",
  "SliceTiming": [0.8775, 0, 0.615, 0.0875, 0.7025, 0.175, 0.79, 0.35, 0.965, 0.4375, 1.0525, 0.525, 1.14, 0.2625, 0.8775, 0, 0.615, 0.0875, 0.7025, 0.175, 0.79, 0.35, 0.965, 0.4375, 1.0525, 0.525, 1.14, 0.2625, 0.8775, 0, 0.615, 0.0875, 0.7025, 0.175, 0.79, 0.35, 0.965, 0.4375, 1.0525, 0.525, 1.14, 0.2625, 0.8775, 0, 0.615, 0.0875, 0.7025, 0.175, 0.79, 0.35, 0.965, 0.4375, 1.0525, 0.525, 1.14, 0.2625],
  "SoftwareVersions": "syngo_MR_E11",
  "StationName": "AWP66112",
  "TaskName": "localizer",
  "TotalReadoutTime": 0.0522511,
  "dcmmeta_affine": [
    [-2.4959781169891357, 0.13998380303382874, 0.022302908822894096, 115.51658630371094],
    [0.1405237764120102, 2.4951913356781006, 0.0653679296374321, -115.20475006103516],
    [0.01859983056783676, -0.06651640683412552, 2.4990458488464355, -65.01366424560547],
    [0.0, 0.0, 0.0, 1.0]
],
  "dcmmeta_reorient_transform": [
    [0.0, -1.0, 0.0, 95.0],
    [1.0, 0.0, 0.0, 0.0],
    [0.0, 0.0, 1.0, 0.0],
    [0.0, 0.0, 0.0, 1.0]
],
  "dcmmeta_shape": [96, 96, 56, 325],
  "dcmmeta_slice_dim": 2,
  "dcmmeta_version": 0.6,
  "global": {
    "const": {
      "AccessionNumber": "A000466",
      "AcquisitionMatrix": [96, 0, 0, 96],
      "AngioFlag": "N",
      "BitsAllocated": 16,
      "BitsStored": 12,
      "BodyPartExamined": "BRAIN",
      "Columns": 768,
      "EchoNumbers": 1,
      "EchoTime": 33.0,
      "EchoTrainLength": 96,
      "FlipAngle": 64.0,
      "HighBit": 11,
      "ImageOrientationPatient": [0.99839127531587, -0.0562095079388, 0.00743993215231, 0.05599351937345, 0.99807655849099, 0.02660656270469],
      "ImagePositionPatient": [-1014.4982780047, -913.00675299057, -99.931781669165],
      "ImageType": [
        "ORIGINAL",
        "PRIMARY",
        "FMRI",
        "NONE",
        "ND",
        "NORM",
        "MOSAIC"
],
      "ImagedNucleus": "1H",
      "ImagingFrequency": 123.252367,
      "InPlanePhaseEncodingDirection": "COL",
      "MRAcquisitionType": "2D",
      "MagneticFieldStrength": 3.0,
      "Manufacturer": "SIEMENS",
      "ManufacturerModelName": "Prisma",
      "Modality": "MR",
      "NumberOfAverages": 1.0,
      "NumberOfPhaseEncodingSteps": 96,
      "PercentPhaseFieldOfView": 100.0,
      "PercentSampling": 100.0,
      "PerformedProcedureStepStartTime": "143328.798000",
      "PhotometricInterpretation": "MONOCHROME2",
      "PixelBandwidth": 2265.0,
      "PixelRepresentation": 0,
      "PixelSpacing": [2.5, 2.5],
      "PositionReferenceIndicator": "",
      "ProtocolName": "func_run-06_task-localizer",
      "RepetitionTime": 1250.0,
      "Rows": 768,
      "SAR": 0.04384348306038,
      "SamplesPerPixel": 1,
      "ScanOptions": "FS",
      "ScanningSequence": "EP",
      "SequenceName": "*epfid2d1_96",
      "SequenceVariant": "SK",
      "SeriesDescription": "func_run-06_task-localizer",
      "SeriesNumber": 43,
      "SeriesTime": "153517.170000",
      "SliceLocation": -66.970587462773,
      "SliceThickness": 2.5,
      "SmallestImagePixelValue": 0,
      "SoftwareVersions": "syngo MR E11",
      "SpacingBetweenSlices": 2.5000000300206,
      "SpecificCharacterSet": "ISO_IR 100",
      "StudyID": "3",
      "StudyTime": "143328.746000",
      "TransmitCoilName": "Body",
      "VariableFlipAngleFlag": "N",
      "WindowCenterWidthExplanation": "Algo1",
      "dBdt": 0.0},
    "slices": {}
  },
  "time": {
    "samples": {
      "AcquisitionNumber": [1, 2, 3, 4, 5, 6, 7, 8, 9, 10, 11, 12, 13, 14, 15, 16, 17, 18, 19, 20, 21, 22, 23, 24, 25, 26, 27, 28, 29, 30, 31, 32, 33, 34, 35, 36, 37, 38, 39, 40, 41, 42, 43, 44, 45, 46, 47, 48, 49, 50, 51, 52, 53, 54, 55, 56, 57, 58, 59, 60, 61, 62, 63, 64, 65, 66, 67, 68, 69, 70, 71, 72, 73, 74, 75, 76, 77, 78, 79, 80, 81, 82, 83, 84, 85, 86, 87, 88, 89, 90, 91, 92, 93, 94, 95, 96, 97, 98, 99, 100, 101, 102, 103, 104, 105, 106, 107, 108, 109, 110, 111, 112, 113, 114, 115, 116, 117, 118, 119, 120, 121, 122, 123, 124, 125, 126, 127, 128, 129, 130, 131, 132, 133, 134, 135, 136, 137, 138, 139, 140, 141, 142, 143, 144, 145, 146, 147, 148, 149, 150, 151, 152, 153, 154, 155, 156, 157, 158, 159, 160, 161, 162, 163, 164, 165, 166, 167, 168, 169, 170, 171, 172, 173, 174, 175, 176, 177, 178, 179, 180, 181, 182, 183, 184, 185, 186, 187, 188, 189, 190, 191, 192, 193, 194, 195, 196, 197, 198, 199, 200, 201, 202, 203, 204, 205, 206, 207, 208, 209, 210, 211, 212, 213, 214, 215, 216, 217, 218, 219, 220, 221, 222, 223, 224, 225, 226, 227, 228, 229, 230, 231, 232, 233, 234, 235, 236, 237, 238, 239, 240, 241, 242, 243, 244, 245, 246, 247, 248, 249, 250, 251, 252, 253, 254, 255, 256, 257, 258, 259, 260, 261, 262, 263, 264, 265, 266, 267, 268, 269, 270, 271, 272, 273, 274, 275, 276, 277, 278, 279, 280, 281, 282, 283, 284, 285, 286, 287, 288, 289, 290, 291, 292, 293, 294, 295, 296, 297, 298, 299, 300, 301, 302, 303, 304, 305, 306, 307, 308, 309, 310, 311, 312, 313, 314, 315, 316, 317, 318, 319, 320, 321, 322, 323, 324, 325],
      "AcquisitionTime": ["153515.257500", "153516.507500", "153517.757500", "153519.007500", "153520.257500", "153521.507500", "153522.757500", "153524.007500", "153525.257500", "153526.507500", "153527.757500", "153529.007500", "153530.257500", "153531.507500", "153532.757500", "153534.007500", "153535.257500", "153536.507500", "153537.757500", "153539.007500", "153540.257500", "153541.507500", "153542.757500", "153544.007500", "153545.257500", "153546.507500", "153547.757500", "153549.007500", "153550.257500", "153551.507500", "153552.757500", "153554.007500", "153555.257500", "153556.507500", "153557.757500", "153559.007500", "153600.257500", "153601.507500", "153602.757500", "153604.007500", "153605.257500", "153606.507500", "153607.757500", "153609.007500", "153610.257500", "153611.507500", "153612.757500", "153614.007500", "153615.257500", "153616.507500", "153617.757500", "153619.007500", "153620.257500", "153621.507500", "153622.757500", "153624.007500", "153625.257500", "153626.507500", "153627.757500", "153629.007500", "153630.257500", "153631.507500", "153632.757500", "153634.007500", "153635.257500", "153636.507500", "153637.757500", "153639.007500", "153640.257500", "153641.507500", "153642.757500", "153644.007500", "153645.257500", "153646.507500", "153647.757500", "153649.007500", "153650.257500", "153651.507500", "153652.757500", "153654.007500", "153655.257500", "153656.507500", "153657.757500", "153659.007500", "153700.257500", "153701.507500", "153702.757500", "153704.007500", "153705.257500", "153706.507500", "153707.757500", "153709.007500", "153710.257500", "153711.507500", "153712.757500", "153714.007500", "153715.257500", "153716.507500", "153717.757500", "153719.007500", "153720.257500", "153721.507500", "153722.757500", "153724.007500", "153725.257500", "153726.507500", "153727.757500", "153729.007500", "153730.257500", "153731.507500", "153732.757500", "153734.007500", "153735.257500", "153736.507500", "153737.757500", "153739.007500", "153740.257500", "153741.507500", "153742.757500", "153744.007500", "153745.257500", "153746.507500", "153747.757500", "153749.007500", "153750.257500", "153751.507500", "153752.757500", "153754.007500", "153755.257500", "153756.507500", "153757.757500", "153759.007500", "153800.257500", "153801.507500", "153802.757500", "153804.007500", "153805.257500", "153806.507500", "153807.757500", "153809.007500", "153810.257500", "153811.507500", "153812.757500", "153814.007500", "153815.257500", "153816.507500", "153817.757500", "153819.007500", "153820.257500", "153821.507500", "153822.757500", "153824.007500", "153825.257500", "153826.507500", "153827.757500", "153829.007500", "153830.257500", "153831.507500", "153832.757500", "153834.007500", "153835.257500", "153836.507500", "153837.757500", "153839.007500", "153840.257500", "153841.507500", "153842.757500", "153844.007500", "153845.257500", "153846.507500", "153847.757500", "153849.007500", "153850.257500", "153851.507500", "153852.757500", "153854.007500", "153855.257500", "153856.507500", "153857.757500", "153859.007500", "153900.257500", "153901.507500", "153902.757500", "153904.007500", "153905.257500", "153906.507500", "153907.757500", "153909.007500", "153910.257500", "153911.507500", "153912.757500", "153914.007500", "153915.257500", "153916.507500", "153917.757500", "153919.007500", "153920.257500", "153921.507500", "153922.757500", "153924.007500", "153925.257500", "153926.507500", "153927.757500", "153929.007500", "153930.257500", "153931.507500", "153932.757500", "153934.007500", "153935.257500", "153936.507500", "153937.757500", "153939.007500", "153940.257500", "153941.507500", "153942.757500", "153944.007500", "153945.257500", "153946.507500", "153947.757500", "153949.007500", "153950.257500", "153951.507500", "153952.757500", "153954.007500", "153955.257500", "153956.507500", "153957.757500", "153959.007500", "154000.257500", "154001.507500", "154002.757500", "154004.007500", "154005.257500", "154006.507500", "154007.757500", "154009.007500", "154010.257500", "154011.507500", "154012.757500", "154014.007500", "154015.257500", "154016.507500", "154017.757500", "154019.007500", "154020.257500", "154021.507500", "154022.757500", "154024.007500", "154025.257500", "154026.507500", "154027.757500", "154029.007500", "154030.257500", "154031.507500", "154032.757500", "154034.007500", "154035.257500", "154036.507500", "154037.757500", "154039.007500", "154040.257500", "154041.507500", "154042.757500", "154044.007500", "154045.257500", "154046.507500", "154047.757500", "154049.007500", "154050.257500", "154051.507500", "154052.757500", "154054.007500", "154055.257500", "154056.507500", "154057.757500", "154059.007500", "154100.257500", "154101.507500", "154102.757500", "154104.007500", "154105.257500", "154106.507500", "154107.757500", "154109.007500", "154110.257500", "154111.507500", "154112.757500", "154114.007500", "154115.257500", "154116.507500", "154117.757500", "154119.007500", "154120.257500", "154121.507500", "154122.757500", "154124.007500", "154125.257500", "154126.507500", "154127.757500", "154129.007500", "154130.257500", "154131.507500", "154132.757500", "154134.007500", "154135.257500", "154136.507500", "154137.757500", "154139.007500", "154140.257500", "154141.507500", "154142.757500", "154144.007500", "154145.257500", "154146.507500", "154147.757500", "154149.007500", "154150.257500", "154151.507500", "154152.757500", "154154.007500", "154155.257500", "154156.507500", "154157.757500", "154159.007500", "154200.257500"],
      "ContentTime": ["153517.174000", "153518.264000", "153519.528000", "153520.771000", "153521.990000", "153523.256000", "153524.524000", "153525.750000", "153526.992000", "153528.234000", "153529.512000", "153530.772000", "153531.998000", "153533.257000", "153534.495000", "153535.759000", "153537.005000", "153538.285000", "153539.531000", "153540.765000", "153542.026000", "153543.253000", "153544.478000", "153545.747000", "153546.990000", "153548.246000", "153549.551000", "153550.788000", "153551.995000", "153553.291000", "153554.515000", "153555.758000", "153557.020000", "153558.294000", "153559.525000", "153600.761000", "153602.019000", "153603.248000", "153604.545000", "153605.759000", "153606.975000", "153608.260000", "153609.491000", "153610.728000", "153611.984000", "153613.252000", "153614.498000", "153615.735000", "153617.010000", "153618.259000", "153619.489000", "153620.739000", "153622.015000", "153623.280000", "153624.479000", "153625.756000", "153627.022000", "153628.258000", "153629.488000", "153630.734000", "153631.991000", "153633.219000", "153634.541000", "153635.758000", "153637.000000", "153638.255000", "153639.483000", "153640.726000", "153641.974000", "153643.262000", "153644.518000", "153645.767000", "153647.026000", "153648.261000", "153649.507000", "153650.756000", "153651.992000", "153653.281000", "153654.515000", "153655.749000", "153657.010000", "153658.252000", "153659.527000", "153700.710000", "153702.009000", "153703.248000", "153704.491000", "153705.750000", "153707.025000", "153708.235000", "153709.507000", "153710.764000", "153712.013000", "153713.252000", "153714.495000", "153715.770000", "153717.004000", "153718.258000", "153719.502000", "153720.761000", "153721.995000", "153723.309000", "153724.551000", "153725.806000", "153727.031000", "153728.261000", "153729.501000", "153730.774000", "153732.015000", "153733.246000", "153734.522000", "153735.748000", "153737.018000", "153738.258000", "153739.486000", "153740.776000", "153742.040000", "153743.269000", "153744.520000", "153745.756000", "153747.022000", "153748.267000", "153749.520000", "153750.756000", "153752.066000", "153753.228000", "153754.493000", "153755.739000", "153757.001000", "153758.251000", "153759.498000", "153800.785000", "153802.034000", "153803.263000", "153804.519000", "153805.760000", "153807.008000", "153808.277000", "153809.486000", "153810.754000", "153812.015000", "153813.264000", "153814.518000", "153815.754000", "153816.995000", "153818.247000", "153819.556000", "153820.777000", "153821.998000", "153823.270000", "153824.508000", "153825.760000", "153827.002000", "153828.260000", "153829.508000", "153830.770000", "153832.012000", "153833.264000", "153834.523000", "153835.764000", "153837.031000", "153838.275000", "153839.491000", "153840.773000", "153841.998000", "153843.301000", "153844.502000", "153845.780000", "153847.022000", "153848.301000", "153849.533000", "153850.736000", "153852.025000", "153853.253000", "153854.507000", "153855.745000", "153857.022000", "153858.281000", "153859.538000", "153900.798000", "153902.062000", "153903.263000", "153904.489000", "153905.779000", "153907.036000", "153908.289000", "153909.513000", "153910.743000", "153911.989000", "153913.275000", "153914.534000", "153915.762000", "153917.026000", "153918.279000", "153919.560000", "153920.765000", "153922.010000", "153923.315000", "153924.512000", "153925.735000", "153926.992000", "153928.239000", "153929.526000", "153930.753000", "153932.031000", "153933.285000", "153934.518000", "153935.762000", "153937.041000", "153938.284000", "153939.525000", "153940.769000", "153942.012000", "153943.227000", "153944.466000", "153945.835000", "153946.976000", "153948.253000", "153949.496000", "153950.751000", "153952.004000", "153953.228000", "153954.505000", "153955.742000", "153956.986000", "153958.234000", "153959.476000", "154000.789000", "154001.994000", "154003.237000", "154004.546000", "154005.765000", "154007.047000", "154008.329000", "154009.506000", "154010.757000", "154011.975000", "154013.274000", "154014.482000", "154015.768000", "154017.019000", "154018.264000", "154019.522000", "154020.738000", "154022.031000", "154023.283000", "154024.507000", "154025.723000", "154027.029000", "154028.289000", "154029.492000", "154030.765000", "154032.013000", "154033.248000", "154034.508000", "154035.779000", "154037.003000", "154038.272000", "154039.515000", "154040.771000", "154042.001000", "154043.245000", "154044.481000", "154045.764000", "154047.000000", "154048.270000", "154049.513000", "154050.770000", "154052.022000", "154053.245000", "154054.532000", "154055.804000", "154056.970000", "154058.268000", "154059.495000", "154100.780000", "154101.991000", "154103.271000", "154104.491000", "154105.771000", "154106.979000", "154108.249000", "154109.530000", "154110.755000", "154112.004000", "154113.252000", "154114.500000", "154115.745000", "154117.007000", "154118.258000", "154119.503000", "154120.749000", "154122.021000", "154123.263000", "154124.500000", "154125.755000", "154127.066000", "154128.263000", "154129.526000", "154130.759000", "154132.009000", "154133.258000", "154134.487000", "154135.763000", "154136.995000", "154138.240000", "154139.516000", "154140.777000", "154142.012000", "154143.291000", "154144.501000", "154145.737000", "154147.020000", "154148.279000", "154149.503000", "154150.751000", "154152.003000", "154153.260000", "154154.536000", "154155.800000", "154156.988000", "154158.272000", "154159.515000", "154200.754000", "154202.081000"],
      "InstanceCreationTime": ["153517.174000", "153518.264000", "153519.528000", "153520.771000", "153521.990000", "153523.256000", "153524.524000", "153525.750000", "153526.992000", "153528.234000", "153529.512000", "153530.772000", "153531.998000", "153533.257000", "153534.495000", "153535.759000", "153537.005000", "153538.285000", "153539.531000", "153540.765000", "153542.026000", "153543.253000", "153544.478000", "153545.747000", "153546.990000", "153548.246000", "153549.551000", "153550.788000", "153551.995000", "153553.291000", "153554.515000", "153555.758000", "153557.020000", "153558.294000", "153559.525000", "153600.761000", "153602.019000", "153603.248000", "153604.545000", "153605.759000", "153606.975000", "153608.260000", "153609.491000", "153610.728000", "153611.984000", "153613.252000", "153614.498000", "153615.735000", "153617.010000", "153618.259000", "153619.489000", "153620.739000", "153622.015000", "153623.280000", "153624.479000", "153625.756000", "153627.022000", "153628.258000", "153629.488000", "153630.734000", "153631.991000", "153633.219000", "153634.541000", "153635.758000", "153637.000000", "153638.255000", "153639.483000", "153640.726000", "153641.974000", "153643.262000", "153644.518000", "153645.767000", "153647.026000", "153648.261000", "153649.507000", "153650.756000", "153651.992000", "153653.281000", "153654.515000", "153655.749000", "153657.010000", "153658.252000", "153659.527000", "153700.710000", "153702.009000", "153703.248000", "153704.491000", "153705.750000", "153707.025000", "153708.235000", "153709.507000", "153710.764000", "153712.013000", "153713.252000", "153714.495000", "153715.770000", "153717.004000", "153718.258000", "153719.502000", "153720.761000", "153721.995000", "153723.309000", "153724.551000", "153725.806000", "153727.031000", "153728.261000", "153729.501000", "153730.774000", "153732.015000", "153733.246000", "153734.522000", "153735.748000", "153737.018000", "153738.258000", "153739.486000", "153740.776000", "153742.040000", "153743.269000", "153744.520000", "153745.756000", "153747.022000", "153748.267000", "153749.520000", "153750.756000", "153752.066000", "153753.228000", "153754.493000", "153755.739000", "153757.001000", "153758.251000", "153759.498000", "153800.785000", "153802.034000", "153803.263000", "153804.519000", "153805.760000", "153807.008000", "153808.277000", "153809.486000", "153810.754000", "153812.015000", "153813.264000", "153814.518000", "153815.754000", "153816.995000", "153818.247000", "153819.556000", "153820.777000", "153821.998000", "153823.270000", "153824.508000", "153825.760000", "153827.002000", "153828.260000", "153829.508000", "153830.770000", "153832.012000", "153833.264000", "153834.523000", "153835.764000", "153837.031000", "153838.275000", "153839.491000", "153840.773000", "153841.998000", "153843.301000", "153844.502000", "153845.780000", "153847.022000", "153848.301000", "153849.533000", "153850.736000", "153852.025000", "153853.253000", "153854.507000", "153855.745000", "153857.022000", "153858.281000", "153859.538000", "153900.798000", "153902.062000", "153903.263000", "153904.489000", "153905.779000", "153907.036000", "153908.289000", "153909.513000", "153910.743000", "153911.989000", "153913.275000", "153914.534000", "153915.762000", "153917.026000", "153918.279000", "153919.560000", "153920.765000", "153922.010000", "153923.315000", "153924.512000", "153925.735000", "153926.992000", "153928.239000", "153929.526000", "153930.753000", "153932.031000", "153933.285000", "153934.518000", "153935.762000", "153937.041000", "153938.284000", "153939.525000", "153940.769000", "153942.012000", "153943.227000", "153944.466000", "153945.835000", "153946.976000", "153948.253000", "153949.496000", "153950.751000", "153952.004000", "153953.228000", "153954.505000", "153955.742000", "153956.986000", "153958.234000", "153959.476000", "154000.789000", "154001.994000", "154003.237000", "154004.546000", "154005.765000", "154007.047000", "154008.329000", "154009.506000", "154010.757000", "154011.975000", "154013.274000", "154014.482000", "154015.768000", "154017.019000", "154018.264000", "154019.522000", "154020.738000", "154022.031000", "154023.283000", "154024.507000", "154025.723000", "154027.029000", "154028.289000", "154029.492000", "154030.765000", "154032.013000", "154033.248000", "154034.508000", "154035.779000", "154037.003000", "154038.272000", "154039.515000", "154040.771000", "154042.001000", "154043.245000", "154044.481000", "154045.764000", "154047.000000", "154048.270000", "154049.513000", "154050.770000", "154052.022000", "154053.245000", "154054.532000", "154055.804000", "154056.970000", "154058.268000", "154059.495000", "154100.780000", "154101.991000", "154103.271000", "154104.491000", "154105.771000", "154106.979000", "154108.249000", "154109.530000", "154110.755000", "154112.004000", "154113.252000", "154114.500000", "154115.745000", "154117.007000", "154118.258000", "154119.503000", "154120.749000", "154122.021000", "154123.263000", "154124.500000", "154125.755000", "154127.066000", "154128.263000", "154129.526000", "154130.759000", "154132.009000", "154133.258000", "154134.487000", "154135.763000", "154136.995000", "154138.240000", "154139.516000", "154140.777000", "154142.012000", "154143.291000", "154144.501000", "154145.737000", "154147.020000", "154148.279000", "154149.503000", "154150.751000", "154152.003000", "154153.260000", "154154.536000", "154155.800000", "154156.988000", "154158.272000", "154159.515000", "154200.754000", "154202.081000"],
      "InstanceNumber": [1, 2, 3, 4, 5, 6, 7, 8, 9, 10, 11, 12, 13, 14, 15, 16, 17, 18, 19, 20, 21, 22, 23, 24, 25, 26, 27, 28, 29, 30, 31, 32, 33, 34, 35, 36, 37, 38, 39, 40, 41, 42, 43, 44, 45, 46, 47, 48, 49, 50, 51, 52, 53, 54, 55, 56, 57, 58, 59, 60, 61, 62, 63, 64, 65, 66, 67, 68, 69, 70, 71, 72, 73, 74, 75, 76, 77, 78, 79, 80, 81, 82, 83, 84, 85, 86, 87, 88, 89, 90, 91, 92, 93, 94, 95, 96, 97, 98, 99, 100, 101, 102, 103, 104, 105, 106, 107, 108, 109, 110, 111, 112, 113, 114, 115, 116, 117, 118, 119, 120, 121, 122, 123, 124, 125, 126, 127, 128, 129, 130, 131, 132, 133, 134, 135, 136, 137, 138, 139, 140, 141, 142, 143, 144, 145, 146, 147, 148, 149, 150, 151, 152, 153, 154, 155, 156, 157, 158, 159, 160, 161, 162, 163, 164, 165, 166, 167, 168, 169, 170, 171, 172, 173, 174, 175, 176, 177, 178, 179, 180, 181, 182, 183, 184, 185, 186, 187, 188, 189, 190, 191, 192, 193, 194, 195, 196, 197, 198, 199, 200, 201, 202, 203, 204, 205, 206, 207, 208, 209, 210, 211, 212, 213, 214, 215, 216, 217, 218, 219, 220, 221, 222, 223, 224, 225, 226, 227, 228, 229, 230, 231, 232, 233, 234, 235, 236, 237, 238, 239, 240, 241, 242, 243, 244, 245, 246, 247, 248, 249, 250, 251, 252, 253, 254, 255, 256, 257, 258, 259, 260, 261, 262, 263, 264, 265, 266, 267, 268, 269, 270, 271, 272, 273, 274, 275, 276, 277, 278, 279, 280, 281, 282, 283, 284, 285, 286, 287, 288, 289, 290, 291, 292, 293, 294, 295, 296, 297, 298, 299, 300, 301, 302, 303, 304, 305, 306, 307, 308, 309, 310, 311, 312, 313, 314, 315, 316, 317, 318, 319, 320, 321, 322, 323, 324, 325],
      "LargestImagePixelValue": [919, 738, 859, 731, 721, 870, 721, 908, 722, 888, 713, 871, 709, 739, 704, 778, 744, 707, 826, 710, 864, 728, 718, 792, 705, 703, 824, 707, 812, 711, 805, 718, 713, 770, 734, 809, 708, 842, 712, 840, 707, 782, 808, 739, 710, 773, 747, 911, 772, 899, 713, 881, 707, 926, 703, 837, 704, 719, 705, 714, 892, 729, 791, 843, 747, 930, 749, 938, 757, 831, 715, 738, 790, 745, 814, 782, 724, 704, 705, 888, 707, 711, 720, 795, 702, 718, 979, 737, 930, 702, 823, 709, 707, 760, 706, 796, 708, 712, 744, 726, 780, 760, 695, 699, 945, 697, 804, 710, 723, 755, 749, 743, 702, 800, 699, 839, 705, 742, 691, 752, 703, 730, 762, 986, 730, 796, 846, 698, 779, 781, 701, 864, 696, 750, 768, 731, 788, 828, 748, 700, 889, 887, 696, 697, 869, 712, 897, 715, 865, 699, 782, 714, 790, 748, 725, 888, 796, 711, 750, 803, 768, 996, 855, 832, 940, 708, 889, 699, 819, 704, 704, 703, 711, 787, 717, 702, 770, 695, 911, 725, 858, 728, 852, 717, 732, 768, 789, 839, 734, 699, 728, 750, 697, 747, 826, 808, 780, 762, 700, 698, 763, 748, 709, 711, 792, 701, 849, 707, 782, 703, 810, 707, 697, 757, 702, 736, 691, 700, 904, 707, 1010, 707, 936, 698, 796, 700, 860, 699, 732, 785, 694, 725, 692, 747, 805, 695, 755, 737, 702, 707, 697, 702, 774, 863, 710, 857, 700, 717, 721, 697, 750, 756, 740, 727, 716, 724, 771, 743, 818, 696, 927, 724, 755, 774, 696, 796, 701, 700, 750, 777, 772, 698, 699, 740, 694, 845, 694, 873, 701, 725, 751, 705, 910, 698, 911, 702, 806, 697, 689, 758, 696, 708, 701, 823, 698, 940, 699, 890, 863, 755, 694, 702, 695, 903, 784, 700, 848, 694, 755, 694, 736, 701, 699, 816, 737, 742, 801, 728, 719, 734, 724, 757, 900, 712, 712],
      "WindowCenter": [351.0, 347.0, 348.0, 346.0, 346.0, 349.0, 346.0, 349.0, 345.0, 347.0, 345.0, 348.0, 346.0, 347.0, 346.0, 347.0, 346.0, 346.0, 347.0, 346.0, 349.0, 347.0, 347.0, 348.0, 346.0, 346.0, 347.0, 345.0, 347.0, 345.0, 346.0, 345.0, 345.0, 347.0, 345.0, 347.0, 345.0, 348.0, 346.0, 348.0, 346.0, 348.0, 348.0, 347.0, 347.0, 348.0, 347.0, 348.0, 345.0, 347.0, 344.0, 347.0, 345.0, 348.0, 344.0, 346.0, 344.0, 344.0, 345.0, 345.0, 349.0, 348.0, 350.0, 350.0, 346.0, 348.0, 344.0, 346.0, 343.0, 345.0, 343.0, 343.0, 345.0, 344.0, 345.0, 345.0, 345.0, 345.0, 345.0, 348.0, 345.0, 346.0, 346.0, 347.0, 347.0, 346.0, 349.0, 345.0, 347.0, 343.0, 345.0, 344.0, 344.0, 345.0, 345.0, 347.0, 345.0, 345.0, 346.0, 346.0, 347.0, 347.0, 346.0, 346.0, 349.0, 344.0, 346.0, 344.0, 344.0, 345.0, 346.0, 346.0, 345.0, 347.0, 345.0, 348.0, 345.0, 346.0, 346.0, 348.0, 347.0, 347.0, 346.0, 348.0, 344.0, 345.0, 346.0, 344.0, 345.0, 345.0, 344.0, 347.0, 345.0, 346.0, 346.0, 346.0, 347.0, 348.0, 347.0, 346.0, 348.0, 348.0, 345.0, 345.0, 349.0, 346.0, 349.0, 345.0, 347.0, 344.0, 345.0, 346.0, 347.0, 346.0, 346.0, 348.0, 347.0, 346.0, 348.0, 348.0, 346.0, 349.0, 347.0, 345.0, 345.0, 341.0, 344.0, 341.0, 344.0, 343.0, 343.0, 344.0, 345.0, 347.0, 346.0, 347.0, 349.0, 347.0, 350.0, 346.0, 347.0, 344.0, 346.0, 343.0, 344.0, 346.0, 346.0, 347.0, 345.0, 344.0, 345.0, 346.0, 345.0, 346.0, 347.0, 346.0, 345.0, 345.0, 344.0, 344.0, 346.0, 346.0, 346.0, 345.0, 346.0, 343.0, 345.0, 343.0, 344.0, 343.0, 346.0, 345.0, 345.0, 346.0, 346.0, 346.0, 347.0, 347.0, 350.0, 346.0, 349.0, 343.0, 347.0, 344.0, 345.0, 344.0, 346.0, 344.0, 344.0, 345.0, 344.0, 345.0, 345.0, 346.0, 347.0, 345.0, 346.0, 345.0, 344.0, 344.0, 344.0, 344.0, 345.0, 347.0, 344.0, 346.0, 343.0, 344.0, 346.0, 347.0, 348.0, 348.0, 347.0, 345.0, 344.0, 344.0, 345.0, 345.0, 346.0, 344.0, 347.0, 344.0, 345.0, 346.0, 344.0, 345.0, 344.0, 344.0, 345.0, 345.0, 345.0, 344.0, 345.0, 347.0, 347.0, 348.0, 345.0, 347.0, 344.0, 344.0, 346.0, 344.0, 348.0, 344.0, 346.0, 343.0, 345.0, 343.0, 343.0, 346.0, 345.0, 347.0, 347.0, 349.0, 347.0, 350.0, 344.0, 347.0, 346.0, 345.0, 346.0, 346.0, 345.0, 347.0, 344.0, 342.0, 344.0, 341.0, 343.0, 344.0, 345.0, 347.0, 347.0, 348.0, 347.0, 346.0, 346.0, 345.0, 346.0, 346.0, 346.0, 346.0, 348.0, 345.0, 345.0],
