{
  "AcquisitionMatrixPE": 96,
  "AcquisitionNumber": 1,
  "AcquisitionTime": "15:22:17.865000",
  "BandwidthPerPixelPhaseEncode": 18.939,
  "BaseResolution": 96,
  "BodyPartExamined": "BRAIN",
  "ConsistencyInfo": "N4_VE11C_LATEST_20160120",
  "ConversionSoftware": "dcm2niix",
  "ConversionSoftwareVersion": "v1.0.20170923 (OpenJPEG build) GCC6.3.0",
  "DerivedVendorReportedEchoSpacing": 0.000550011,
  "DeviceSerialNumber": "66112",
  "DwellTime": 2.3e-06,
  "EchoTime": 0.033,
  "EchoTrainLength": 96,
  "EffectiveEchoSpacing": 0.000550011,
  "FlipAngle": 64,
  "ImageType": [
    "ORIGINAL",
    "PRIMARY",
    "FMRI",
    "NONE",
    "ND",
    "NORM",
    "MOSAIC"
],
  "InstitutionAddress": "Maynard_3_Hanover_NH_US_03755",
  "InstitutionName": "Dartmouth_College_-_PBS",
  "MagneticFieldStrength": 3,
  "Manufacturer": "Siemens",
  "ManufacturersModelName": "Prisma",
  "Modality": "MR",
  "MultibandAccelerationFactor": 4,
  "PartialFourier": 1,
  "PercentPhaseFOV": 100,
  "PhaseEncodingDirection": "j-",
  "PhaseEncodingSteps": 96,
  "PhaseResolution": 1,
  "ProcedureStepDescription": "Gobbini_Matteo_1017_famface-angles",
  "ProtocolName": "func_run-04_task-fam1back",
  "PulseSequenceDetails": "%SiemensSeq%_ep2d_bold",
  "ReceiveCoilActiveElements": "HEA;HEP",
  "ReceiveCoilName": "Head_32",
  "ReconMatrixPE": 96,
  "RepetitionTime": 1.25,
  "ScanOptions": "FS",
  "ScanningSequence": "EP",
  "SequenceName": "_epfid2d1_96",
  "SequenceVariant": "SK",
  "SeriesDescription": "func_run-04_task-fam1back",
  "SliceTiming": [0.8775, 0, 0.615, 0.0875, 0.7025, 0.175, 0.79, 0.35, 0.965, 0.4375, 1.0525, 0.525, 1.14, 0.2625, 0.8775, 0, 0.615, 0.0875, 0.7025, 0.175, 0.79, 0.35, 0.965, 0.4375, 1.0525, 0.525, 1.14, 0.2625, 0.8775, 0, 0.615, 0.0875, 0.7025, 0.175, 0.79, 0.35, 0.965, 0.4375, 1.0525, 0.525, 1.14, 0.2625, 0.8775, 0, 0.615, 0.0875, 0.7025, 0.175, 0.79, 0.35, 0.965, 0.4375, 1.0525, 0.525, 1.14, 0.2625],
  "SoftwareVersions": "syngo_MR_E11",
  "StationName": "AWP66112",
  "TaskName": "fam1back",
  "TotalReadoutTime": 0.0522511,
  "dcmmeta_affine": [
    [-2.4959781169891357, 0.13998380303382874, 0.022302908822894096, 115.51658630371094],
    [0.1405237764120102, 2.4951913356781006, 0.0653679296374321, -115.20475006103516],
    [0.01859983056783676, -0.06651640683412552, 2.4990458488464355, -65.01366424560547],
    [0.0, 0.0, 0.0, 1.0]
],
  "dcmmeta_reorient_transform": [
    [0.0, -1.0, 0.0, 95.0],
    [1.0, 0.0, 0.0, 0.0],
    [0.0, 0.0, 1.0, 0.0],
    [0.0, 0.0, 0.0, 1.0]
],
  "dcmmeta_shape": [96, 96, 56, 280],
  "dcmmeta_slice_dim": 2,
  "dcmmeta_version": 0.6,
  "global": {
    "const": {
      "AccessionNumber": "A000466",
      "AcquisitionMatrix": [96, 0, 0, 96],
      "AngioFlag": "N",
      "BitsAllocated": 16,
      "BitsStored": 12,
      "BodyPartExamined": "BRAIN",
      "Columns": 768,
      "EchoNumbers": 1,
      "EchoTime": 33.0,
      "EchoTrainLength": 96,
      "FlipAngle": 64.0,
      "HighBit": 11,
      "ImageOrientationPatient": [0.99839127531587, -0.0562095079388, 0.00743993215231, 0.05599351937345, 0.99807655849099, 0.02660656270469],
      "ImagePositionPatient": [-1014.4982780047, -913.00675299057, -99.931781669165],
      "ImageType": [
        "ORIGINAL",
        "PRIMARY",
        "FMRI",
        "NONE",
        "ND",
        "NORM",
        "MOSAIC"
],
      "ImagedNucleus": "1H",
      "ImagingFrequency": 123.252364,
      "InPlanePhaseEncodingDirection": "COL",
      "MRAcquisitionType": "2D",
      "MagneticFieldStrength": 3.0,
      "Manufacturer": "SIEMENS",
      "ManufacturerModelName": "Prisma",
      "Modality": "MR",
      "NumberOfAverages": 1.0,
      "NumberOfPhaseEncodingSteps": 96,
      "PercentPhaseFieldOfView": 100.0,
      "PercentSampling": 100.0,
      "PerformedProcedureStepStartTime": "143328.798000",
      "PhotometricInterpretation": "MONOCHROME2",
      "PixelBandwidth": 2265.0,
      "PixelRepresentation": 0,
      "PixelSpacing": [2.5, 2.5],
      "PositionReferenceIndicator": "",
      "ProtocolName": "func_run-04_task-fam1back",
      "RepetitionTime": 1250.0,
      "Rows": 768,
      "SAR": 0.04378393971437,
      "SamplesPerPixel": 1,
      "ScanOptions": "FS",
      "ScanningSequence": "EP",
      "SequenceName": "*epfid2d1_96",
      "SequenceVariant": "SK",
      "SeriesDescription": "func_run-04_task-fam1back",
      "SeriesNumber": 29,
      "SeriesTime": "152218.951000",
      "SliceLocation": -66.970587462773,
      "SliceThickness": 2.5,
      "SmallestImagePixelValue": 0,
      "SoftwareVersions": "syngo MR E11",
      "SpacingBetweenSlices": 2.5000000300206,
      "SpecificCharacterSet": "ISO_IR 100",
      "StudyID": "3",
      "StudyTime": "143328.746000",
      "TransmitCoilName": "Body",
      "VariableFlipAngleFlag": "N",
      "WindowCenterWidthExplanation": "Algo1",
      "dBdt": 0.0},
    "slices": {}
  },
  "time": {
    "samples": {
      "AcquisitionNumber": [1, 2, 3, 4, 5, 6, 7, 8, 9, 10, 11, 12, 13, 14, 15, 16, 17, 18, 19, 20, 21, 22, 23, 24, 25, 26, 27, 28, 29, 30, 31, 32, 33, 34, 35, 36, 37, 38, 39, 40, 41, 42, 43, 44, 45, 46, 47, 48, 49, 50, 51, 52, 53, 54, 55, 56, 57, 58, 59, 60, 61, 62, 63, 64, 65, 66, 67, 68, 69, 70, 71, 72, 73, 74, 75, 76, 77, 78, 79, 80, 81, 82, 83, 84, 85, 86, 87, 88, 89, 90, 91, 92, 93, 94, 95, 96, 97, 98, 99, 100, 101, 102, 103, 104, 105, 106, 107, 108, 109, 110, 111, 112, 113, 114, 115, 116, 117, 118, 119, 120, 121, 122, 123, 124, 125, 126, 127, 128, 129, 130, 131, 132, 133, 134, 135, 136, 137, 138, 139, 140, 141, 142, 143, 144, 145, 146, 147, 148, 149, 150, 151, 152, 153, 154, 155, 156, 157, 158, 159, 160, 161, 162, 163, 164, 165, 166, 167, 168, 169, 170, 171, 172, 173, 174, 175, 176, 177, 178, 179, 180, 181, 182, 183, 184, 185, 186, 187, 188, 189, 190, 191, 192, 193, 194, 195, 196, 197, 198, 199, 200, 201, 202, 203, 204, 205, 206, 207, 208, 209, 210, 211, 212, 213, 214, 215, 216, 217, 218, 219, 220, 221, 222, 223, 224, 225, 226, 227, 228, 229, 230, 231, 232, 233, 234, 235, 236, 237, 238, 239, 240, 241, 242, 243, 244, 245, 246, 247, 248, 249, 250, 251, 252, 253, 254, 255, 256, 257, 258, 259, 260, 261, 262, 263, 264, 265, 266, 267, 268, 269, 270, 271, 272, 273, 274, 275, 276, 277, 278, 279, 280],
      "AcquisitionTime": ["152217.865000", "152219.115000", "152220.365000", "152221.615000", "152222.865000", "152224.115000", "152225.365000", "152226.615000", "152227.865000", "152229.115000", "152230.365000", "152231.615000", "152232.865000", "152234.115000", "152235.365000", "152236.615000", "152237.865000", "152239.115000", "152240.365000", "152241.615000", "152242.865000", "152244.115000", "152245.365000", "152246.615000", "152247.865000", "152249.115000", "152250.365000", "152251.615000", "152252.865000", "152254.115000", "152255.365000", "152256.615000", "152257.865000", "152259.115000", "152300.365000", "152301.615000", "152302.865000", "152304.115000", "152305.365000", "152306.615000", "152307.865000", "152309.115000", "152310.365000", "152311.615000", "152312.865000", "152314.115000", "152315.365000", "152316.615000", "152317.865000", "152319.115000", "152320.365000", "152321.615000", "152322.865000", "152324.115000", "152325.365000", "152326.615000", "152327.865000", "152329.115000", "152330.365000", "152331.615000", "152332.865000", "152334.115000", "152335.365000", "152336.615000", "152337.865000", "152339.115000", "152340.365000", "152341.615000", "152342.865000", "152344.115000", "152345.365000", "152346.615000", "152347.865000", "152349.115000", "152350.365000", "152351.615000", "152352.865000", "152354.115000", "152355.365000", "152356.615000", "152357.865000", "152359.115000", "152400.365000", "152401.615000", "152402.865000", "152404.115000", "152405.365000", "152406.615000", "152407.865000", "152409.115000", "152410.365000", "152411.615000", "152412.865000", "152414.115000", "152415.365000", "152416.615000", "152417.865000", "152419.115000", "152420.365000", "152421.615000", "152422.865000", "152424.115000", "152425.365000", "152426.615000", "152427.865000", "152429.115000", "152430.365000", "152431.615000", "152432.865000", "152434.115000", "152435.365000", "152436.615000", "152437.865000", "152439.115000", "152440.365000", "152441.615000", "152442.865000", "152444.115000", "152445.365000", "152446.615000", "152447.865000", "152449.115000", "152450.365000", "152451.615000", "152452.865000", "152454.115000", "152455.365000", "152456.615000", "152457.865000", "152459.115000", "152500.365000", "152501.615000", "152502.865000", "152504.115000", "152505.365000", "152506.615000", "152507.865000", "152509.115000", "152510.365000", "152511.615000", "152512.865000", "152514.115000", "152515.365000", "152516.615000", "152517.865000", "152519.115000", "152520.365000", "152521.615000", "152522.865000", "152524.115000", "152525.365000", "152526.615000", "152527.865000", "152529.115000", "152530.365000", "152531.615000", "152532.865000", "152534.115000", "152535.365000", "152536.615000", "152537.865000", "152539.115000", "152540.365000", "152541.615000", "152542.865000", "152544.115000", "152545.365000", "152546.615000", "152547.865000", "152549.115000", "152550.365000", "152551.615000", "152552.865000", "152554.115000", "152555.365000", "152556.615000", "152557.865000", "152559.115000", "152600.365000", "152601.615000", "152602.865000", "152604.115000", "152605.365000", "152606.615000", "152607.865000", "152609.115000", "152610.365000", "152611.615000", "152612.865000", "152614.115000", "152615.365000", "152616.615000", "152617.865000", "152619.115000", "152620.365000", "152621.615000", "152622.865000", "152624.115000", "152625.365000", "152626.615000", "152627.865000", "152629.115000", "152630.365000", "152631.615000", "152632.865000", "152634.115000", "152635.365000", "152636.615000", "152637.865000", "152639.115000", "152640.365000", "152641.615000", "152642.865000", "152644.115000", "152645.365000", "152646.615000", "152647.865000", "152649.115000", "152650.365000", "152651.615000", "152652.865000", "152654.115000", "152655.365000", "152656.615000", "152657.865000", "152659.115000", "152700.365000", "152701.615000", "152702.865000", "152704.115000", "152705.365000", "152706.615000", "152707.865000", "152709.115000", "152710.365000", "152711.615000", "152712.865000", "152714.115000", "152715.365000", "152716.615000", "152717.865000", "152719.115000", "152720.365000", "152721.615000", "152722.865000", "152724.115000", "152725.365000", "152726.615000", "152727.865000", "152729.115000", "152730.365000", "152731.615000", "152732.865000", "152734.115000", "152735.365000", "152736.615000", "152737.865000", "152739.115000", "152740.365000", "152741.615000", "152742.865000", "152744.115000", "152745.365000", "152746.615000", "152747.865000", "152749.115000", "152750.365000", "152751.615000", "152752.865000", "152754.115000", "152755.365000", "152756.615000", "152757.865000", "152759.115000", "152800.365000", "152801.615000", "152802.865000", "152804.115000", "152805.365000", "152806.615000"],
      "ContentTime": ["152218.955000", "152220.018000", "152221.280000", "152222.507000", "152223.790000", "152225.098000", "152226.306000", "152227.523000", "152228.792000", "152230.066000", "152231.284000", "152232.513000", "152233.819000", "152235.052000", "152236.281000", "152237.520000", "152238.754000", "152240.009000", "152241.253000", "152242.526000", "152243.813000", "152245.076000", "152246.284000", "152247.534000", "152248.767000", "152250.000000", "152251.277000", "152252.533000", "152253.810000", "152255.021000", "152256.278000", "152257.510000", "152258.775000", "152300.020000", "152301.273000", "152302.571000", "152303.774000", "152305.004000", "152306.277000", "152307.528000", "152308.795000", "152310.013000", "152311.260000", "152312.555000", "152313.889000", "152315.060000", "152316.251000", "152317.518000", "152318.797000", "152320.047000", "152321.311000", "152322.518000", "152323.841000", "152325.014000", "152326.261000", "152327.517000", "152328.740000", "152330.032000", "152331.279000", "152332.522000", "152333.746000", "152335.052000", "152336.284000", "152337.573000", "152338.769000", "152340.012000", "152341.294000", "152342.521000", "152343.779000", "152344.980000", "152346.269000", "152347.599000", "152348.781000", "152350.014000", "152351.284000", "152352.564000", "152353.782000", "152355.067000", "152356.339000", "152357.556000", "152358.758000", "152400.055000", "152401.243000", "152402.531000", "152403.752000", "152405.015000", "152406.270000", "152407.505000", "152408.758000", "152410.012000", "152411.254000", "152412.529000", "152413.769000", "152414.995000", "152416.251000", "152417.501000", "152418.786000", "152419.995000", "152421.270000", "152422.497000", "152423.773000", "152425.013000", "152426.277000", "152427.537000", "152428.803000", "152430.026000", "152431.293000", "152432.509000", "152433.779000", "152435.076000", "152436.256000", "152437.491000", "152438.796000", "152440.057000", "152441.296000", "152442.535000", "152443.766000", "152445.001000", "152446.285000", "152447.541000", "152448.776000", "152450.011000", "152451.258000", "152452.496000", "152453.789000", "152455.021000", "152456.277000", "152457.545000", "152458.771000", "152500.004000", "152501.271000", "152502.499000", "152503.760000", "152505.022000", "152506.300000", "152507.518000", "152508.770000", "152510.020000", "152511.299000", "152512.524000", "152513.776000", "152515.037000", "152516.267000", "152517.537000", "152518.753000", "152520.029000", "152521.313000", "152522.530000", "152523.751000", "152525.009000", "152526.274000", "152527.528000", "152528.757000", "152530.028000", "152531.299000", "152532.528000", "152533.820000", "152535.010000", "152536.287000", "152537.523000", "152538.815000", "152540.026000", "152541.277000", "152542.488000", "152543.784000", "152544.995000", "152546.281000", "152547.518000", "152548.770000", "152550.003000", "152551.295000", "152552.540000", "152553.846000", "152555.049000", "152556.289000", "152557.560000", "152558.804000", "152600.009000", "152601.267000", "152602.503000", "152603.791000", "152605.028000", "152606.300000", "152607.581000", "152608.767000", "152610.050000", "152611.320000", "152612.478000", "152613.770000", "152615.061000", "152616.271000", "152617.548000", "152618.791000", "152620.036000", "152621.270000", "152622.511000", "152623.754000", "152625.043000", "152626.283000", "152627.521000", "152628.775000", "152630.022000", "152631.271000", "152632.504000", "152633.772000", "152635.016000", "152636.309000", "152637.551000", "152638.738000", "152640.018000", "152641.278000", "152642.554000", "152643.776000", "152645.042000", "152646.375000", "152647.609000", "152648.775000", "152650.010000", "152651.300000", "152652.531000", "152653.754000", "152655.018000", "152656.244000", "152657.528000", "152658.776000", "152700.104000", "152701.282000", "152702.534000", "152703.777000", "152705.047000", "152706.273000", "152707.538000", "152708.772000", "152710.016000", "152711.278000", "152712.538000", "152713.780000", "152715.011000", "152716.258000", "152717.531000", "152718.754000", "152720.052000", "152721.286000", "152722.562000", "152723.831000", "152725.060000", "152726.287000", "152727.516000", "152728.796000", "152730.085000", "152731.276000", "152732.522000", "152733.823000", "152735.040000", "152736.258000", "152737.496000", "152738.789000", "152740.058000", "152741.282000", "152742.540000", "152743.802000", "152745.038000", "152746.266000", "152747.517000", "152748.790000", "152750.023000", "152751.279000", "152752.518000", "152753.820000", "152755.029000", "152756.248000", "152757.534000", "152758.760000", "152800.029000", "152801.266000", "152802.527000", "152803.787000", "152805.043000", "152806.268000", "152807.573000"],
      "InstanceCreationTime": ["152218.955000", "152220.018000", "152221.280000", "152222.507000", "152223.790000", "152225.098000", "152226.306000", "152227.523000", "152228.792000", "152230.066000", "152231.284000", "152232.513000", "152233.819000", "152235.052000", "152236.281000", "152237.520000", "152238.754000", "152240.009000", "152241.253000", "152242.526000", "152243.813000", "152245.076000", "152246.284000", "152247.534000", "152248.767000", "152250.000000", "152251.277000", "152252.533000", "152253.810000", "152255.021000", "152256.278000", "152257.510000", "152258.775000", "152300.020000", "152301.273000", "152302.571000", "152303.774000", "152305.004000", "152306.277000", "152307.528000", "152308.795000", "152310.013000", "152311.260000", "152312.555000", "152313.889000", "152315.060000", "152316.251000", "152317.518000", "152318.797000", "152320.047000", "152321.311000", "152322.518000", "152323.841000", "152325.014000", "152326.261000", "152327.517000", "152328.740000", "152330.032000", "152331.279000", "152332.522000", "152333.746000", "152335.052000", "152336.284000", "152337.573000", "152338.769000", "152340.012000", "152341.294000", "152342.521000", "152343.779000", "152344.980000", "152346.269000", "152347.599000", "152348.781000", "152350.014000", "152351.284000", "152352.564000", "152353.782000", "152355.067000", "152356.339000", "152357.556000", "152358.758000", "152400.055000", "152401.243000", "152402.531000", "152403.752000", "152405.015000", "152406.270000", "152407.505000", "152408.758000", "152410.012000", "152411.254000", "152412.529000", "152413.769000", "152414.995000", "152416.251000", "152417.501000", "152418.786000", "152419.995000", "152421.270000", "152422.497000", "152423.773000", "152425.013000", "152426.277000", "152427.537000", "152428.803000", "152430.026000", "152431.293000", "152432.509000", "152433.779000", "152435.076000", "152436.256000", "152437.491000", "152438.796000", "152440.057000", "152441.296000", "152442.535000", "152443.766000", "152445.001000", "152446.285000", "152447.541000", "152448.776000", "152450.011000", "152451.258000", "152452.496000", "152453.789000", "152455.021000", "152456.277000", "152457.545000", "152458.771000", "152500.004000", "152501.271000", "152502.499000", "152503.760000", "152505.022000", "152506.300000", "152507.518000", "152508.770000", "152510.020000", "152511.299000", "152512.524000", "152513.776000", "152515.037000", "152516.267000", "152517.537000", "152518.753000", "152520.029000", "152521.313000", "152522.530000", "152523.751000", "152525.009000", "152526.274000", "152527.528000", "152528.757000", "152530.028000", "152531.299000", "152532.528000", "152533.820000", "152535.010000", "152536.287000", "152537.523000", "152538.815000", "152540.026000", "152541.277000", "152542.488000", "152543.784000", "152544.995000", "152546.281000", "152547.518000", "152548.770000", "152550.003000", "152551.295000", "152552.540000", "152553.846000", "152555.049000", "152556.289000", "152557.560000", "152558.804000", "152600.009000", "152601.267000", "152602.503000", "152603.791000", "152605.028000", "152606.300000", "152607.581000", "152608.767000", "152610.050000", "152611.320000", "152612.478000", "152613.770000", "152615.061000", "152616.271000", "152617.548000", "152618.791000", "152620.036000", "152621.270000", "152622.511000", "152623.754000", "152625.043000", "152626.283000", "152627.521000", "152628.775000", "152630.022000", "152631.271000", "152632.504000", "152633.772000", "152635.016000", "152636.309000", "152637.551000", "152638.738000", "152640.018000", "152641.278000", "152642.554000", "152643.776000", "152645.042000", "152646.375000", "152647.609000", "152648.775000", "152650.010000", "152651.300000", "152652.531000", "152653.754000", "152655.018000", "152656.244000", "152657.528000", "152658.776000", "152700.104000", "152701.282000", "152702.534000", "152703.777000", "152705.047000", "152706.273000", "152707.538000", "152708.772000", "152710.016000", "152711.278000", "152712.538000", "152713.780000", "152715.011000", "152716.258000", "152717.531000", "152718.754000", "152720.052000", "152721.286000", "152722.562000", "152723.831000", "152725.060000", "152726.287000", "152727.516000", "152728.796000", "152730.085000", "152731.276000", "152732.522000", "152733.823000", "152735.040000", "152736.258000", "152737.496000", "152738.789000", "152740.058000", "152741.282000", "152742.540000", "152743.802000", "152745.038000", "152746.266000", "152747.517000", "152748.790000", "152750.023000", "152751.279000", "152752.518000", "152753.820000", "152755.029000", "152756.248000", "152757.534000", "152758.760000", "152800.029000", "152801.266000", "152802.527000", "152803.787000", "152805.043000", "152806.268000", "152807.573000"],
      "InstanceNumber": [1, 2, 3, 4, 5, 6, 7, 8, 9, 10, 11, 12, 13, 14, 15, 16, 17, 18, 19, 20, 21, 22, 23, 24, 25, 26, 27, 28, 29, 30, 31, 32, 33, 34, 35, 36, 37, 38, 39, 40, 41, 42, 43, 44, 45, 46, 47, 48, 49, 50, 51, 52, 53, 54, 55, 56, 57, 58, 59, 60, 61, 62, 63, 64, 65, 66, 67, 68, 69, 70, 71, 72, 73, 74, 75, 76, 77, 78, 79, 80, 81, 82, 83, 84, 85, 86, 87, 88, 89, 90, 91, 92, 93, 94, 95, 96, 97, 98, 99, 100, 101, 102, 103, 104, 105, 106, 107, 108, 109, 110, 111, 112, 113, 114, 115, 116, 117, 118, 119, 120, 121, 122, 123, 124, 125, 126, 127, 128, 129, 130, 131, 132, 133, 134, 135, 136, 137, 138, 139, 140, 141, 142, 143, 144, 145, 146, 147, 148, 149, 150, 151, 152, 153, 154, 155, 156, 157, 158, 159, 160, 161, 162, 163, 164, 165, 166, 167, 168, 169, 170, 171, 172, 173, 174, 175, 176, 177, 178, 179, 180, 181, 182, 183, 184, 185, 186, 187, 188, 189, 190, 191, 192, 193, 194, 195, 196, 197, 198, 199, 200, 201, 202, 203, 204, 205, 206, 207, 208, 209, 210, 211, 212, 213, 214, 215, 216, 217, 218, 219, 220, 221, 222, 223, 224, 225, 226, 227, 228, 229, 230, 231, 232, 233, 234, 235, 236, 237, 238, 239, 240, 241, 242, 243, 244, 245, 246, 247, 248, 249, 250, 251, 252, 253, 254, 255, 256, 257, 258, 259, 260, 261, 262, 263, 264, 265, 266, 267, 268, 269, 270, 271, 272, 273, 274, 275, 276, 277, 278, 279, 280],
      "LargestImagePixelValue": [792, 880, 751, 745, 1046, 769, 737, 970, 743, 736, 740, 741, 733, 807, 736, 790, 737, 874, 734, 731, 737, 742, 805, 725, 726, 863, 727, 916, 735, 727, 835, 746, 911, 726, 763, 728, 730, 728, 726, 914, 737, 913, 731, 863, 736, 874, 739, 730, 733, 996, 727, 958, 730, 732, 760, 731, 886, 727, 805, 724, 809, 768, 734, 841, 739, 898, 729, 727, 747, 730, 782, 728, 854, 722, 861, 727, 886, 726, 729, 728, 727, 831, 724, 876, 764, 850, 727, 730, 727, 738, 732, 865, 734, 947, 747, 736, 835, 740, 947, 734, 730, 829, 723, 946, 751, 975, 756, 871, 732, 732, 727, 749, 856, 726, 749, 793, 789, 836, 737, 840, 732, 729, 800, 726, 771, 759, 752, 747, 804, 731, 730, 774, 730, 793, 836, 826, 735, 825, 733, 852, 729, 731, 739, 737, 806, 735, 727, 734, 722, 872, 720, 886, 784, 726, 893, 731, 731, 733, 727, 831, 729, 870, 726, 832, 728, 727, 837, 725, 721, 773, 844, 829, 726, 731, 733, 723, 777, 902, 722, 805, 733, 735, 734, 734, 813, 752, 763, 780, 804, 733, 731, 760, 727, 798, 739, 838, 725, 726, 766, 724, 789, 785, 753, 791, 768, 731, 880, 716, 898, 779, 844, 770, 809, 739, 729, 823, 731, 734, 727, 725, 821, 726, 874, 719, 829, 783, 718, 894, 721, 865, 720, 745, 726, 757, 726, 726, 725, 762, 715, 897, 723, 951, 729, 734, 843, 721, 774, 811, 736, 808, 726, 841, 728, 726, 803, 726, 905, 765, 894, 727, 758, 730, 720, 755, 879, 712, 874, 722, 828, 735, 745, 798, 720, 758, 726, 734, 868, 724, 888, 841],
      "WindowCenter": [348.0, 349.0, 346.0, 346.0, 349.0, 346.0, 345.0, 348.0, 345.0, 345.0, 345.0, 347.0, 346.0, 347.0, 345.0, 345.0, 345.0, 346.0, 345.0, 345.0, 346.0, 347.0, 347.0, 345.0, 345.0, 347.0, 345.0, 348.0, 345.0, 345.0, 348.0, 346.0, 348.0, 345.0, 346.0, 345.0, 346.0, 347.0, 347.0, 349.0, 346.0, 347.0, 344.0, 346.0, 344.0, 347.0, 345.0, 346.0, 346.0, 349.0, 345.0, 347.0, 344.0, 344.0, 345.0, 346.0, 348.0, 346.0, 347.0, 345.0, 346.0, 345.0, 345.0, 346.0, 344.0, 347.0, 345.0, 345.0, 345.0, 345.0, 346.0, 346.0, 348.0, 346.0, 348.0, 345.0, 347.0, 345.0, 345.0, 345.0, 346.0, 348.0, 347.0, 348.0, 346.0, 346.0, 343.0, 343.0, 344.0, 345.0, 345.0, 348.0, 345.0, 347.0, 345.0, 344.0, 346.0, 345.0, 348.0, 345.0, 346.0, 348.0, 347.0, 350.0, 347.0, 348.0, 345.0, 346.0, 345.0, 345.0, 345.0, 346.0, 348.0, 346.0, 346.0, 347.0, 346.0, 346.0, 344.0, 346.0, 346.0, 347.0, 349.0, 346.0, 347.0, 345.0, 345.0, 345.0, 346.0, 346.0, 347.0, 347.0, 346.0, 347.0, 346.0, 346.0, 345.0, 346.0, 345.0, 347.0, 345.0, 346.0, 345.0, 345.0, 346.0, 345.0, 346.0, 347.0, 347.0, 348.0, 345.0, 347.0, 345.0, 344.0, 347.0, 345.0, 344.0, 345.0, 344.0, 346.0, 345.0, 347.0, 345.0, 346.0, 345.0, 345.0, 349.0, 347.0, 347.0, 347.0, 347.0, 346.0, 344.0, 346.0, 347.0, 347.0, 347.0, 348.0, 344.0, 344.0, 344.0, 344.0, 346.0, 346.0, 347.0, 345.0, 345.0, 344.0, 345.0, 344.0, 345.0, 347.0, 345.0, 347.0, 345.0, 347.0, 345.0, 346.0, 347.0, 346.0, 347.0, 346.0, 345.0, 345.0, 345.0, 346.0, 349.0, 347.0, 348.0, 346.0, 346.0, 344.0, 344.0, 344.0, 343.0, 345.0, 345.0, 345.0, 345.0, 346.0, 348.0, 346.0, 349.0, 346.0, 347.0, 347.0, 345.0, 348.0, 345.0, 347.0, 345.0, 345.0, 345.0, 345.0, 345.0, 345.0, 346.0, 347.0, 346.0, 348.0, 345.0, 347.0, 344.0, 344.0, 346.0, 345.0, 347.0, 347.0, 345.0, 346.0, 344.0, 346.0, 345.0, 345.0, 347.0, 346.0, 348.0, 345.0, 347.0, 344.0, 345.0, 345.0, 346.0, 347.0, 349.0, 346.0, 347.0, 344.0, 346.0, 345.0, 345.0, 347.0, 345.0, 346.0, 345.0, 346.0, 348.0, 346.0, 348.0, 347.0],
      "WindowWidth": [747.0, 747.0, 743.0, 743.0, 747.0, 742.0, 741.0, 745.0, 740.0, 740.0, 742.0, 744.0, 743.0, 744.0, 740.0, 741.0, 740.0, 742.0, 741.0, 741.0, 742.0, 744.0, 744.0, 741.0, 742.0, 744.0, 740.0, 744.0, 741.0, 741.0, 745.0, 743.0, 746.0, 741.0, 742.0, 741.0, 743.0, 744.0, 744.0, 747.0, 743.0, 743.0, 738.0, 741.0, 738.0, 743.0, 741.0, 742.0, 743.0, 746.0, 740.0, 742.0, 739.0, 739.0, 741.0, 742.0, 746.0, 743.0, 745.0, 742.0, 742.0, 741.0, 740.0, 742.0, 740.0, 744.0, 740.0, 740.0, 741.0, 741.0, 743.0, 743.0, 746.0, 743.0, 745.0, 741.0, 743.0, 740.0, 741.0, 742.0, 743.0, 746.0, 745.0, 746.0, 742.0, 742.0, 737.0, 738.0, 739.0, 741.0, 741.0, 745.0, 741.0, 744.0, 740.0, 739.0, 742.0, 740.0, 744.0, 741.0, 743.0, 746.0, 744.0, 748.0, 744.0, 746.0, 741.0, 742.0, 741.0, 741.0, 742.0, 743.0, 746.0, 743.0, 743.0, 743.0, 742.0, 742.0, 739.0, 742.0, 743.0, 744.0, 747.0, 743.0, 744.0, 741.0, 740.0, 740.0, 742.0, 743.0, 744.0, 745.0, 743.0, 743.0, 742.0, 741.0, 740.0, 742.0, 740.0, 743.0, 742.0, 743.0, 742.0, 741.0, 742.0, 741.0, 742.0, 744.0, 744.0, 746.0, 740.0, 743.0, 741.0, 739.0, 743.0, 740.0, 739.0, 740.0, 739.0, 742.0, 740.0, 743.0, 740.0, 742.0, 741.0, 742.0, 746.0, 744.0, 744.0, 745.0, 744.0, 742.0, 739.0, 742.0, 744.0, 744.0, 745.0, 746.0, 739.0, 739.0, 739.0, 740.0, 743.0, 743.0, 744.0, 741.0, 741.0, 740.0, 740.0, 740.0, 741.0, 743.0, 742.0, 743.0, 741.0, 743.0, 740.0, 743.0, 745.0, 743.0, 744.0, 742.0, 740.0, 741.0, 741.0, 743.0, 747.0, 744.0, 746.0, 742.0, 741.0, 739.0, 739.0, 738.0, 737.0, 741.0, 740.0, 741.0, 742.0, 743.0, 745.0, 742.0, 746.0, 742.0, 744.0, 744.0, 742.0, 746.0, 741.0, 744.0, 740.0, 740.0, 740.0, 741.0, 741.0, 742.0, 743.0, 745.0, 743.0, 745.0, 740.0, 744.0, 739.0, 739.0, 742.0, 741.0, 743.0, 744.0, 742.0, 742.0, 739.0, 741.0, 740.0, 742.0, 745.0, 742.0, 745.0, 741.0, 743.0, 739.0, 741.0, 741.0, 743.0, 745.0, 747.0, 742.0, 744.0, 739.0, 741.0, 740.0, 742.0, 743.0, 742.0, 743.0, 742.0, 743.0, 745.0, 742.0, 745.0, 744.0]
    },
    "slices": {}
  }
}