{
  "AcquisitionMatrixPE": 96,
  "AcquisitionNumber": 1,
  "AcquisitionTime": "16:08:8.590000",
  "BandwidthPerPixelPhaseEncode": 18.939,
  "BaseResolution": 96,
  "BodyPartExamined": "BRAIN",
  "ConsistencyInfo": "N4_VE11C_LATEST_20160120",
  "ConversionSoftware": "dcm2niix",
  "ConversionSoftwareVersion": "v1.0.20170923 (OpenJPEG build) GCC6.3.0",
  "DerivedVendorReportedEchoSpacing": 0.000550011,
  "DeviceSerialNumber": "66112",
  "DwellTime": 2.3e-06,
  "EchoTime": 0.033,
  "EchoTrainLength": 96,
  "EffectiveEchoSpacing": 0.000550011,
  "FlipAngle": 64,
  "ImageType": [
    "ORIGINAL",
    "PRIMARY",
    "FMRI",
    "NONE",
    "ND",
    "NORM",
    "MOSAIC"
],
  "InstitutionAddress": "Maynard_3_Hanover_NH_US_03755",
  "InstitutionName": "Dartmouth_College_-_PBS",
  "MagneticFieldStrength": 3,
  "Manufacturer": "Siemens",
  "ManufacturersModelName": "Prisma",
  "Modality": "MR",
  "MultibandAccelerationFactor": 4,
  "PartialFourier": 1,
  "PercentPhaseFOV": 100,
  "PhaseEncodingDirection": "j-",
  "PhaseEncodingSteps": 96,
  "PhaseResolution": 1,
  "ProcedureStepDescription": "Gobbini_Matteo_1017_famface-angles",
  "ProtocolName": "func_run-11_task-fam1back",
  "PulseSequenceDetails": "%SiemensSeq%_ep2d_bold",
  "ReceiveCoilActiveElements": "HEA;HEP",
  "ReceiveCoilName": "Head_32",
  "ReconMatrixPE": 96,
  "RepetitionTime": 1.25,
  "ScanOptions": "FS",
  "ScanningSequence": "EP",
  "SequenceName": "_epfid2d1_96",
  "SequenceVariant": "SK",
  "SeriesDescription": "func_run-11_task-fam1back",
  "SliceTiming": [0.8775, 0, 0.615, 0.0875, 0.7025, 0.175, 0.79, 0.3525, 0.9675, 0.44, 1.055, 0.5275, 1.1425, 0.2625, 0.8775, 0, 0.615, 0.0875, 0.7025, 0.175, 0.79, 0.3525, 0.9675, 0.44, 1.055, 0.5275, 1.1425, 0.2625, 0.8775, 0, 0.615, 0.0875, 0.7025, 0.175, 0.79, 0.3525, 0.9675, 0.44, 1.055, 0.5275, 1.1425, 0.2625, 0.8775, 0, 0.615, 0.0875, 0.7025, 0.175, 0.79, 0.3525, 0.9675, 0.44, 1.055, 0.5275, 1.1425, 0.2625],
  "SoftwareVersions": "syngo_MR_E11",
  "StationName": "AWP66112",
  "TaskName": "fam1back",
  "TotalReadoutTime": 0.0522511,
  "dcmmeta_affine": [
    [-2.4959781169891357, 0.13998380303382874, 0.022302908822894096, 115.51658630371094],
    [0.1405237764120102, 2.4951913356781006, 0.0653679296374321, -115.20475006103516],
    [0.01859983056783676, -0.06651640683412552, 2.4990458488464355, -65.01366424560547],
    [0.0, 0.0, 0.0, 1.0]
],
  "dcmmeta_reorient_transform": [
    [0.0, -1.0, 0.0, 95.0],
    [1.0, 0.0, 0.0, 0.0],
    [0.0, 0.0, 1.0, 0.0],
    [0.0, 0.0, 0.0, 1.0]
],
  "dcmmeta_shape": [96, 96, 56, 280],
  "dcmmeta_slice_dim": 2,
  "dcmmeta_version": 0.6,
  "global": {
    "const": {
      "AccessionNumber": "A000466",
      "AcquisitionMatrix": [96, 0, 0, 96],
      "AngioFlag": "N",
      "BitsAllocated": 16,
      "BitsStored": 12,
      "BodyPartExamined": "BRAIN",
      "Columns": 768,
      "EchoNumbers": 1,
      "EchoTime": 33.0,
      "EchoTrainLength": 96,
      "FlipAngle": 64.0,
      "HighBit": 11,
      "ImageOrientationPatient": [0.99839127531587, -0.0562095079388, 0.00743993215231, 0.05599351937345, 0.99807655849099, 0.02660656270469],
      "ImagePositionPatient": [-1014.4982780047, -913.00675299057, -99.931781669165],
      "ImageType": [
        "ORIGINAL",
        "PRIMARY",
        "FMRI",
        "NONE",
        "ND",
        "NORM",
        "MOSAIC"
],
      "ImagedNucleus": "1H",
      "ImagingFrequency": 123.25237,
      "InPlanePhaseEncodingDirection": "COL",
      "MRAcquisitionType": "2D",
      "MagneticFieldStrength": 3.0,
      "Manufacturer": "SIEMENS",
      "ManufacturerModelName": "Prisma",
      "Modality": "MR",
      "NumberOfAverages": 1.0,
      "NumberOfPhaseEncodingSteps": 96,
      "PercentPhaseFieldOfView": 100.0,
      "PercentSampling": 100.0,
      "PerformedProcedureStepStartTime": "143328.798000",
      "PhotometricInterpretation": "MONOCHROME2",
      "PixelBandwidth": 2265.0,
      "PixelRepresentation": 0,
      "PixelSpacing": [2.5, 2.5],
      "PositionReferenceIndicator": "",
      "ProtocolName": "func_run-11_task-fam1back",
      "RepetitionTime": 1250.0,
      "Rows": 768,
      "SAR": 0.04378393971437,
      "SamplesPerPixel": 1,
      "ScanOptions": "FS",
      "ScanningSequence": "EP",
      "SequenceName": "*epfid2d1_96",
      "SequenceVariant": "SK",
      "SeriesDescription": "func_run-11_task-fam1back",
      "SeriesNumber": 78,
      "SeriesTime": "160809.957000",
      "SliceLocation": -66.970587462773,
      "SliceThickness": 2.5,
      "SmallestImagePixelValue": 0,
      "SoftwareVersions": "syngo MR E11",
      "SpacingBetweenSlices": 2.5000000300206,
      "SpecificCharacterSet": "ISO_IR 100",
      "StudyID": "3",
      "StudyTime": "143328.746000",
      "TransmitCoilName": "Body",
      "VariableFlipAngleFlag": "N",
      "WindowCenterWidthExplanation": "Algo1",
      "dBdt": 0.0},
    "slices": {}
  },
  "time": {
    "samples": {
      "AcquisitionNumber": [1, 2, 3, 4, 5, 6, 7, 8, 9, 10, 11, 12, 13, 14, 15, 16, 17, 18, 19, 20, 21, 22, 23, 24, 25, 26, 27, 28, 29, 30, 31, 32, 33, 34, 35, 36, 37, 38, 39, 40, 41, 42, 43, 44, 45, 46, 47, 48, 49, 50, 51, 52, 53, 54, 55, 56, 57, 58, 59, 60, 61, 62, 63, 64, 65, 66, 67, 68, 69, 70, 71, 72, 73, 74, 75, 76, 77, 78, 79, 80, 81, 82, 83, 84, 85, 86, 87, 88, 89, 90, 91, 92, 93, 94, 95, 96, 97, 98, 99, 100, 101, 102, 103, 104, 105, 106, 107, 108, 109, 110, 111, 112, 113, 114, 115, 116, 117, 118, 119, 120, 121, 122, 123, 124, 125, 126, 127, 128, 129, 130, 131, 132, 133, 134, 135, 136, 137, 138, 139, 140, 141, 142, 143, 144, 145, 146, 147, 148, 149, 150, 151, 152, 153, 154, 155, 156, 157, 158, 159, 160, 161, 162, 163, 164, 165, 166, 167, 168, 169, 170, 171, 172, 173, 174, 175, 176, 177, 178, 179, 180, 181, 182, 183, 184, 185, 186, 187, 188, 189, 190, 191, 192, 193, 194, 195, 196, 197, 198, 199, 200, 201, 202, 203, 204, 205, 206, 207, 208, 209, 210, 211, 212, 213, 214, 215, 216, 217, 218, 219, 220, 221, 222, 223, 224, 225, 226, 227, 228, 229, 230, 231, 232, 233, 234, 235, 236, 237, 238, 239, 240, 241, 242, 243, 244, 245, 246, 247, 248, 249, 250, 251, 252, 253, 254, 255, 256, 257, 258, 259, 260, 261, 262, 263, 264, 265, 266, 267, 268, 269, 270, 271, 272, 273, 274, 275, 276, 277, 278, 279, 280],
      "AcquisitionTime": ["160808.590000", "160809.840000", "160811.090000", "160812.340000", "160813.590000", "160814.840000", "160816.090000", "160817.340000", "160818.590000", "160819.840000", "160821.090000", "160822.340000", "160823.590000", "160824.840000", "160826.090000", "160827.340000", "160828.590000", "160829.840000", "160831.090000", "160832.340000", "160833.590000", "160834.840000", "160836.090000", "160837.340000", "160838.590000", "160839.840000", "160841.090000", "160842.340000", "160843.590000", "160844.840000", "160846.090000", "160847.340000", "160848.590000", "160849.840000", "160851.090000", "160852.340000", "160853.590000", "160854.840000", "160856.090000", "160857.340000", "160858.590000", "160859.840000", "160901.090000", "160902.340000", "160903.590000", "160904.840000", "160906.090000", "160907.340000", "160908.590000", "160909.840000", "160911.090000", "160912.340000", "160913.590000", "160914.840000", "160916.090000", "160917.340000", "160918.590000", "160919.840000", "160921.090000", "160922.340000", "160923.590000", "160924.840000", "160926.090000", "160927.340000", "160928.590000", "160929.840000", "160931.090000", "160932.340000", "160933.590000", "160934.840000", "160936.090000", "160937.340000", "160938.590000", "160939.840000", "160941.090000", "160942.340000", "160943.590000", "160944.840000", "160946.090000", "160947.340000", "160948.590000", "160949.840000", "160951.090000", "160952.340000", "160953.590000", "160954.840000", "160956.090000", "160957.340000", "160958.590000", "160959.840000", "161001.090000", "161002.340000", "161003.590000", "161004.840000", "161006.090000", "161007.340000", "161008.590000", "161009.840000", "161011.090000", "161012.340000", "161013.590000", "161014.840000", "161016.090000", "161017.340000", "161018.590000", "161019.840000", "161021.090000", "161022.340000", "161023.590000", "161024.840000", "161026.090000", "161027.340000", "161028.590000", "161029.840000", "161031.090000", "161032.340000", "161033.590000", "161034.840000", "161036.090000", "161037.340000", "161038.590000", "161039.840000", "161041.090000", "161042.340000", "161043.590000", "161044.840000", "161046.090000", "161047.340000", "161048.590000", "161049.840000", "161051.090000", "161052.340000", "161053.590000", "161054.840000", "161056.090000", "161057.340000", "161058.590000", "161059.840000", "161101.090000", "161102.340000", "161103.590000", "161104.840000", "161106.090000", "161107.340000", "161108.590000", "161109.840000", "161111.090000", "161112.340000", "161113.590000", "161114.840000", "161116.090000", "161117.340000", "161118.590000", "161119.840000", "161121.090000", "161122.340000", "161123.590000", "161124.840000", "161126.090000", "161127.340000", "161128.590000", "161129.840000", "161131.090000", "161132.340000", "161133.590000", "161134.840000", "161136.090000", "161137.340000", "161138.590000", "161139.840000", "161141.090000", "161142.340000", "161143.590000", "161144.840000", "161146.090000", "161147.340000", "161148.590000", "161149.840000", "161151.090000", "161152.340000", "161153.590000", "161154.840000", "161156.090000", "161157.340000", "161158.590000", "161159.840000", "161201.090000", "161202.340000", "161203.590000", "161204.840000", "161206.090000", "161207.340000", "161208.590000", "161209.840000", "161211.090000", "161212.340000", "161213.590000", "161214.840000", "161216.090000", "161217.340000", "161218.590000", "161219.840000", "161221.090000", "161222.340000", "161223.590000", "161224.840000", "161226.090000", "161227.340000", "161228.590000", "161229.840000", "161231.090000", "161232.340000", "161233.590000", "161234.840000", "161236.090000", "161237.340000", "161238.590000", "161239.840000", "161241.090000", "161242.340000", "161243.590000", "161244.840000", "161246.090000", "161247.340000", "161248.590000", "161249.840000", "161251.090000", "161252.340000", "161253.590000", "161254.840000", "161256.090000", "161257.340000", "161258.590000", "161259.840000", "161301.090000", "161302.340000", "161303.590000", "161304.840000", "161306.090000", "161307.340000", "161308.590000", "161309.840000", "161311.090000", "161312.340000", "161313.590000", "161314.840000", "161316.090000", "161317.340000", "161318.590000", "161319.840000", "161321.090000", "161322.340000", "161323.590000", "161324.840000", "161326.090000", "161327.340000", "161328.590000", "161329.840000", "161331.090000", "161332.340000", "161333.590000", "161334.840000", "161336.090000", "161337.340000", "161338.590000", "161339.840000", "161341.090000", "161342.340000", "161343.590000", "161344.840000", "161346.090000", "161347.340000", "161348.590000", "161349.840000", "161351.090000", "161352.340000", "161353.590000", "161354.840000", "161356.090000", "161357.340000"],
      "ContentTime": ["160809.961000", "160811.050000", "160812.301000", "160813.586000", "160814.810000", "160816.070000", "160817.289000", "160818.563000", "160819.809000", "160821.090000", "160822.280000", "160823.548000", "160824.788000", "160826.054000", "160827.310000", "160828.568000", "160829.810000", "160831.036000", "160832.319000", "160833.570000", "160834.810000", "160836.054000", "160837.328000", "160838.595000", "160839.788000", "160841.058000", "160842.311000", "160843.557000", "160844.829000", "160846.035000", "160847.309000", "160848.554000", "160849.797000", "160851.077000", "160852.310000", "160853.589000", "160854.838000", "160856.067000", "160857.322000", "160858.562000", "160859.827000", "160901.066000", "160902.292000", "160903.568000", "160904.796000", "160906.042000", "160907.315000", "160908.583000", "160909.871000", "160911.060000", "160912.284000", "160913.551000", "160914.817000", "160916.041000", "160917.286000", "160918.586000", "160919.795000", "160921.041000", "160922.312000", "160923.541000", "160924.795000", "160926.052000", "160927.306000", "160928.559000", "160929.784000", "160931.052000", "160932.297000", "160933.577000", "160934.818000", "160936.060000", "160937.310000", "160938.556000", "160939.820000", "160941.051000", "160942.343000", "160943.582000", "160944.876000", "160946.080000", "160947.296000", "160948.555000", "160949.835000", "160951.087000", "160952.298000", "160953.557000", "160954.842000", "160956.088000", "160957.297000", "160958.573000", "160959.794000", "161001.049000", "161002.337000", "161003.554000", "161004.799000", "161006.066000", "161007.297000", "161008.561000", "161009.780000", "161011.044000", "161012.322000", "161013.571000", "161014.789000", "161016.064000", "161017.351000", "161018.570000", "161019.807000", "161021.073000", "161022.303000", "161023.564000", "161024.792000", "161026.068000", "161027.346000", "161028.542000", "161029.842000", "161031.077000", "161032.335000", "161033.559000", "161034.832000", "161036.087000", "161037.301000", "161038.581000", "161039.818000", "161041.059000", "161042.306000", "161043.574000", "161044.819000", "161046.061000", "161047.341000", "161048.584000", "161049.835000", "161051.065000", "161052.337000", "161053.550000", "161054.835000", "161056.072000", "161057.344000", "161058.574000", "161059.832000", "161101.060000", "161102.306000", "161103.559000", "161104.828000", "161106.069000", "161107.367000", "161108.582000", "161109.941000", "161111.050000", "161112.328000", "161113.548000", "161114.816000", "161116.043000", "161117.338000", "161118.544000", "161119.825000", "161121.068000", "161122.317000", "161123.564000", "161124.843000", "161126.086000", "161127.309000", "161128.553000", "161129.790000", "161131.081000", "161132.286000", "161133.646000", "161134.829000", "161136.063000", "161137.314000", "161138.571000", "161139.860000", "161141.090000", "161142.303000", "161143.555000", "161144.845000", "161146.071000", "161147.280000", "161148.572000", "161149.842000", "161151.151000", "161152.322000", "161153.585000", "161154.831000", "161156.037000", "161157.340000", "161158.639000", "161159.788000", "161201.061000", "161202.281000", "161203.573000", "161204.820000", "161206.083000", "161207.287000", "161208.577000", "161209.835000", "161211.101000", "161212.288000", "161213.548000", "161214.824000", "161216.075000", "161217.329000", "161218.541000", "161219.832000", "161221.091000", "161222.388000", "161223.559000", "161224.814000", "161226.080000", "161227.307000", "161228.558000", "161229.814000", "161231.065000", "161232.294000", "161233.582000", "161234.819000", "161236.066000", "161237.292000", "161238.564000", "161239.805000", "161241.058000", "161242.310000", "161243.549000", "161244.806000", "161246.099000", "161247.300000", "161248.563000", "161249.820000", "161251.057000", "161252.306000", "161253.577000", "161254.812000", "161256.096000", "161257.312000", "161258.573000", "161259.807000", "161301.037000", "161302.308000", "161303.565000", "161304.812000", "161306.081000", "161307.347000", "161308.602000", "161309.822000", "161311.065000", "161312.302000", "161313.593000", "161314.819000", "161316.065000", "161317.316000", "161318.570000", "161319.818000", "161321.032000", "161322.311000", "161323.610000", "161324.784000", "161326.049000", "161327.303000", "161328.591000", "161329.780000", "161331.059000", "161332.330000", "161333.551000", "161334.868000", "161336.084000", "161337.342000", "161338.554000", "161339.836000", "161341.051000", "161342.300000", "161343.566000", "161344.825000", "161346.071000", "161347.323000", "161348.571000", "161349.800000", "161351.087000", "161352.303000", "161353.558000", "161354.807000", "161356.071000", "161357.375000", "161358.625000"],
      "InstanceCreationTime": ["160809.961000", "160811.050000", "160812.301000", "160813.586000", "160814.810000", "160816.070000", "160817.289000", "160818.563000", "160819.809000", "160821.090000", "160822.280000", "160823.548000", "160824.788000", "160826.054000", "160827.310000", "160828.568000", "160829.810000", "160831.036000", "160832.319000", "160833.570000", "160834.810000", "160836.054000", "160837.328000", "160838.595000", "160839.788000", "160841.058000", "160842.311000", "160843.557000", "160844.829000", "160846.035000", "160847.309000", "160848.554000", "160849.797000", "160851.077000", "160852.310000", "160853.589000", "160854.838000", "160856.067000", "160857.322000", "160858.562000", "160859.827000", "160901.066000", "160902.292000", "160903.568000", "160904.796000", "160906.042000", "160907.315000", "160908.583000", "160909.871000", "160911.060000", "160912.284000", "160913.551000", "160914.817000", "160916.041000", "160917.286000", "160918.586000", "160919.795000", "160921.041000", "160922.312000", "160923.541000", "160924.795000", "160926.052000", "160927.306000", "160928.559000", "160929.784000", "160931.052000", "160932.297000", "160933.577000", "160934.818000", "160936.060000", "160937.310000", "160938.556000", "160939.820000", "160941.051000", "160942.343000", "160943.582000", "160944.876000", "160946.080000", "160947.296000", "160948.555000", "160949.835000", "160951.087000", "160952.298000", "160953.557000", "160954.842000", "160956.088000", "160957.297000", "160958.573000", "160959.794000", "161001.049000", "161002.337000", "161003.554000", "161004.799000", "161006.066000", "161007.297000", "161008.561000", "161009.780000", "161011.044000", "161012.322000", "161013.571000", "161014.789000", "161016.064000", "161017.351000", "161018.570000", "161019.807000", "161021.073000", "161022.303000", "161023.564000", "161024.792000", "161026.068000", "161027.346000", "161028.542000", "161029.842000", "161031.077000", "161032.335000", "161033.559000", "161034.832000", "161036.087000", "161037.301000", "161038.581000", "161039.818000", "161041.059000", "161042.306000", "161043.574000", "161044.819000", "161046.061000", "161047.341000", "161048.584000", "161049.835000", "161051.065000", "161052.337000", "161053.550000", "161054.835000", "161056.072000", "161057.344000", "161058.574000", "161059.832000", "161101.060000", "161102.306000", "161103.559000", "161104.828000", "161106.069000", "161107.367000", "161108.582000", "161109.941000", "161111.050000", "161112.328000", "161113.548000", "161114.816000", "161116.043000", "161117.338000", "161118.544000", "161119.825000", "161121.068000", "161122.317000", "161123.564000", "161124.843000", "161126.086000", "161127.309000", "161128.553000", "161129.790000", "161131.081000", "161132.286000", "161133.646000", "161134.829000", "161136.063000", "161137.314000", "161138.571000", "161139.860000", "161141.090000", "161142.303000", "161143.555000", "161144.845000", "161146.071000", "161147.280000", "161148.572000", "161149.842000", "161151.151000", "161152.322000", "161153.585000", "161154.831000", "161156.037000", "161157.340000", "161158.639000", "161159.788000", "161201.061000", "161202.281000", "161203.573000", "161204.820000", "161206.083000", "161207.287000", "161208.577000", "161209.835000", "161211.101000", "161212.288000", "161213.548000", "161214.824000", "161216.075000", "161217.329000", "161218.541000", "161219.832000", "161221.091000", "161222.388000", "161223.559000", "161224.814000", "161226.080000", "161227.307000", "161228.558000", "161229.814000", "161231.065000", "161232.294000", "161233.582000", "161234.819000", "161236.066000", "161237.292000", "161238.564000", "161239.805000", "161241.058000", "161242.310000", "161243.549000", "161244.806000", "161246.099000", "161247.300000", "161248.563000", "161249.820000", "161251.057000", "161252.306000", "161253.577000", "161254.812000", "161256.096000", "161257.312000", "161258.573000", "161259.807000", "161301.037000", "161302.308000", "161303.565000", "161304.812000", "161306.081000", "161307.347000", "161308.602000", "161309.822000", "161311.065000", "161312.302000", "161313.593000", "161314.819000", "161316.065000", "161317.316000", "161318.570000", "161319.818000", "161321.032000", "161322.311000", "161323.610000", "161324.784000", "161326.049000", "161327.303000", "161328.591000", "161329.780000", "161331.059000", "161332.330000", "161333.551000", "161334.868000", "161336.084000", "161337.342000", "161338.554000", "161339.836000", "161341.051000", "161342.300000", "161343.566000", "161344.825000", "161346.071000", "161347.323000", "161348.571000", "161349.800000", "161351.087000", "161352.303000", "161353.558000", "161354.807000", "161356.071000", "161357.375000", "161358.625000"],
      "InstanceNumber": [1, 2, 3, 4, 5, 6, 7, 8, 9, 10, 11, 12, 13, 14, 15, 16, 17, 18, 19, 20, 21, 22, 23, 24, 25, 26, 27, 28, 29, 30, 31, 32, 33, 34, 35, 36, 37, 38, 39, 40, 41, 42, 43, 44, 45, 46, 47, 48, 49, 50, 51, 52, 53, 54, 55, 56, 57, 58, 59, 60, 61, 62, 63, 64, 65, 66, 67, 68, 69, 70, 71, 72, 73, 74, 75, 76, 77, 78, 79, 80, 81, 82, 83, 84, 85, 86, 87, 88, 89, 90, 91, 92, 93, 94, 95, 96, 97, 98, 99, 100, 101, 102, 103, 104, 105, 106, 107, 108, 109, 110, 111, 112, 113, 114, 115, 116, 117, 118, 119, 120, 121, 122, 123, 124, 125, 126, 127, 128, 129, 130, 131, 132, 133, 134, 135, 136, 137, 138, 139, 140, 141, 142, 143, 144, 145, 146, 147, 148, 149, 150, 151, 152, 153, 154, 155, 156, 157, 158, 159, 160, 161, 162, 163, 164, 165, 166, 167, 168, 169, 170, 171, 172, 173, 174, 175, 176, 177, 178, 179, 180, 181, 182, 183, 184, 185, 186, 187, 188, 189, 190, 191, 192, 193, 194, 195, 196, 197, 198, 199, 200, 201, 202, 203, 204, 205, 206, 207, 208, 209, 210, 211, 212, 213, 214, 215, 216, 217, 218, 219, 220, 221, 222, 223, 224, 225, 226, 227, 228, 229, 230, 231, 232, 233, 234, 235, 236, 237, 238, 239, 240, 241, 242, 243, 244, 245, 246, 247, 248, 249, 250, 251, 252, 253, 254, 255, 256, 257, 258, 259, 260, 261, 262, 263, 264, 265, 266, 267, 268, 269, 270, 271, 272, 273, 274, 275, 276, 277, 278, 279, 280],
      "LargestImagePixelValue": [1002, 717, 748, 694, 697, 796, 703, 903, 694, 992, 723, 874, 703, 921, 698, 974, 722, 964, 733, 798, 740, 718, 734, 689, 791, 724, 780, 775, 720, 819, 740, 827, 823, 756, 707, 731, 737, 690, 732, 685, 853, 701, 1025, 706, 894, 709, 756, 692, 736, 788, 701, 785, 728, 788, 712, 887, 714, 806, 750, 811, 745, 722, 892, 702, 760, 689, 746, 769, 737, 743, 811, 789, 709, 759, 770, 731, 724, 916, 710, 1000, 699, 801, 722, 725, 957, 684, 833, 724, 853, 888, 838, 789, 698, 705, 759, 733, 717, 918, 753, 743, 693, 744, 727, 715, 1017, 756, 798, 767, 688, 905, 704, 730, 712, 735, 765, 691, 783, 701, 880, 733, 780, 789, 688, 789, 706, 810, 764, 782, 755, 698, 793, 788, 734, 815, 759, 773, 762, 840, 738, 831, 687, 853, 695, 840, 705, 942, 707, 850, 735, 758, 814, 838, 688, 750, 729, 906, 823, 1030, 728, 873, 835, 690, 759, 707, 875, 750, 837, 779, 759, 773, 696, 767, 737, 714, 766, 707, 907, 687, 740, 787, 801, 784, 781, 726, 731, 707, 774, 745, 743, 900, 698, 876, 734, 833, 745, 698, 779, 768, 705, 778, 797, 708, 838, 776, 747, 701, 690, 754, 805, 741, 966, 803, 692, 754, 717, 759, 750, 714, 910, 718, 934, 743, 964, 702, 696, 693, 825, 695, 719, 727, 717, 706, 751, 692, 715, 689, 713, 727, 713, 860, 738, 837, 754, 1037, 703, 926, 709, 836, 695, 800, 780, 790, 746, 733, 730, 692, 710, 770, 771, 1116, 741, 815, 822, 743, 851, 730, 885, 704, 873, 690, 952, 688, 688, 730, 807, 780, 713, 921, 694, 980],
      "WindowCenter": [350.0, 345.0, 346.0, 345.0, 346.0, 347.0, 346.0, 349.0, 345.0, 349.0, 346.0, 348.0, 346.0, 349.0, 347.0, 350.0, 346.0, 348.0, 345.0, 346.0, 345.0, 344.0, 346.0, 345.0, 347.0, 346.0, 347.0, 347.0, 346.0, 347.0, 345.0, 346.0, 347.0, 346.0, 346.0, 346.0, 346.0, 345.0, 345.0, 344.0, 346.0, 343.0, 347.0, 344.0, 346.0, 344.0, 345.0, 345.0, 346.0, 347.0, 345.0, 346.0, 345.0, 346.0, 345.0, 348.0, 345.0, 347.0, 346.0, 347.0, 346.0, 345.0, 348.0, 345.0, 346.0, 345.0, 346.0, 346.0, 345.0, 344.0, 345.0, 345.0, 344.0, 345.0, 346.0, 345.0, 345.0, 347.0, 344.0, 348.0, 344.0, 345.0, 344.0, 344.0, 348.0, 345.0, 347.0, 345.0, 347.0, 346.0, 345.0, 344.0, 344.0, 344.0, 346.0, 345.0, 344.0, 346.0, 344.0, 344.0, 344.0, 345.0, 346.0, 346.0, 349.0, 345.0, 345.0, 344.0, 342.0, 346.0, 344.0, 345.0, 345.0, 346.0, 346.0, 346.0, 346.0, 345.0, 347.0, 345.0, 346.0, 346.0, 345.0, 346.0, 345.0, 347.0, 346.0, 346.0, 345.0, 345.0, 347.0, 347.0, 346.0, 346.0, 344.0, 345.0, 344.0, 346.0, 345.0, 346.0, 344.0, 347.0, 344.0, 346.0, 344.0, 348.0, 344.0, 347.0, 345.0, 345.0, 346.0, 347.0, 347.0, 348.0, 346.0, 348.0, 346.0, 348.0, 343.0, 344.0, 345.0, 344.0, 346.0, 344.0, 347.0, 344.0, 345.0, 343.0, 343.0, 343.0, 342.0, 343.0, 344.0, 344.0, 345.0, 345.0, 347.0, 345.0, 346.0, 347.0, 346.0, 346.0, 346.0, 344.0, 344.0, 344.0, 345.0, 345.0, 345.0, 348.0, 345.0, 347.0, 345.0, 346.0, 344.0, 344.0, 346.0, 346.0, 346.0, 348.0, 348.0, 345.0, 346.0, 344.0, 344.0, 343.0, 344.0, 346.0, 347.0, 346.0, 349.0, 346.0, 344.0, 345.0, 345.0, 345.0, 345.0, 344.0, 346.0, 343.0, 346.0, 343.0, 346.0, 343.0, 344.0, 344.0, 347.0, 344.0, 345.0, 345.0, 345.0, 345.0, 346.0, 346.0, 346.0, 345.0, 345.0, 345.0, 345.0, 348.0, 346.0, 348.0, 346.0, 349.0, 344.0, 347.0, 344.0, 347.0, 345.0, 347.0, 346.0, 346.0, 345.0, 345.0, 346.0, 345.0, 346.0, 346.0, 346.0, 349.0, 345.0, 347.0, 346.0, 345.0, 347.0, 345.0, 346.0, 344.0, 347.0, 344.0, 348.0, 344.0, 344.0, 346.0, 347.0, 347.0, 346.0, 349.0, 345.0, 348.0],
      "WindowWidth": [750.0, 742.0, 743.0, 742.0, 743.0, 745.0, 743.0, 746.0, 742.0, 747.0, 743.0, 745.0, 743.0, 748.0, 744.0, 748.0, 743.0, 746.0, 741.0, 742.0, 740.0, 740.0, 742.0, 742.0, 744.0, 743.0, 744.0, 745.0, 742.0, 744.0, 741.0, 742.0, 743.0, 742.0, 742.0, 743.0, 742.0, 742.0, 741.0, 739.0, 742.0, 738.0, 743.0, 739.0, 742.0, 739.0, 742.0, 741.0, 743.0, 744.0, 742.0, 743.0, 742.0, 743.0, 741.0, 745.0, 741.0, 744.0, 743.0, 744.0, 742.0, 742.0, 745.0, 741.0, 742.0, 742.0, 742.0, 743.0, 741.0, 740.0, 741.0, 740.0, 739.0, 740.0, 742.0, 742.0, 741.0, 744.0, 739.0, 744.0, 739.0, 741.0, 740.0, 740.0, 745.0, 742.0, 744.0, 742.0, 743.0, 742.0, 740.0, 738.0, 739.0, 740.0, 742.0, 741.0, 740.0, 742.0, 738.0, 738.0, 738.0, 741.0, 742.0, 743.0, 747.0, 741.0, 740.0, 738.0, 737.0, 741.0, 739.0, 741.0, 741.0, 743.0, 743.0, 743.0, 743.0, 741.0, 744.0, 741.0, 742.0, 743.0, 741.0, 743.0, 742.0, 744.0, 742.0, 743.0, 742.0, 740.0, 743.0, 744.0, 742.0, 742.0, 739.0, 740.0, 739.0, 742.0, 741.0, 742.0, 739.0, 743.0, 739.0, 742.0, 740.0, 745.0, 740.0, 743.0, 741.0, 740.0, 743.0, 745.0, 744.0, 746.0, 743.0, 745.0, 742.0, 745.0, 737.0, 739.0, 739.0, 739.0, 742.0, 740.0, 743.0, 739.0, 739.0, 736.0, 736.0, 736.0, 736.0, 738.0, 739.0, 738.0, 741.0, 740.0, 744.0, 741.0, 743.0, 744.0, 743.0, 742.0, 742.0, 740.0, 740.0, 739.0, 740.0, 740.0, 741.0, 745.0, 741.0, 744.0, 741.0, 742.0, 740.0, 739.0, 742.0, 742.0, 744.0, 747.0, 746.0, 742.0, 742.0, 739.0, 739.0, 738.0, 740.0, 743.0, 744.0, 743.0, 746.0, 741.0, 739.0, 741.0, 740.0, 740.0, 741.0, 739.0, 742.0, 737.0, 741.0, 737.0, 741.0, 738.0, 739.0, 740.0, 743.0, 740.0, 741.0, 742.0, 741.0, 742.0, 743.0, 743.0, 743.0, 741.0, 741.0, 741.0, 741.0, 746.0, 743.0, 746.0, 743.0, 746.0, 740.0, 744.0, 740.0, 743.0, 741.0, 744.0, 743.0, 742.0, 741.0, 741.0, 742.0, 742.0, 743.0, 743.0, 743.0, 747.0, 741.0, 743.0, 742.0, 741.0, 743.0, 740.0, 742.0, 739.0, 743.0, 739.0, 744.0, 739.0, 739.0, 743.0, 744.0, 744.0, 743.0, 747.0, 741.0, 745.0]
    },
    "slices": {}
  }
}