{
  "AcquisitionMatrixPE": 96,
  "AcquisitionNumber": 1,
  "AcquisitionTime": "15:48:59.080000",
  "BandwidthPerPixelPhaseEncode": 18.939,
  "BaseResolution": 96,
  "BodyPartExamined": "BRAIN",
  "ConsistencyInfo": "N4_VE11C_LATEST_20160120",
  "ConversionSoftware": "dcm2niix",
  "ConversionSoftwareVersion": "v1.0.20170923 (OpenJPEG build) GCC6.3.0",
  "DerivedVendorReportedEchoSpacing": 0.000550011,
  "DeviceSerialNumber": "66112",
  "DwellTime": 2.3e-06,
  "EchoTime": 0.033,
  "EchoTrainLength": 96,
  "EffectiveEchoSpacing": 0.000550011,
  "FlipAngle": 64,
  "ImageType": [
    "ORIGINAL",
    "PRIMARY",
    "FMRI",
    "NONE",
    "ND",
    "NORM",
    "MOSAIC"
],
  "InstitutionAddress": "Maynard_3_Hanover_NH_US_03755",
  "InstitutionName": "Dartmouth_College_-_PBS",
  "MagneticFieldStrength": 3,
  "Manufacturer": "Siemens",
  "ManufacturersModelName": "Prisma",
  "Modality": "MR",
  "MultibandAccelerationFactor": 4,
  "PartialFourier": 1,
  "PercentPhaseFOV": 100,
  "PhaseEncodingDirection": "j-",
  "PhaseEncodingSteps": 96,
  "PhaseResolution": 1,
  "ProcedureStepDescription": "Gobbini_Matteo_1017_famface-angles",
  "ProtocolName": "func_run-08_task-str1back",
  "PulseSequenceDetails": "%SiemensSeq%_ep2d_bold",
  "ReceiveCoilActiveElements": "HEA;HEP",
  "ReceiveCoilName": "Head_32",
  "ReconMatrixPE": 96,
  "RepetitionTime": 1.25,
  "ScanOptions": "FS",
  "ScanningSequence": "EP",
  "SequenceName": "_epfid2d1_96",
  "SequenceVariant": "SK",
  "SeriesDescription": "func_run-08_task-str1back",
  "SliceTiming": [0.88, 0, 0.615, 0.0875, 0.7025, 0.1775, 0.7925, 0.3525, 0.9675, 0.44, 1.055, 0.5275, 1.1425, 0.265, 0.88, 0, 0.615, 0.0875, 0.7025, 0.1775, 0.7925, 0.3525, 0.9675, 0.44, 1.055, 0.5275, 1.1425, 0.265, 0.88, 0, 0.615, 0.0875, 0.7025, 0.1775, 0.7925, 0.3525, 0.9675, 0.44, 1.055, 0.5275, 1.1425, 0.265, 0.88, 0, 0.615, 0.0875, 0.7025, 0.1775, 0.7925, 0.3525, 0.9675, 0.44, 1.055, 0.5275, 1.1425, 0.265],
  "SoftwareVersions": "syngo_MR_E11",
  "StationName": "AWP66112",
  "TaskName": "str1back",
  "TotalReadoutTime": 0.0522511,
  "dcmmeta_affine": [
    [-2.4959781169891357, 0.13998380303382874, 0.022302908822894096, 115.51658630371094],
    [0.1405237764120102, 2.4951913356781006, 0.0653679296374321, -115.20475006103516],
    [0.01859983056783676, -0.06651640683412552, 2.4990458488464355, -65.01366424560547],
    [0.0, 0.0, 0.0, 1.0]
],
  "dcmmeta_reorient_transform": [
    [0.0, -1.0, 0.0, 95.0],
    [1.0, 0.0, 0.0, 0.0],
    [0.0, 0.0, 1.0, 0.0],
    [0.0, 0.0, 0.0, 1.0]
],
  "dcmmeta_shape": [96, 96, 56, 280],
  "dcmmeta_slice_dim": 2,
  "dcmmeta_version": 0.6,
  "global": {
    "const": {
      "AccessionNumber": "A000466",
      "AcquisitionMatrix": [96, 0, 0, 96],
      "AngioFlag": "N",
      "BitsAllocated": 16,
      "BitsStored": 12,
      "BodyPartExamined": "BRAIN",
      "Columns": 768,
      "EchoNumbers": 1,
      "EchoTime": 33.0,
      "EchoTrainLength": 96,
      "FlipAngle": 64.0,
      "HighBit": 11,
      "ImageOrientationPatient": [0.99839127531587, -0.0562095079388, 0.00743993215231, 0.05599351937345, 0.99807655849099, 0.02660656270469],
      "ImagePositionPatient": [-1014.4982780047, -913.00675299057, -99.931781669165],
      "ImageType": [
        "ORIGINAL",
        "PRIMARY",
        "FMRI",
        "NONE",
        "ND",
        "NORM",
        "MOSAIC"
],
      "ImagedNucleus": "1H",
      "ImagingFrequency": 123.252369,
      "InPlanePhaseEncodingDirection": "COL",
      "MRAcquisitionType": "2D",
      "MagneticFieldStrength": 3.0,
      "Manufacturer": "SIEMENS",
      "ManufacturerModelName": "Prisma",
      "Modality": "MR",
      "NumberOfAverages": 1.0,
      "NumberOfPhaseEncodingSteps": 96,
      "PercentPhaseFieldOfView": 100.0,
      "PercentSampling": 100.0,
      "PerformedProcedureStepStartTime": "143328.798000",
      "PhotometricInterpretation": "MONOCHROME2",
      "PixelBandwidth": 2265.0,
      "PixelRepresentation": 0,
      "PixelSpacing": [2.5, 2.5],
      "PositionReferenceIndicator": "",
      "ProtocolName": "func_run-08_task-str1back",
      "RepetitionTime": 1250.0,
      "Rows": 768,
      "SAR": 0.04378393971437,
      "SamplesPerPixel": 1,
      "ScanOptions": "FS",
      "ScanningSequence": "EP",
      "SequenceName": "*epfid2d1_96",
      "SequenceVariant": "SK",
      "SeriesDescription": "func_run-08_task-str1back",
      "SeriesNumber": 57,
      "SeriesTime": "154900.312000",
      "SliceLocation": -66.970587462773,
      "SliceThickness": 2.5,
      "SmallestImagePixelValue": 0,
      "SoftwareVersions": "syngo MR E11",
      "SpacingBetweenSlices": 2.5000000300206,
      "SpecificCharacterSet": "ISO_IR 100",
      "StudyID": "3",
      "StudyTime": "143328.746000",
      "TransmitCoilName": "Body",
      "VariableFlipAngleFlag": "N",
      "WindowCenterWidthExplanation": "Algo1",
      "dBdt": 0.0},
    "slices": {}
  },
  "time": {
    "samples": {
      "AcquisitionNumber": [1, 2, 3, 4, 5, 6, 7, 8, 9, 10, 11, 12, 13, 14, 15, 16, 17, 18, 19, 20, 21, 22, 23, 24, 25, 26, 27, 28, 29, 30, 31, 32, 33, 34, 35, 36, 37, 38, 39, 40, 41, 42, 43, 44, 45, 46, 47, 48, 49, 50, 51, 52, 53, 54, 55, 56, 57, 58, 59, 60, 61, 62, 63, 64, 65, 66, 67, 68, 69, 70, 71, 72, 73, 74, 75, 76, 77, 78, 79, 80, 81, 82, 83, 84, 85, 86, 87, 88, 89, 90, 91, 92, 93, 94, 95, 96, 97, 98, 99, 100, 101, 102, 103, 104, 105, 106, 107, 108, 109, 110, 111, 112, 113, 114, 115, 116, 117, 118, 119, 120, 121, 122, 123, 124, 125, 126, 127, 128, 129, 130, 131, 132, 133, 134, 135, 136, 137, 138, 139, 140, 141, 142, 143, 144, 145, 146, 147, 148, 149, 150, 151, 152, 153, 154, 155, 156, 157, 158, 159, 160, 161, 162, 163, 164, 165, 166, 167, 168, 169, 170, 171, 172, 173, 174, 175, 176, 177, 178, 179, 180, 181, 182, 183, 184, 185, 186, 187, 188, 189, 190, 191, 192, 193, 194, 195, 196, 197, 198, 199, 200, 201, 202, 203, 204, 205, 206, 207, 208, 209, 210, 211, 212, 213, 214, 215, 216, 217, 218, 219, 220, 221, 222, 223, 224, 225, 226, 227, 228, 229, 230, 231, 232, 233, 234, 235, 236, 237, 238, 239, 240, 241, 242, 243, 244, 245, 246, 247, 248, 249, 250, 251, 252, 253, 254, 255, 256, 257, 258, 259, 260, 261, 262, 263, 264, 265, 266, 267, 268, 269, 270, 271, 272, 273, 274, 275, 276, 277, 278, 279, 280],
      "AcquisitionTime": ["154859.080000", "154900.330000", "154901.580000", "154902.830000", "154904.080000", "154905.330000", "154906.580000", "154907.830000", "154909.080000", "154910.330000", "154911.580000", "154912.830000", "154914.080000", "154915.330000", "154916.580000", "154917.830000", "154919.080000", "154920.330000", "154921.580000", "154922.830000", "154924.080000", "154925.330000", "154926.580000", "154927.830000", "154929.080000", "154930.330000", "154931.580000", "154932.830000", "154934.080000", "154935.330000", "154936.580000", "154937.830000", "154939.080000", "154940.330000", "154941.580000", "154942.830000", "154944.080000", "154945.330000", "154946.580000", "154947.830000", "154949.080000", "154950.330000", "154951.580000", "154952.830000", "154954.080000", "154955.330000", "154956.580000", "154957.830000", "154959.080000", "155000.330000", "155001.580000", "155002.830000", "155004.080000", "155005.330000", "155006.580000", "155007.830000", "155009.080000", "155010.330000", "155011.580000", "155012.830000", "155014.080000", "155015.330000", "155016.580000", "155017.830000", "155019.080000", "155020.330000", "155021.580000", "155022.830000", "155024.080000", "155025.330000", "155026.580000", "155027.830000", "155029.080000", "155030.330000", "155031.580000", "155032.830000", "155034.080000", "155035.330000", "155036.580000", "155037.830000", "155039.080000", "155040.330000", "155041.580000", "155042.830000", "155044.080000", "155045.330000", "155046.580000", "155047.830000", "155049.080000", "155050.330000", "155051.580000", "155052.830000", "155054.080000", "155055.330000", "155056.580000", "155057.830000", "155059.080000", "155100.330000", "155101.580000", "155102.830000", "155104.080000", "155105.330000", "155106.580000", "155107.830000", "155109.080000", "155110.330000", "155111.580000", "155112.830000", "155114.080000", "155115.330000", "155116.580000", "155117.830000", "155119.080000", "155120.330000", "155121.580000", "155122.830000", "155124.080000", "155125.330000", "155126.580000", "155127.830000", "155129.080000", "155130.330000", "155131.580000", "155132.830000", "155134.080000", "155135.330000", "155136.580000", "155137.830000", "155139.080000", "155140.330000", "155141.580000", "155142.830000", "155144.080000", "155145.330000", "155146.580000", "155147.830000", "155149.080000", "155150.330000", "155151.580000", "155152.830000", "155154.080000", "155155.330000", "155156.580000", "155157.830000", "155159.080000", "155200.330000", "155201.580000", "155202.830000", "155204.080000", "155205.330000", "155206.580000", "155207.830000", "155209.080000", "155210.330000", "155211.580000", "155212.830000", "155214.080000", "155215.330000", "155216.580000", "155217.830000", "155219.080000", "155220.330000", "155221.580000", "155222.830000", "155224.080000", "155225.330000", "155226.580000", "155227.830000", "155229.080000", "155230.330000", "155231.580000", "155232.830000", "155234.080000", "155235.330000", "155236.580000", "155237.830000", "155239.080000", "155240.330000", "155241.580000", "155242.830000", "155244.080000", "155245.330000", "155246.580000", "155247.830000", "155249.080000", "155250.330000", "155251.580000", "155252.830000", "155254.080000", "155255.330000", "155256.580000", "155257.830000", "155259.080000", "155300.330000", "155301.580000", "155302.830000", "155304.080000", "155305.330000", "155306.580000", "155307.830000", "155309.080000", "155310.330000", "155311.580000", "155312.830000", "155314.080000", "155315.330000", "155316.580000", "155317.830000", "155319.080000", "155320.330000", "155321.580000", "155322.830000", "155324.080000", "155325.330000", "155326.580000", "155327.830000", "155329.080000", "155330.330000", "155331.580000", "155332.830000", "155334.080000", "155335.330000", "155336.580000", "155337.830000", "155339.080000", "155340.330000", "155341.580000", "155342.830000", "155344.080000", "155345.330000", "155346.580000", "155347.830000", "155349.080000", "155350.330000", "155351.580000", "155352.830000", "155354.080000", "155355.330000", "155356.580000", "155357.830000", "155359.080000", "155400.330000", "155401.580000", "155402.830000", "155404.080000", "155405.330000", "155406.580000", "155407.830000", "155409.080000", "155410.330000", "155411.580000", "155412.830000", "155414.080000", "155415.330000", "155416.580000", "155417.830000", "155419.080000", "155420.330000", "155421.580000", "155422.830000", "155424.080000", "155425.330000", "155426.580000", "155427.830000", "155429.080000", "155430.330000", "155431.580000", "155432.830000", "155434.080000", "155435.330000", "155436.580000", "155437.830000", "155439.080000", "155440.330000", "155441.580000", "155442.830000", "155444.080000", "155445.330000", "155446.580000", "155447.830000"],
      "ContentTime": ["154900.316000", "154901.395000", "154902.659000", "154903.937000", "154905.205000", "154906.417000", "154907.672000", "154908.872000", "154910.193000", "154911.470000", "154912.668000", "154913.864000", "154915.147000", "154916.404000", "154917.641000", "154918.907000", "154920.137000", "154921.388000", "154922.629000", "154923.861000", "154925.160000", "154926.427000", "154927.648000", "154928.910000", "154930.127000", "154931.410000", "154932.654000", "154933.970000", "154935.114000", "154936.373000", "154937.629000", "154938.882000", "154940.130000", "154941.389000", "154942.625000", "154943.879000", "154945.159000", "154946.362000", "154947.622000", "154948.873000", "154950.156000", "154951.419000", "154952.630000", "154953.893000", "154955.138000", "154956.388000", "154957.692000", "154958.868000", "155000.150000", "155001.376000", "155002.639000", "155003.853000", "155005.126000", "155006.387000", "155007.612000", "155008.916000", "155010.142000", "155011.381000", "155012.620000", "155013.947000", "155015.135000", "155016.387000", "155017.681000", "155018.891000", "155020.118000", "155021.397000", "155022.651000", "155023.884000", "155025.116000", "155026.398000", "155027.625000", "155028.912000", "155030.139000", "155031.377000", "155032.622000", "155033.880000", "155035.123000", "155036.370000", "155037.607000", "155038.895000", "155040.140000", "155041.368000", "155042.648000", "155043.910000", "155045.125000", "155046.381000", "155047.646000", "155048.873000", "155050.124000", "155051.394000", "155052.667000", "155053.897000", "155055.142000", "155056.377000", "155057.670000", "155058.910000", "155100.129000", "155101.381000", "155102.627000", "155103.894000", "155105.193000", "155106.435000", "155107.673000", "155108.896000", "155110.200000", "155111.417000", "155112.661000", "155113.885000", "155115.143000", "155116.379000", "155117.636000", "155118.887000", "155120.144000", "155121.396000", "155122.637000", "155123.880000", "155125.150000", "155126.413000", "155127.585000", "155128.891000", "155130.130000", "155131.409000", "155132.637000", "155133.894000", "155135.088000", "155136.358000", "155137.651000", "155138.873000", "155140.132000", "155141.394000", "155142.671000", "155143.877000", "155145.119000", "155146.390000", "155147.621000", "155148.883000", "155150.149000", "155151.422000", "155152.676000", "155153.911000", "155155.143000", "155156.360000", "155157.654000", "155158.907000", "155200.183000", "155201.402000", "155202.616000", "155203.862000", "155205.145000", "155206.392000", "155207.657000", "155208.911000", "155210.149000", "155211.387000", "155212.620000", "155213.868000", "155215.127000", "155216.390000", "155217.636000", "155218.893000", "155220.129000", "155221.401000", "155222.644000", "155223.908000", "155225.152000", "155226.403000", "155227.641000", "155228.895000", "155230.125000", "155231.434000", "155232.652000", "155233.929000", "155235.159000", "155236.374000", "155237.655000", "155238.938000", "155240.186000", "155241.429000", "155242.671000", "155243.908000", "155245.136000", "155246.387000", "155247.651000", "155248.922000", "155250.162000", "155251.431000", "155252.653000", "155253.887000", "155255.138000", "155256.401000", "155257.646000", "155258.880000", "155300.140000", "155301.382000", "155302.647000", "155303.906000", "155305.140000", "155306.419000", "155307.633000", "155308.891000", "155310.163000", "155311.392000", "155312.695000", "155313.881000", "155315.239000", "155316.382000", "155317.665000", "155318.861000", "155320.141000", "155321.338000", "155322.672000", "155323.881000", "155325.152000", "155326.368000", "155327.646000", "155328.881000", "155330.138000", "155331.401000", "155332.634000", "155333.908000", "155335.143000", "155336.421000", "155337.634000", "155338.890000", "155340.137000", "155341.387000", "155342.620000", "155343.886000", "155345.125000", "155346.411000", "155347.690000", "155348.936000", "155350.142000", "155351.371000", "155352.632000", "155353.868000", "155355.130000", "155356.411000", "155357.697000", "155358.880000", "155400.206000", "155401.376000", "155402.648000", "155403.884000", "155405.134000", "155406.365000", "155407.634000", "155408.896000", "155410.139000", "155411.379000", "155412.614000", "155413.877000", "155415.151000", "155416.387000", "155417.613000", "155418.877000", "155420.146000", "155421.420000", "155422.629000", "155423.876000", "155425.092000", "155426.378000", "155427.671000", "155428.907000", "155430.178000", "155431.363000", "155432.637000", "155433.890000", "155435.122000", "155436.378000", "155437.665000", "155438.895000", "155440.121000", "155441.366000", "155442.611000", "155443.899000", "155445.162000", "155446.406000", "155447.694000", "155448.963000"],
      "InstanceCreationTime": ["154900.316000", "154901.395000", "154902.659000", "154903.937000", "154905.205000", "154906.417000", "154907.672000", "154908.872000", "154910.193000", "154911.470000", "154912.668000", "154913.864000", "154915.147000", "154916.404000", "154917.641000", "154918.907000", "154920.137000", "154921.388000", "154922.629000", "154923.861000", "154925.160000", "154926.427000", "154927.648000", "154928.910000", "154930.127000", "154931.410000", "154932.654000", "154933.970000", "154935.114000", "154936.373000", "154937.629000", "154938.882000", "154940.130000", "154941.389000", "154942.625000", "154943.879000", "154945.159000", "154946.362000", "154947.622000", "154948.873000", "154950.156000", "154951.419000", "154952.630000", "154953.893000", "154955.138000", "154956.388000", "154957.692000", "154958.868000", "155000.150000", "155001.376000", "155002.639000", "155003.853000", "155005.126000", "155006.387000", "155007.612000", "155008.916000", "155010.142000", "155011.381000", "155012.620000", "155013.947000", "155015.135000", "155016.387000", "155017.681000", "155018.891000", "155020.118000", "155021.397000", "155022.651000", "155023.884000", "155025.116000", "155026.398000", "155027.625000", "155028.912000", "155030.139000", "155031.377000", "155032.622000", "155033.880000", "155035.123000", "155036.370000", "155037.607000", "155038.895000", "155040.140000", "155041.368000", "155042.648000", "155043.910000", "155045.125000", "155046.381000", "155047.646000", "155048.873000", "155050.124000", "155051.394000", "155052.667000", "155053.897000", "155055.142000", "155056.377000", "155057.670000", "155058.910000", "155100.129000", "155101.381000", "155102.627000", "155103.894000", "155105.193000", "155106.435000", "155107.673000", "155108.896000", "155110.200000", "155111.417000", "155112.661000", "155113.885000", "155115.143000", "155116.379000", "155117.636000", "155118.887000", "155120.144000", "155121.396000", "155122.637000", "155123.880000", "155125.150000", "155126.413000", "155127.585000", "155128.891000", "155130.130000", "155131.409000", "155132.637000", "155133.894000", "155135.088000", "155136.358000", "155137.651000", "155138.873000", "155140.132000", "155141.394000", "155142.671000", "155143.877000", "155145.119000", "155146.390000", "155147.621000", "155148.883000", "155150.149000", "155151.422000", "155152.676000", "155153.911000", "155155.143000", "155156.360000", "155157.654000", "155158.907000", "155200.183000", "155201.402000", "155202.616000", "155203.862000", "155205.145000", "155206.392000", "155207.657000", "155208.911000", "155210.149000", "155211.387000", "155212.620000", "155213.868000", "155215.127000", "155216.390000", "155217.636000", "155218.893000", "155220.129000", "155221.401000", "155222.644000", "155223.908000", "155225.152000", "155226.403000", "155227.641000", "155228.895000", "155230.125000", "155231.434000", "155232.652000", "155233.929000", "155235.159000", "155236.374000", "155237.655000", "155238.938000", "155240.186000", "155241.429000", "155242.671000", "155243.908000", "155245.136000", "155246.387000", "155247.651000", "155248.922000", "155250.162000", "155251.431000", "155252.653000", "155253.887000", "155255.138000", "155256.401000", "155257.646000", "155258.880000", "155300.140000", "155301.382000", "155302.647000", "155303.906000", "155305.140000", "155306.419000", "155307.633000", "155308.891000", "155310.163000", "155311.392000", "155312.695000", "155313.881000", "155315.239000", "155316.382000", "155317.665000", "155318.861000", "155320.141000", "155321.338000", "155322.672000", "155323.881000", "155325.152000", "155326.368000", "155327.646000", "155328.881000", "155330.138000", "155331.401000", "155332.634000", "155333.908000", "155335.143000", "155336.421000", "155337.634000", "155338.890000", "155340.137000", "155341.387000", "155342.620000", "155343.886000", "155345.125000", "155346.411000", "155347.690000", "155348.936000", "155350.142000", "155351.371000", "155352.632000", "155353.868000", "155355.130000", "155356.411000", "155357.697000", "155358.880000", "155400.206000", "155401.376000", "155402.648000", "155403.884000", "155405.134000", "155406.365000", "155407.634000", "155408.896000", "155410.139000", "155411.379000", "155412.614000", "155413.877000", "155415.151000", "155416.387000", "155417.613000", "155418.877000", "155420.146000", "155421.420000", "155422.629000", "155423.876000", "155425.092000", "155426.378000", "155427.671000", "155428.907000", "155430.178000", "155431.363000", "155432.637000", "155433.890000", "155435.122000", "155436.378000", "155437.665000", "155438.895000", "155440.121000", "155441.366000", "155442.611000", "155443.899000", "155445.162000", "155446.406000", "155447.694000", "155448.963000"],
      "InstanceNumber": [1, 2, 3, 4, 5, 6, 7, 8, 9, 10, 11, 12, 13, 14, 15, 16, 17, 18, 19, 20, 21, 22, 23, 24, 25, 26, 27, 28, 29, 30, 31, 32, 33, 34, 35, 36, 37, 38, 39, 40, 41, 42, 43, 44, 45, 46, 47, 48, 49, 50, 51, 52, 53, 54, 55, 56, 57, 58, 59, 60, 61, 62, 63, 64, 65, 66, 67, 68, 69, 70, 71, 72, 73, 74, 75, 76, 77, 78, 79, 80, 81, 82, 83, 84, 85, 86, 87, 88, 89, 90, 91, 92, 93, 94, 95, 96, 97, 98, 99, 100, 101, 102, 103, 104, 105, 106, 107, 108, 109, 110, 111, 112, 113, 114, 115, 116, 117, 118, 119, 120, 121, 122, 123, 124, 125, 126, 127, 128, 129, 130, 131, 132, 133, 134, 135, 136, 137, 138, 139, 140, 141, 142, 143, 144, 145, 146, 147, 148, 149, 150, 151, 152, 153, 154, 155, 156, 157, 158, 159, 160, 161, 162, 163, 164, 165, 166, 167, 168, 169, 170, 171, 172, 173, 174, 175, 176, 177, 178, 179, 180, 181, 182, 183, 184, 185, 186, 187, 188, 189, 190, 191, 192, 193, 194, 195, 196, 197, 198, 199, 200, 201, 202, 203, 204, 205, 206, 207, 208, 209, 210, 211, 212, 213, 214, 215, 216, 217, 218, 219, 220, 221, 222, 223, 224, 225, 226, 227, 228, 229, 230, 231, 232, 233, 234, 235, 236, 237, 238, 239, 240, 241, 242, 243, 244, 245, 246, 247, 248, 249, 250, 251, 252, 253, 254, 255, 256, 257, 258, 259, 260, 261, 262, 263, 264, 265, 266, 267, 268, 269, 270, 271, 272, 273, 274, 275, 276, 277, 278, 279, 280],
      "LargestImagePixelValue": [1023, 717, 936, 704, 901, 719, 832, 715, 693, 742, 702, 838, 776, 790, 701, 703, 1028, 712, 844, 714, 697, 751, 698, 776, 699, 928, 721, 829, 732, 773, 713, 732, 700, 702, 1001, 740, 731, 772, 698, 869, 707, 805, 735, 721, 879, 731, 746, 742, 702, 780, 707, 904, 721, 720, 777, 702, 759, 697, 910, 753, 891, 751, 751, 757, 703, 699, 701, 768, 706, 883, 736, 794, 743, 721, 770, 778, 748, 736, 785, 745, 736, 776, 743, 774, 729, 783, 732, 769, 762, 729, 726, 756, 753, 696, 800, 718, 756, 722, 746, 701, 767, 693, 736, 713, 741, 734, 703, 735, 702, 742, 714, 715, 751, 707, 740, 759, 699, 941, 707, 843, 700, 779, 726, 933, 698, 731, 724, 701, 697, 720, 698, 812, 744, 779, 912, 726, 896, 696, 722, 699, 765, 750, 719, 892, 702, 876, 697, 900, 709, 887, 738, 786, 731, 822, 720, 866, 746, 764, 751, 696, 702, 700, 837, 693, 779, 729, 798, 722, 762, 744, 756, 744, 755, 1008, 710, 864, 699, 734, 695, 727, 714, 781, 726, 805, 722, 728, 894, 755, 773, 717, 787, 715, 943, 693, 830, 712, 773, 723, 785, 757, 743, 804, 756, 803, 716, 705, 688, 692, 770, 703, 892, 689, 832, 710, 798, 716, 827, 728, 762, 734, 827, 775, 795, 836, 718, 1044, 692, 965, 696, 805, 698, 949, 689, 743, 719, 701, 891, 697, 983, 700, 749, 693, 791, 721, 775, 775, 763, 788, 752, 746, 726, 769, 728, 736, 718, 710, 771, 745, 739, 767, 732, 705, 939, 694, 760, 691, 806, 702, 756, 759, 753, 989, 689, 724, 851, 693, 917, 726, 761, 795],
      "WindowCenter": [350.0, 345.0, 348.0, 345.0, 348.0, 345.0, 347.0, 344.0, 344.0, 346.0, 347.0, 349.0, 348.0, 347.0, 344.0, 344.0, 348.0, 344.0, 346.0, 345.0, 345.0, 346.0, 346.0, 347.0, 346.0, 348.0, 346.0, 347.0, 346.0, 347.0, 346.0, 347.0, 346.0, 346.0, 350.0, 346.0, 346.0, 346.0, 346.0, 348.0, 346.0, 348.0, 346.0, 346.0, 348.0, 346.0, 347.0, 346.0, 346.0, 347.0, 345.0, 348.0, 345.0, 346.0, 347.0, 346.0, 347.0, 346.0, 348.0, 346.0, 347.0, 345.0, 345.0, 345.0, 345.0, 346.0, 346.0, 348.0, 346.0, 348.0, 345.0, 346.0, 345.0, 346.0, 347.0, 347.0, 346.0, 346.0, 346.0, 345.0, 345.0, 346.0, 345.0, 346.0, 346.0, 347.0, 346.0, 347.0, 347.0, 347.0, 347.0, 348.0, 347.0, 346.0, 346.0, 344.0, 345.0, 344.0, 345.0, 344.0, 345.0, 345.0, 346.0, 346.0, 346.0, 346.0, 346.0, 346.0, 346.0, 347.0, 347.0, 347.0, 348.0, 346.0, 347.0, 346.0, 344.0, 348.0, 344.0, 347.0, 346.0, 348.0, 347.0, 349.0, 345.0, 346.0, 345.0, 344.0, 344.0, 346.0, 346.0, 348.0, 346.0, 346.0, 347.0, 344.0, 346.0, 343.0, 344.0, 345.0, 347.0, 347.0, 346.0, 349.0, 345.0, 348.0, 346.0, 349.0, 345.0, 348.0, 346.0, 346.0, 346.0, 347.0, 346.0, 349.0, 346.0, 346.0, 345.0, 344.0, 344.0, 346.0, 349.0, 347.0, 348.0, 347.0, 347.0, 346.0, 347.0, 347.0, 348.0, 348.0, 348.0, 349.0, 345.0, 347.0, 344.0, 345.0, 346.0, 347.0, 348.0, 349.0, 347.0, 348.0, 346.0, 345.0, 348.0, 345.0, 346.0, 345.0, 347.0, 346.0, 349.0, 346.0, 348.0, 346.0, 347.0, 346.0, 347.0, 347.0, 347.0, 348.0, 346.0, 347.0, 345.0, 345.0, 345.0, 346.0, 348.0, 347.0, 349.0, 346.0, 348.0, 346.0, 348.0, 347.0, 348.0, 346.0, 347.0, 348.0, 349.0, 348.0, 348.0, 347.0, 345.0, 349.0, 344.0, 348.0, 345.0, 347.0, 346.0, 348.0, 345.0, 346.0, 346.0, 346.0, 349.0, 346.0, 350.0, 346.0, 346.0, 346.0, 347.0, 347.0, 347.0, 347.0, 346.0, 346.0, 346.0, 346.0, 347.0, 348.0, 347.0, 346.0, 345.0, 346.0, 347.0, 347.0, 347.0, 347.0, 346.0, 345.0, 348.0, 345.0, 346.0, 346.0, 347.0, 346.0, 347.0, 346.0, 346.0, 350.0, 346.0, 346.0, 348.0, 346.0, 348.0, 345.0, 346.0, 346.0],
      "WindowWidth": [749.0, 742.0, 746.0, 742.0, 745.0, 741.0, 743.0, 740.0, 740.0, 743.0, 744.0, 748.0, 746.0, 744.0, 740.0, 739.0, 745.0, 739.0, 742.0, 740.0, 741.0, 743.0, 742.0, 743.0, 743.0, 746.0, 744.0, 745.0, 744.0, 744.0, 744.0, 744.0, 743.0, 743.0, 748.0, 742.0, 742.0, 743.0, 742.0, 746.0, 742.0, 745.0, 743.0, 742.0, 745.0, 742.0, 744.0, 743.0, 743.0, 744.0, 742.0, 745.0, 741.0, 742.0, 744.0, 744.0, 745.0, 744.0, 746.0, 742.0, 744.0, 740.0, 740.0, 741.0, 741.0, 742.0, 744.0, 745.0, 744.0, 745.0, 741.0, 742.0, 740.0, 742.0, 744.0, 743.0, 743.0, 742.0, 742.0, 742.0, 742.0, 743.0, 742.0, 743.0, 742.0, 744.0, 743.0, 744.0, 744.0, 745.0, 745.0, 745.0, 745.0, 743.0, 743.0, 740.0, 740.0, 739.0, 740.0, 740.0, 742.0, 741.0, 743.0, 743.0, 744.0, 743.0, 743.0, 743.0, 743.0, 744.0, 745.0, 745.0, 745.0, 743.0, 744.0, 743.0, 740.0, 744.0, 740.0, 744.0, 744.0, 747.0, 745.0, 747.0, 741.0, 742.0, 741.0, 740.0, 740.0, 743.0, 744.0, 746.0, 744.0, 743.0, 744.0, 739.0, 742.0, 738.0, 740.0, 741.0, 744.0, 745.0, 743.0, 746.0, 742.0, 745.0, 743.0, 746.0, 742.0, 745.0, 742.0, 743.0, 742.0, 745.0, 744.0, 747.0, 743.0, 742.0, 741.0, 740.0, 740.0, 743.0, 747.0, 744.0, 746.0, 744.0, 745.0, 742.0, 744.0, 745.0, 746.0, 746.0, 745.0, 747.0, 741.0, 743.0, 740.0, 742.0, 742.0, 745.0, 746.0, 748.0, 745.0, 745.0, 743.0, 741.0, 745.0, 741.0, 742.0, 741.0, 744.0, 743.0, 747.0, 743.0, 745.0, 743.0, 744.0, 743.0, 744.0, 745.0, 745.0, 746.0, 743.0, 744.0, 741.0, 741.0, 742.0, 744.0, 745.0, 744.0, 748.0, 743.0, 746.0, 744.0, 746.0, 745.0, 746.0, 744.0, 744.0, 746.0, 748.0, 745.0, 745.0, 744.0, 741.0, 746.0, 740.0, 745.0, 741.0, 744.0, 743.0, 746.0, 742.0, 743.0, 743.0, 743.0, 746.0, 743.0, 748.0, 743.0, 744.0, 743.0, 745.0, 744.0, 745.0, 744.0, 743.0, 743.0, 743.0, 743.0, 744.0, 745.0, 744.0, 744.0, 742.0, 743.0, 745.0, 745.0, 745.0, 745.0, 742.0, 741.0, 745.0, 741.0, 743.0, 743.0, 745.0, 744.0, 744.0, 744.0, 744.0, 748.0, 743.0, 744.0, 746.0, 743.0, 746.0, 741.0, 742.0, 743.0]
    },
    "slices": {}
  }
}