{
  "AcquisitionMatrixPE": 96,
  "AcquisitionNumber": 1,
  "AcquisitionTime": "16:06:14.722500",
  "BandwidthPerPixelPhaseEncode": 18.939,
  "BaseResolution": 96,
  "BodyPartExamined": "BRAIN",
  "ConsistencyInfo": "N4_VE11C_LATEST_20160120",
  "ConversionSoftware": "dcm2niix",
  "ConversionSoftwareVersion": "v1.0.20170923 (OpenJPEG build) GCC6.3.0",
  "DerivedVendorReportedEchoSpacing": 0.000550011,
  "DeviceSerialNumber": "66112",
  "DwellTime": 2.3e-06,
  "EchoTime": 0.033,
  "EchoTrainLength": 96,
  "EffectiveEchoSpacing": 0.000550011,
  "FlipAngle": 64,
  "ImageType": [
    "ORIGINAL",
    "PRIMARY",
    "FMRI",
    "NONE",
    "ND",
    "NORM",
    "MOSAIC"
],
  "InstitutionAddress": "Maynard_3_Hanover_NH_US_03755",
  "InstitutionName": "Dartmouth_College_-_PBS",
  "MagneticFieldStrength": 3,
  "Manufacturer": "Siemens",
  "ManufacturersModelName": "Prisma",
  "Modality": "MR",
  "MultibandAccelerationFactor": 4,
  "PartialFourier": 1,
  "PercentPhaseFOV": 100,
  "PhaseEncodingDirection": "j-",
  "PhaseEncodingSteps": 96,
  "PhaseResolution": 1,
  "ProcedureStepDescription": "Gobbini_Matteo_1017_famface-angles",
  "ProtocolName": "func_run-06_task-localizer",
  "PulseSequenceDetails": "%SiemensSeq%_ep2d_bold",
  "ReceiveCoilActiveElements": "HEA;HEP",
  "ReceiveCoilName": "Head_32",
  "ReconMatrixPE": 96,
  "RepetitionTime": 1.25,
  "ScanOptions": "FS",
  "ScanningSequence": "EP",
  "SequenceName": "_epfid2d1_96",
  "SequenceVariant": "SK",
  "SeriesDescription": "func_run-06_task-localizer",
  "SliceTiming": [0.8775, 0, 0.615, 0.0875, 0.7025, 0.175, 0.79, 0.35, 0.965, 0.44, 1.055, 0.5275, 1.1425, 0.2625, 0.8775, 0, 0.615, 0.0875, 0.7025, 0.175, 0.79, 0.35, 0.965, 0.44, 1.055, 0.5275, 1.1425, 0.2625, 0.8775, 0, 0.615, 0.0875, 0.7025, 0.175, 0.79, 0.35, 0.965, 0.44, 1.055, 0.5275, 1.1425, 0.2625, 0.8775, 0, 0.615, 0.0875, 0.7025, 0.175, 0.79, 0.35, 0.965, 0.44, 1.055, 0.5275, 1.1425, 0.2625],
  "SoftwareVersions": "syngo_MR_E11",
  "StationName": "AWP66112",
  "TaskName": "localizer",
  "TotalReadoutTime": 0.0522511,
  "dcmmeta_affine": [
    [-2.4999420642852783, 0.008290061727166176, -0.014884415082633495, 123.82583618164062],
    [0.009952063672244549, 2.4832870960235596, -0.28842103481292725, -86.02306365966797],
    [-0.013828498311340809, 0.28847357630729675, 2.483262300491333, -81.70022583007812],
    [0.0, 0.0, 0.0, 1.0]
],
  "dcmmeta_reorient_transform": [
    [0.0, -1.0, 0.0, 95.0],
    [1.0, 0.0, 0.0, 0.0],
    [0.0, 0.0, 1.0, 0.0],
    [0.0, 0.0, 0.0, 1.0]
],
  "dcmmeta_shape": [96, 96, 56, 325],
  "dcmmeta_slice_dim": 2,
  "dcmmeta_version": 0.6,
  "global": {
    "const": {
      "AccessionNumber": "A000457",
      "AcquisitionMatrix": [96, 0, 0, 96],
      "AngioFlag": "N",
      "BitsAllocated": 16,
      "BitsStored": 12,
      "BodyPartExamined": "BRAIN",
      "Columns": 768,
      "EchoNumbers": 1,
      "EchoTime": 33.0,
      "EchoTrainLength": 96,
      "FlipAngle": 64.0,
      "HighBit": 11,
      "ImageOrientationPatient": [0.99997677805618, -0.0039808254013, -0.0055313992362, 0.00331602474293, 0.99331479521049, -0.115389434507],
      "ImagePositionPatient": [-967.37934573018, -980.92973562007, 47.278267666432],
      "ImageType": [
        "ORIGINAL",
        "PRIMARY",
        "FMRI",
        "NONE",
        "ND",
        "NORM",
        "MOSAIC"
],
      "ImagedNucleus": "1H",
      "ImagingFrequency": 123.252368,
      "InPlanePhaseEncodingDirection": "COL",
      "MRAcquisitionType": "2D",
      "MagneticFieldStrength": 3.0,
      "Manufacturer": "SIEMENS",
      "ManufacturerModelName": "Prisma",
      "Modality": "MR",
      "NumberOfAverages": 1.0,
      "NumberOfPhaseEncodingSteps": 96,
      "PercentPhaseFieldOfView": 100.0,
      "PercentSampling": 100.0,
      "PerformedProcedureStepStartTime": "152148.325000",
      "PhotometricInterpretation": "MONOCHROME2",
      "PixelBandwidth": 2265.0,
      "PixelRepresentation": 0,
      "PixelSpacing": [2.5, 2.5],
      "PositionReferenceIndicator": "",
      "ProtocolName": "func_run-06_task-localizer",
      "RepetitionTime": 1250.0,
      "Rows": 768,
      "SAR": 0.06143645157127,
      "SamplesPerPixel": 1,
      "ScanOptions": "FS",
      "ScanningSequence": "EP",
      "SequenceName": "*epfid2d1_96",
      "SequenceVariant": "SK",
      "SeriesDescription": "func_run-06_task-localizer",
      "SeriesNumber": 46,
      "SeriesTime": "160615.852000",
      "SliceLocation": -71.966120396205,
      "SliceThickness": 2.5,
      "SmallestImagePixelValue": 0,
      "SoftwareVersions": "syngo MR E11",
      "SpacingBetweenSlices": 2.5000000332155,
      "SpecificCharacterSet": "ISO_IR 100",
      "StudyID": "1",
      "StudyTime": "152148.263000",
      "TransmitCoilName": "Body",
      "VariableFlipAngleFlag": "N",
      "WindowCenterWidthExplanation": "Algo1",
      "dBdt": 0.0},
    "slices": {}
  },
  "time": {
    "samples": {
      "AcquisitionNumber": [1, 2, 3, 4, 5, 6, 7, 8, 9, 10, 11, 12, 13, 14, 15, 16, 17, 18, 19, 20, 21, 22, 23, 24, 25, 26, 27, 28, 29, 30, 31, 32, 33, 34, 35, 36, 37, 38, 39, 40, 41, 42, 43, 44, 45, 46, 47, 48, 49, 50, 51, 52, 53, 54, 55, 56, 57, 58, 59, 60, 61, 62, 63, 64, 65, 66, 67, 68, 69, 70, 71, 72, 73, 74, 75, 76, 77, 78, 79, 80, 81, 82, 83, 84, 85, 86, 87, 88, 89, 90, 91, 92, 93, 94, 95, 96, 97, 98, 99, 100, 101, 102, 103, 104, 105, 106, 107, 108, 109, 110, 111, 112, 113, 114, 115, 116, 117, 118, 119, 120, 121, 122, 123, 124, 125, 126, 127, 128, 129, 130, 131, 132, 133, 134, 135, 136, 137, 138, 139, 140, 141, 142, 143, 144, 145, 146, 147, 148, 149, 150, 151, 152, 153, 154, 155, 156, 157, 158, 159, 160, 161, 162, 163, 164, 165, 166, 167, 168, 169, 170, 171, 172, 173, 174, 175, 176, 177, 178, 179, 180, 181, 182, 183, 184, 185, 186, 187, 188, 189, 190, 191, 192, 193, 194, 195, 196, 197, 198, 199, 200, 201, 202, 203, 204, 205, 206, 207, 208, 209, 210, 211, 212, 213, 214, 215, 216, 217, 218, 219, 220, 221, 222, 223, 224, 225, 226, 227, 228, 229, 230, 231, 232, 233, 234, 235, 236, 237, 238, 239, 240, 241, 242, 243, 244, 245, 246, 247, 248, 249, 250, 251, 252, 253, 254, 255, 256, 257, 258, 259, 260, 261, 262, 263, 264, 265, 266, 267, 268, 269, 270, 271, 272, 273, 274, 275, 276, 277, 278, 279, 280, 281, 282, 283, 284, 285, 286, 287, 288, 289, 290, 291, 292, 293, 294, 295, 296, 297, 298, 299, 300, 301, 302, 303, 304, 305, 306, 307, 308, 309, 310, 311, 312, 313, 314, 315, 316, 317, 318, 319, 320, 321, 322, 323, 324, 325],
      "AcquisitionTime": ["160614.722500", "160615.972500", "160617.222500", "160618.472500", "160619.722500", "160620.972500", "160622.222500", "160623.472500", "160624.722500", "160625.972500", "160627.222500", "160628.472500", "160629.722500", "160630.972500", "160632.222500", "160633.472500", "160634.722500", "160635.972500", "160637.222500", "160638.472500", "160639.722500", "160640.972500", "160642.222500", "160643.472500", "160644.722500", "160645.972500", "160647.222500", "160648.472500", "160649.722500", "160650.972500", "160652.222500", "160653.472500", "160654.722500", "160655.972500", "160657.222500", "160658.472500", "160659.722500", "160700.972500", "160702.222500", "160703.472500", "160704.722500", "160705.972500", "160707.222500", "160708.472500", "160709.722500", "160710.972500", "160712.222500", "160713.472500", "160714.722500", "160715.972500", "160717.222500", "160718.472500", "160719.722500", "160720.972500", "160722.222500", "160723.472500", "160724.722500", "160725.972500", "160727.222500", "160728.472500", "160729.722500", "160730.972500", "160732.222500", "160733.472500", "160734.722500", "160735.972500", "160737.222500", "160738.472500", "160739.722500", "160740.972500", "160742.222500", "160743.472500", "160744.722500", "160745.972500", "160747.222500", "160748.472500", "160749.722500", "160750.972500", "160752.222500", "160753.472500", "160754.722500", "160755.972500", "160757.222500", "160758.472500", "160759.722500", "160800.972500", "160802.222500", "160803.472500", "160804.722500", "160805.972500", "160807.222500", "160808.472500", "160809.722500", "160810.972500", "160812.222500", "160813.472500", "160814.722500", "160815.972500", "160817.222500", "160818.472500", "160819.722500", "160820.972500", "160822.222500", "160823.472500", "160824.722500", "160825.972500", "160827.222500", "160828.472500", "160829.722500", "160830.972500", "160832.222500", "160833.472500", "160834.722500", "160835.972500", "160837.222500", "160838.472500", "160839.722500", "160840.972500", "160842.222500", "160843.472500", "160844.722500", "160845.972500", "160847.222500", "160848.472500", "160849.722500", "160850.972500", "160852.222500", "160853.472500", "160854.722500", "160855.972500", "160857.222500", "160858.472500", "160859.722500", "160900.972500", "160902.222500", "160903.472500", "160904.722500", "160905.972500", "160907.222500", "160908.472500", "160909.722500", "160910.972500", "160912.222500", "160913.472500", "160914.722500", "160915.972500", "160917.222500", "160918.472500", "160919.722500", "160920.972500", "160922.222500", "160923.472500", "160924.722500", "160925.972500", "160927.222500", "160928.472500", "160929.722500", "160930.972500", "160932.222500", "160933.472500", "160934.722500", "160935.972500", "160937.222500", "160938.472500", "160939.722500", "160940.972500", "160942.222500", "160943.472500", "160944.722500", "160945.972500", "160947.222500", "160948.472500", "160949.722500", "160950.972500", "160952.222500", "160953.472500", "160954.722500", "160955.972500", "160957.222500", "160958.472500", "160959.722500", "161000.972500", "161002.222500", "161003.472500", "161004.722500", "161005.972500", "161007.222500", "161008.472500", "161009.722500", "161010.972500", "161012.222500", "161013.472500", "161014.722500", "161015.972500", "161017.222500", "161018.472500", "161019.722500", "161020.972500", "161022.222500", "161023.472500", "161024.722500", "161025.972500", "161027.222500", "161028.472500", "161029.722500", "161030.972500", "161032.222500", "161033.472500", "161034.722500", "161035.972500", "161037.222500", "161038.472500", "161039.722500", "161040.972500", "161042.222500", "161043.472500", "161044.722500", "161045.972500", "161047.222500", "161048.472500", "161049.722500", "161050.972500", "161052.222500", "161053.472500", "161054.722500", "161055.972500", "161057.222500", "161058.472500", "161059.722500", "161100.972500", "161102.222500", "161103.472500", "161104.722500", "161105.972500", "161107.222500", "161108.472500", "161109.722500", "161110.972500", "161112.222500", "161113.472500", "161114.722500", "161115.972500", "161117.222500", "161118.472500", "161119.722500", "161120.972500", "161122.222500", "161123.472500", "161124.722500", "161125.972500", "161127.222500", "161128.472500", "161129.722500", "161130.972500", "161132.222500", "161133.472500", "161134.722500", "161135.972500", "161137.222500", "161138.472500", "161139.722500", "161140.972500", "161142.222500", "161143.472500", "161144.722500", "161145.972500", "161147.222500", "161148.472500", "161149.722500", "161150.972500", "161152.222500", "161153.472500", "161154.722500", "161155.972500", "161157.222500", "161158.472500", "161159.722500", "161200.972500", "161202.222500", "161203.472500", "161204.722500", "161205.972500", "161207.222500", "161208.472500", "161209.722500", "161210.972500", "161212.222500", "161213.472500", "161214.722500", "161215.972500", "161217.222500", "161218.472500", "161219.722500", "161220.972500", "161222.222500", "161223.472500", "161224.722500", "161225.972500", "161227.222500", "161228.472500", "161229.722500", "161230.972500", "161232.222500", "161233.472500", "161234.722500", "161235.972500", "161237.222500", "161238.472500", "161239.722500", "161240.972500", "161242.222500", "161243.472500", "161244.722500", "161245.972500", "161247.222500", "161248.472500", "161249.722500", "161250.972500", "161252.222500", "161253.472500", "161254.722500", "161255.972500", "161257.222500", "161258.472500", "161259.722500"],
      "ContentTime": ["160615.856000", "160616.933000", "160618.179000", "160619.416000", "160620.710000", "160621.947000", "160623.167000", "160624.462000", "160625.674000", "160626.922000", "160628.164000", "160629.444000", "160630.673000", "160631.948000", "160633.185000", "160634.449000", "160635.694000", "160636.934000", "160638.176000", "160639.432000", "160640.663000", "160641.927000", "160643.202000", "160644.450000", "160645.678000", "160646.923000", "160648.230000", "160649.439000", "160650.695000", "160651.915000", "160653.199000", "160654.435000", "160655.677000", "160656.944000", "160658.194000", "160659.469000", "160700.688000", "160701.965000", "160703.203000", "160704.447000", "160705.695000", "160706.928000", "160708.247000", "160709.426000", "160710.674000", "160711.909000", "160713.159000", "160714.416000", "160715.685000", "160716.940000", "160718.201000", "160719.443000", "160720.674000", "160721.921000", "160723.194000", "160724.442000", "160725.680000", "160726.931000", "160728.213000", "160729.407000", "160730.682000", "160731.926000", "160733.189000", "160734.437000", "160735.657000", "160736.986000", "160738.165000", "160739.430000", "160740.681000", "160741.920000", "160743.190000", "160744.421000", "160745.674000", "160746.956000", "160748.191000", "160749.441000", "160750.723000", "160751.948000", "160753.166000", "160754.458000", "160755.746000", "160756.934000", "160758.157000", "160759.456000", "160800.696000", "160801.908000", "160803.171000", "160804.421000", "160805.664000", "160806.945000", "160808.196000", "160809.433000", "160810.722000", "160811.915000", "160813.181000", "160814.520000", "160815.671000", "160816.936000", "160818.168000", "160819.440000", "160820.681000", "160821.982000", "160823.197000", "160824.429000", "160825.669000", "160826.957000", "160828.193000", "160829.404000", "160830.675000", "160831.941000", "160833.235000", "160834.463000", "160835.696000", "160836.982000", "160838.186000", "160839.418000", "160840.689000", "160841.946000", "160843.202000", "160844.451000", "160845.696000", "160846.948000", "160848.183000", "160849.435000", "160850.682000", "160851.921000", "160853.185000", "160854.455000", "160855.694000", "160856.960000", "160858.221000", "160859.451000", "160900.679000", "160901.925000", "160903.213000", "160904.447000", "160905.679000", "160906.924000", "160908.189000", "160909.448000", "160910.723000", "160911.968000", "160913.191000", "160914.476000", "160915.682000", "160916.926000", "160918.220000", "160919.439000", "160920.685000", "160921.933000", "160923.179000", "160924.450000", "160925.693000", "160926.896000", "160928.192000", "160929.480000", "160930.690000", "160931.920000", "160933.192000", "160934.452000", "160935.687000", "160936.938000", "160938.169000", "160939.484000", "160940.729000", "160941.915000", "160943.210000", "160944.441000", "160945.657000", "160946.933000", "160948.153000", "160949.479000", "160950.698000", "160951.958000", "160953.191000", "160954.462000", "160955.666000", "160956.963000", "160958.207000", "160959.449000", "161000.658000", "161001.935000", "161003.173000", "161004.456000", "161005.692000", "161006.927000", "161008.204000", "161009.429000", "161010.733000", "161011.942000", "161013.132000", "161014.465000", "161015.706000", "161016.958000", "161018.192000", "161019.484000", "161020.704000", "161021.941000", "161023.206000", "161024.403000", "161025.703000", "161026.954000", "161028.185000", "161029.426000", "161030.665000", "161031.918000", "161033.223000", "161034.441000", "161035.696000", "161036.922000", "161038.218000", "161039.444000", "161040.692000", "161041.932000", "161043.193000", "161044.459000", "161045.695000", "161046.918000", "161048.206000", "161049.459000", "161050.733000", "161051.915000", "161053.163000", "161054.478000", "161055.688000", "161056.966000", "161058.192000", "161059.420000", "161100.677000", "161101.943000", "161103.200000", "161104.420000", "161105.707000", "161106.960000", "161108.196000", "161109.444000", "161110.680000", "161111.954000", "161113.202000", "161114.452000", "161115.734000", "161116.949000", "161118.197000", "161119.431000", "161120.731000", "161121.948000", "161123.167000", "161124.439000", "161125.677000", "161126.967000", "161128.193000", "161129.438000", "161130.697000", "161131.938000", "161133.195000", "161134.455000", "161135.671000", "161136.954000", "161138.221000", "161139.437000", "161140.679000", "161141.985000", "161143.183000", "161144.456000", "161145.689000", "161146.940000", "161148.157000", "161149.482000", "161150.698000", "161151.933000", "161153.204000", "161154.414000", "161155.682000", "161156.949000", "161158.162000", "161159.468000", "161200.678000", "161201.951000", "161203.180000", "161204.417000", "161205.678000", "161206.969000", "161208.188000", "161209.419000", "161210.682000", "161211.935000", "161213.219000", "161214.434000", "161215.679000", "161216.947000", "161218.192000", "161219.493000", "161220.668000", "161221.958000", "161223.202000", "161224.443000", "161225.714000", "161226.948000", "161228.177000", "161229.492000", "161230.697000", "161231.977000", "161233.231000", "161234.491000", "161235.675000", "161236.929000", "161238.159000", "161239.428000", "161240.682000", "161241.968000", "161243.166000", "161244.427000", "161245.693000", "161246.953000", "161248.199000", "161249.440000", "161250.685000", "161251.909000", "161253.186000", "161254.430000", "161255.691000", "161256.922000", "161258.186000", "161259.410000", "161300.752000"],
      "InstanceCreationTime": ["160615.856000", "160616.933000", "160618.179000", "160619.416000", "160620.710000", "160621.947000", "160623.167000", "160624.462000", "160625.674000", "160626.922000", "160628.164000", "160629.444000", "160630.673000", "160631.948000", "160633.185000", "160634.449000", "160635.694000", "160636.934000", "160638.176000", "160639.432000", "160640.663000", "160641.927000", "160643.202000", "160644.450000", "160645.678000", "160646.923000", "160648.230000", "160649.439000", "160650.695000", "160651.915000", "160653.199000", "160654.435000", "160655.677000", "160656.944000", "160658.194000", "160659.469000", "160700.688000", "160701.965000", "160703.203000", "160704.447000", "160705.695000", "160706.928000", "160708.247000", "160709.426000", "160710.674000", "160711.909000", "160713.159000", "160714.416000", "160715.685000", "160716.940000", "160718.201000", "160719.443000", "160720.674000", "160721.921000", "160723.194000", "160724.442000", "160725.680000", "160726.931000", "160728.213000", "160729.407000", "160730.682000", "160731.926000", "160733.189000", "160734.437000", "160735.657000", "160736.986000", "160738.165000", "160739.430000", "160740.681000", "160741.920000", "160743.190000", "160744.421000", "160745.674000", "160746.956000", "160748.191000", "160749.441000", "160750.723000", "160751.948000", "160753.166000", "160754.458000", "160755.746000", "160756.934000", "160758.157000", "160759.456000", "160800.696000", "160801.908000", "160803.171000", "160804.421000", "160805.664000", "160806.945000", "160808.196000", "160809.433000", "160810.722000", "160811.915000", "160813.181000", "160814.520000", "160815.671000", "160816.936000", "160818.168000", "160819.440000", "160820.681000", "160821.982000", "160823.197000", "160824.429000", "160825.669000", "160826.957000", "160828.193000", "160829.404000", "160830.675000", "160831.941000", "160833.235000", "160834.463000", "160835.696000", "160836.982000", "160838.186000", "160839.418000", "160840.689000", "160841.946000", "160843.202000", "160844.451000", "160845.696000", "160846.948000", "160848.183000", "160849.435000", "160850.682000", "160851.921000", "160853.185000", "160854.455000", "160855.694000", "160856.960000", "160858.221000", "160859.451000", "160900.679000", "160901.925000", "160903.213000", "160904.447000", "160905.679000", "160906.924000", "160908.189000", "160909.448000", "160910.723000", "160911.968000", "160913.191000", "160914.476000", "160915.682000", "160916.926000", "160918.220000", "160919.439000", "160920.685000", "160921.933000", "160923.179000", "160924.450000", "160925.693000", "160926.896000", "160928.192000", "160929.480000", "160930.690000", "160931.920000", "160933.192000", "160934.452000", "160935.687000", "160936.938000", "160938.169000", "160939.484000", "160940.729000", "160941.915000", "160943.210000", "160944.441000", "160945.657000", "160946.933000", "160948.153000", "160949.479000", "160950.698000", "160951.958000", "160953.191000", "160954.462000", "160955.666000", "160956.963000", "160958.207000", "160959.449000", "161000.658000", "161001.935000", "161003.173000", "161004.456000", "161005.692000", "161006.927000", "161008.204000", "161009.429000", "161010.733000", "161011.942000", "161013.132000", "161014.465000", "161015.706000", "161016.958000", "161018.192000", "161019.484000", "161020.704000", "161021.941000", "161023.206000", "161024.403000", "161025.703000", "161026.954000", "161028.185000", "161029.426000", "161030.665000", "161031.918000", "161033.223000", "161034.441000", "161035.696000", "161036.922000", "161038.218000", "161039.444000", "161040.692000", "161041.932000", "161043.193000", "161044.459000", "161045.695000", "161046.918000", "161048.206000", "161049.459000", "161050.733000", "161051.915000", "161053.163000", "161054.478000", "161055.688000", "161056.966000", "161058.192000", "161059.420000", "161100.677000", "161101.943000", "161103.200000", "161104.420000", "161105.707000", "161106.960000", "161108.196000", "161109.444000", "161110.680000", "161111.954000", "161113.202000", "161114.452000", "161115.734000", "161116.949000", "161118.197000", "161119.431000", "161120.731000", "161121.948000", "161123.167000", "161124.439000", "161125.677000", "161126.967000", "161128.193000", "161129.438000", "161130.697000", "161131.938000", "161133.195000", "161134.455000", "161135.671000", "161136.954000", "161138.221000", "161139.437000", "161140.679000", "161141.985000", "161143.183000", "161144.456000", "161145.689000", "161146.940000", "161148.157000", "161149.482000", "161150.698000", "161151.933000", "161153.204000", "161154.414000", "161155.682000", "161156.949000", "161158.162000", "161159.468000", "161200.678000", "161201.951000", "161203.180000", "161204.417000", "161205.678000", "161206.969000", "161208.188000", "161209.419000", "161210.682000", "161211.935000", "161213.219000", "161214.434000", "161215.679000", "161216.947000", "161218.192000", "161219.493000", "161220.668000", "161221.958000", "161223.202000", "161224.443000", "161225.714000", "161226.948000", "161228.177000", "161229.492000", "161230.697000", "161231.977000", "161233.231000", "161234.491000", "161235.675000", "161236.929000", "161238.159000", "161239.428000", "161240.682000", "161241.968000", "161243.166000", "161244.427000", "161245.693000", "161246.953000", "161248.199000", "161249.440000", "161250.685000", "161251.909000", "161253.186000", "161254.430000", "161255.691000", "161256.922000", "161258.186000", "161259.410000", "161300.752000"],
      "InstanceNumber": [1, 2, 3, 4, 5, 6, 7, 8, 9, 10, 11, 12, 13, 14, 15, 16, 17, 18, 19, 20, 21, 22, 23, 24, 25, 26, 27, 28, 29, 30, 31, 32, 33, 34, 35, 36, 37, 38, 39, 40, 41, 42, 43, 44, 45, 46, 47, 48, 49, 50, 51, 52, 53, 54, 55, 56, 57, 58, 59, 60, 61, 62, 63, 64, 65, 66, 67, 68, 69, 70, 71, 72, 73, 74, 75, 76, 77, 78, 79, 80, 81, 82, 83, 84, 85, 86, 87, 88, 89, 90, 91, 92, 93, 94, 95, 96, 97, 98, 99, 100, 101, 102, 103, 104, 105, 106, 107, 108, 109, 110, 111, 112, 113, 114, 115, 116, 117, 118, 119, 120, 121, 122, 123, 124, 125, 126, 127, 128, 129, 130, 131, 132, 133, 134, 135, 136, 137, 138, 139, 140, 141, 142, 143, 144, 145, 146, 147, 148, 149, 150, 151, 152, 153, 154, 155, 156, 157, 158, 159, 160, 161, 162, 163, 164, 165, 166, 167, 168, 169, 170, 171, 172, 173, 174, 175, 176, 177, 178, 179, 180, 181, 182, 183, 184, 185, 186, 187, 188, 189, 190, 191, 192, 193, 194, 195, 196, 197, 198, 199, 200, 201, 202, 203, 204, 205, 206, 207, 208, 209, 210, 211, 212, 213, 214, 215, 216, 217, 218, 219, 220, 221, 222, 223, 224, 225, 226, 227, 228, 229, 230, 231, 232, 233, 234, 235, 236, 237, 238, 239, 240, 241, 242, 243, 244, 245, 246, 247, 248, 249, 250, 251, 252, 253, 254, 255, 256, 257, 258, 259, 260, 261, 262, 263, 264, 265, 266, 267, 268, 269, 270, 271, 272, 273, 274, 275, 276, 277, 278, 279, 280, 281, 282, 283, 284, 285, 286, 287, 288, 289, 290, 291, 292, 293, 294, 295, 296, 297, 298, 299, 300, 301, 302, 303, 304, 305, 306, 307, 308, 309, 310, 311, 312, 313, 314, 315, 316, 317, 318, 319, 320, 321, 322, 323, 324, 325],
      "LargestImagePixelValue": [842, 1396, 1046, 1261, 1252, 1423, 1087, 1053, 1476, 1073, 924, 1056, 1174, 1008, 903, 1049, 875, 1352, 959, 1477, 1288, 1008, 1418, 1471, 1052, 1308, 1148, 1471, 1087, 1118, 1027, 749, 1008, 1017, 1363, 986, 1358, 1352, 1112, 1340, 1094, 879, 1290, 974, 1357, 1033, 1398, 1160, 1344, 983, 824, 1355, 805, 1330, 967, 1325, 960, 1524, 956, 1267, 1233, 1525, 1323, 930, 1359, 968, 1092, 938, 836, 1309, 994, 1417, 1384, 961, 807, 1341, 957, 1406, 1558, 1397, 1233, 1102, 1217, 917, 1343, 1404, 1194, 1199, 1008, 1135, 1061, 869, 1421, 1236, 1148, 1179, 1383, 1364, 1056, 1109, 875, 1390, 1283, 1096, 1361, 1042, 1286, 1319, 989, 912, 891, 1408, 1110, 1490, 1025, 879, 1363, 1119, 878, 1333, 1055, 837, 1121, 1418, 1248, 983, 1379, 986, 958, 1171, 895, 782, 1314, 1465, 1243, 1296, 1285, 1023, 1195, 1057, 1490, 1138, 1006, 1340, 1052, 913, 1203, 1101, 1336, 956, 1068, 1075, 1494, 1244, 978, 1438, 995, 1457, 1023, 1451, 1140, 874, 1333, 1160, 1351, 974, 1331, 999, 857, 1348, 991, 1529, 902, 1350, 1006, 842, 1305, 1129, 1282, 1105, 1489, 1357, 884, 1300, 1046, 1013, 1045, 1371, 1185, 807, 1320, 1046, 1349, 967, 1533, 952, 1100, 1370, 999, 1429, 1275, 881, 1455, 999, 1127, 1004, 762, 1324, 916, 1440, 944, 1384, 989, 1365, 983, 1436, 1280, 984, 1434, 1008, 1280, 1367, 1329, 802, 1304, 955, 1029, 981, 1260, 1110, 1240, 1246, 821, 1342, 1032, 1272, 1463, 1073, 1513, 1123, 979, 1183, 903, 1311, 926, 1311, 886, 1498, 876, 1294, 976, 1224, 972, 1502, 1059, 1067, 1146, 1341, 1322, 1002, 1442, 1149, 1331, 842, 1182, 883, 1217, 1003, 1420, 857, 1334, 986, 1505, 1082, 1427, 1502, 1012, 1407, 1036, 881, 1178, 1290, 1122, 813, 1167, 1151, 1115, 998, 1131, 1514, 992, 1188, 1097, 822, 1301, 1483, 1327, 1031, 1164, 1545, 1116, 1136, 1154, 1017, 1183, 1172, 1106, 1239, 1110, 1526, 1105, 1241, 1251, 1301, 1325, 921, 1457, 974, 1290, 978, 1406, 958, 910, 1408, 937],
      "WindowCenter": [391.0, 394.0, 391.0, 392.0, 392.0, 393.0, 391.0, 391.0, 393.0, 390.0, 389.0, 390.0, 392.0, 390.0, 389.0, 391.0, 390.0, 394.0, 392.0, 395.0, 393.0, 391.0, 394.0, 394.0, 390.0, 392.0, 390.0, 391.0, 388.0, 389.0, 388.0, 386.0, 390.0, 391.0, 394.0, 391.0, 393.0, 391.0, 390.0, 391.0, 389.0, 388.0, 392.0, 390.0, 392.0, 389.0, 391.0, 389.0, 390.0, 388.0, 386.0, 391.0, 388.0, 392.0, 389.0, 392.0, 390.0, 393.0, 390.0, 392.0, 392.0, 393.0, 392.0, 389.0, 391.0, 389.0, 390.0, 390.0, 390.0, 393.0, 392.0, 394.0, 393.0, 390.0, 390.0, 394.0, 391.0, 394.0, 395.0, 393.0, 393.0, 392.0, 392.0, 390.0, 393.0, 393.0, 392.0, 393.0, 391.0, 392.0, 391.0, 390.0, 394.0, 393.0, 393.0, 393.0, 393.0, 393.0, 391.0, 391.0, 390.0, 393.0, 391.0, 390.0, 392.0, 390.0, 392.0, 391.0, 390.0, 390.0, 392.0, 395.0, 392.0, 394.0, 391.0, 390.0, 393.0, 392.0, 390.0, 392.0, 389.0, 388.0, 390.0, 392.0, 392.0, 390.0, 392.0, 390.0, 389.0, 391.0, 391.0, 391.0, 394.0, 394.0, 393.0, 392.0, 393.0, 391.0, 392.0, 391.0, 394.0, 391.0, 390.0, 392.0, 390.0, 390.0, 392.0, 391.0, 393.0, 391.0, 393.0, 393.0, 395.0, 393.0, 391.0, 394.0, 391.0, 394.0, 391.0, 393.0, 391.0, 390.0, 392.0, 391.0, 392.0, 390.0, 392.0, 390.0, 390.0, 393.0, 391.0, 394.0, 390.0, 393.0, 390.0, 390.0, 393.0, 392.0, 393.0, 392.0, 394.0, 392.0, 389.0, 392.0, 390.0, 390.0, 391.0, 392.0, 391.0, 389.0, 392.0, 390.0, 392.0, 390.0, 393.0, 390.0, 391.0, 393.0, 390.0, 392.0, 392.0, 389.0, 392.0, 389.0, 390.0, 390.0, 389.0, 394.0, 391.0, 394.0, 390.0, 393.0, 390.0, 393.0, 390.0, 393.0, 392.0, 391.0, 393.0, 390.0, 391.0, 391.0, 390.0, 387.0, 391.0, 389.0, 390.0, 390.0, 392.0, 391.0, 392.0, 392.0, 389.0, 393.0, 391.0, 393.0, 393.0, 391.0, 393.0, 390.0, 389.0, 391.0, 389.0, 392.0, 390.0, 393.0, 389.0, 393.0, 389.0, 392.0, 391.0, 393.0, 391.0, 394.0, 391.0, 391.0, 391.0, 392.0, 392.0, 390.0, 392.0, 390.0, 391.0, 388.0, 390.0, 389.0, 392.0, 391.0, 393.0, 390.0, 393.0, 391.0, 393.0, 391.0, 393.0, 392.0, 389.0, 392.0, 389.0, 388.0, 391.0, 391.0, 390.0, 388.0, 391.0, 392.0, 392.0, 391.0, 392.0, 394.0, 390.0, 392.0, 392.0, 389.0, 392.0, 393.0, 392.0, 390.0, 391.0, 393.0, 391.0, 391.0, 390.0, 390.0, 391.0, 392.0, 391.0, 392.0, 391.0, 393.0, 391.0, 392.0, 392.0, 391.0, 392.0, 390.0, 393.0, 390.0, 392.0, 390.0, 392.0, 390.0, 390.0, 393.0, 390.0],
