{
  "AcquisitionMatrixPE": 96,
  "AcquisitionNumber": 1,
  "AcquisitionTime": "16:13:31.545000",
  "BandwidthPerPixelPhaseEncode": 18.939,
  "BaseResolution": 96,
  "BodyPartExamined": "BRAIN",
  "ConsistencyInfo": "N4_VE11C_LATEST_20160120",
  "ConversionSoftware": "dcm2niix",
  "ConversionSoftwareVersion": "v1.0.20170923 (OpenJPEG build) GCC6.3.0",
  "DerivedVendorReportedEchoSpacing": 0.000550011,
  "DeviceSerialNumber": "66112",
  "DwellTime": 2.3e-06,
  "EchoTime": 0.033,
  "EchoTrainLength": 96,
  "EffectiveEchoSpacing": 0.000550011,
  "FlipAngle": 64,
  "ImageType": [
    "ORIGINAL",
    "PRIMARY",
    "FMRI",
    "NONE",
    "ND",
    "NORM",
    "MOSAIC"
],
  "InstitutionAddress": "Maynard_3_Hanover_NH_US_03755",
  "InstitutionName": "Dartmouth_College_-_PBS",
  "MagneticFieldStrength": 3,
  "Manufacturer": "Siemens",
  "ManufacturersModelName": "Prisma",
  "Modality": "MR",
  "MultibandAccelerationFactor": 4,
  "PartialFourier": 1,
  "PercentPhaseFOV": 100,
  "PhaseEncodingDirection": "j-",
  "PhaseEncodingSteps": 96,
  "PhaseResolution": 1,
  "ProcedureStepDescription": "Gobbini_Matteo_1017_famface-angles",
  "ProtocolName": "func_run-07_task-str1back",
  "PulseSequenceDetails": "%SiemensSeq%_ep2d_bold",
  "ReceiveCoilActiveElements": "HEA;HEP",
  "ReceiveCoilName": "Head_32",
  "ReconMatrixPE": 96,
  "RepetitionTime": 1.25,
  "ScanOptions": "FS",
  "ScanningSequence": "EP",
  "SequenceName": "_epfid2d1_96",
  "SequenceVariant": "SK",
  "SeriesDescription": "func_run-07_task-str1back",
  "SliceTiming": [0.88, 0, 0.615, 0.0875, 0.7025, 0.1775, 0.7925, 0.3525, 0.9675, 0.44, 1.055, 0.5275, 1.1425, 0.265, 0.88, 0, 0.615, 0.0875, 0.7025, 0.1775, 0.7925, 0.3525, 0.9675, 0.44, 1.055, 0.5275, 1.1425, 0.265, 0.88, 0, 0.615, 0.0875, 0.7025, 0.1775, 0.7925, 0.3525, 0.9675, 0.44, 1.055, 0.5275, 1.1425, 0.265, 0.88, 0, 0.615, 0.0875, 0.7025, 0.1775, 0.7925, 0.3525, 0.9675, 0.44, 1.055, 0.5275, 1.1425, 0.265],
  "SoftwareVersions": "syngo_MR_E11",
  "StationName": "AWP66112",
  "TaskName": "str1back",
  "TotalReadoutTime": 0.0522511,
  "dcmmeta_affine": [
    [-2.4999420642852783, 0.008290061727166176, -0.014884415082633495, 123.82583618164062],
    [0.009952063672244549, 2.4832870960235596, -0.28842103481292725, -86.02306365966797],
    [-0.013828498311340809, 0.28847357630729675, 2.483262300491333, -81.70022583007812],
    [0.0, 0.0, 0.0, 1.0]
],
  "dcmmeta_reorient_transform": [
    [0.0, -1.0, 0.0, 95.0],
    [1.0, 0.0, 0.0, 0.0],
    [0.0, 0.0, 1.0, 0.0],
    [0.0, 0.0, 0.0, 1.0]
],
  "dcmmeta_shape": [96, 96, 56, 280],
  "dcmmeta_slice_dim": 2,
  "dcmmeta_version": 0.6,
  "global": {
    "const": {
      "AccessionNumber": "A000457",
      "AcquisitionMatrix": [96, 0, 0, 96],
      "AngioFlag": "N",
      "BitsAllocated": 16,
      "BitsStored": 12,
      "BodyPartExamined": "BRAIN",
      "Columns": 768,
      "EchoNumbers": 1,
      "EchoTime": 33.0,
      "EchoTrainLength": 96,
      "FlipAngle": 64.0,
      "HighBit": 11,
      "ImageOrientationPatient": [0.99997677805618, -0.0039808254013, -0.0055313992362, 0.00331602474293, 0.99331479521049, -0.115389434507],
      "ImagePositionPatient": [-967.37934573018, -980.92973562007, 47.278267666432],
      "ImageType": [
        "ORIGINAL",
        "PRIMARY",
        "FMRI",
        "NONE",
        "ND",
        "NORM",
        "MOSAIC"
],
      "ImagedNucleus": "1H",
      "ImagingFrequency": 123.252371,
      "InPlanePhaseEncodingDirection": "COL",
      "MRAcquisitionType": "2D",
      "MagneticFieldStrength": 3.0,
      "Manufacturer": "SIEMENS",
      "ManufacturerModelName": "Prisma",
      "Modality": "MR",
      "NumberOfAverages": 1.0,
      "NumberOfPhaseEncodingSteps": 96,
      "PercentPhaseFieldOfView": 100.0,
      "PercentSampling": 100.0,
      "PerformedProcedureStepStartTime": "152148.325000",
      "PhotometricInterpretation": "MONOCHROME2",
      "PixelBandwidth": 2265.0,
      "PixelRepresentation": 0,
      "PixelSpacing": [2.5, 2.5],
      "PositionReferenceIndicator": "",
      "ProtocolName": "func_run-07_task-str1back",
      "RepetitionTime": 1250.0,
      "Rows": 768,
      "SAR": 0.06135301516132,
      "SamplesPerPixel": 1,
      "ScanOptions": "FS",
      "ScanningSequence": "EP",
      "SequenceName": "*epfid2d1_96",
      "SequenceVariant": "SK",
      "SeriesDescription": "func_run-07_task-str1back",
      "SeriesNumber": 53,
      "SeriesTime": "161332.638000",
      "SliceLocation": -71.966120396205,
      "SliceThickness": 2.5,
      "SmallestImagePixelValue": 0,
      "SoftwareVersions": "syngo MR E11",
      "SpacingBetweenSlices": 2.5000000332155,
      "SpecificCharacterSet": "ISO_IR 100",
      "StudyID": "1",
      "StudyTime": "152148.263000",
      "TransmitCoilName": "Body",
      "VariableFlipAngleFlag": "N",
      "WindowCenterWidthExplanation": "Algo1",
      "dBdt": 0.0},
    "slices": {}
  },
  "time": {
    "samples": {
      "AcquisitionNumber": [1, 2, 3, 4, 5, 6, 7, 8, 9, 10, 11, 12, 13, 14, 15, 16, 17, 18, 19, 20, 21, 22, 23, 24, 25, 26, 27, 28, 29, 30, 31, 32, 33, 34, 35, 36, 37, 38, 39, 40, 41, 42, 43, 44, 45, 46, 47, 48, 49, 50, 51, 52, 53, 54, 55, 56, 57, 58, 59, 60, 61, 62, 63, 64, 65, 66, 67, 68, 69, 70, 71, 72, 73, 74, 75, 76, 77, 78, 79, 80, 81, 82, 83, 84, 85, 86, 87, 88, 89, 90, 91, 92, 93, 94, 95, 96, 97, 98, 99, 100, 101, 102, 103, 104, 105, 106, 107, 108, 109, 110, 111, 112, 113, 114, 115, 116, 117, 118, 119, 120, 121, 122, 123, 124, 125, 126, 127, 128, 129, 130, 131, 132, 133, 134, 135, 136, 137, 138, 139, 140, 141, 142, 143, 144, 145, 146, 147, 148, 149, 150, 151, 152, 153, 154, 155, 156, 157, 158, 159, 160, 161, 162, 163, 164, 165, 166, 167, 168, 169, 170, 171, 172, 173, 174, 175, 176, 177, 178, 179, 180, 181, 182, 183, 184, 185, 186, 187, 188, 189, 190, 191, 192, 193, 194, 195, 196, 197, 198, 199, 200, 201, 202, 203, 204, 205, 206, 207, 208, 209, 210, 211, 212, 213, 214, 215, 216, 217, 218, 219, 220, 221, 222, 223, 224, 225, 226, 227, 228, 229, 230, 231, 232, 233, 234, 235, 236, 237, 238, 239, 240, 241, 242, 243, 244, 245, 246, 247, 248, 249, 250, 251, 252, 253, 254, 255, 256, 257, 258, 259, 260, 261, 262, 263, 264, 265, 266, 267, 268, 269, 270, 271, 272, 273, 274, 275, 276, 277, 278, 279, 280],
      "AcquisitionTime": ["161331.545000", "161332.795000", "161334.045000", "161335.295000", "161336.545000", "161337.795000", "161339.045000", "161340.295000", "161341.545000", "161342.795000", "161344.045000", "161345.295000", "161346.545000", "161347.795000", "161349.045000", "161350.295000", "161351.545000", "161352.795000", "161354.045000", "161355.295000", "161356.545000", "161357.795000", "161359.045000", "161400.295000", "161401.545000", "161402.795000", "161404.045000", "161405.295000", "161406.545000", "161407.795000", "161409.045000", "161410.295000", "161411.545000", "161412.795000", "161414.045000", "161415.295000", "161416.545000", "161417.795000", "161419.045000", "161420.295000", "161421.545000", "161422.795000", "161424.045000", "161425.295000", "161426.545000", "161427.795000", "161429.045000", "161430.295000", "161431.545000", "161432.795000", "161434.045000", "161435.295000", "161436.545000", "161437.795000", "161439.045000", "161440.295000", "161441.545000", "161442.795000", "161444.045000", "161445.295000", "161446.545000", "161447.795000", "161449.045000", "161450.295000", "161451.545000", "161452.795000", "161454.045000", "161455.295000", "161456.545000", "161457.795000", "161459.045000", "161500.295000", "161501.545000", "161502.795000", "161504.045000", "161505.295000", "161506.545000", "161507.795000", "161509.045000", "161510.295000", "161511.545000", "161512.795000", "161514.045000", "161515.295000", "161516.545000", "161517.795000", "161519.045000", "161520.295000", "161521.545000", "161522.795000", "161524.045000", "161525.295000", "161526.545000", "161527.795000", "161529.045000", "161530.295000", "161531.545000", "161532.795000", "161534.045000", "161535.295000", "161536.545000", "161537.795000", "161539.045000", "161540.295000", "161541.545000", "161542.795000", "161544.045000", "161545.295000", "161546.545000", "161547.795000", "161549.045000", "161550.295000", "161551.545000", "161552.795000", "161554.045000", "161555.295000", "161556.545000", "161557.795000", "161559.045000", "161600.295000", "161601.545000", "161602.795000", "161604.045000", "161605.295000", "161606.545000", "161607.795000", "161609.045000", "161610.295000", "161611.545000", "161612.795000", "161614.045000", "161615.295000", "161616.545000", "161617.795000", "161619.045000", "161620.295000", "161621.545000", "161622.795000", "161624.045000", "161625.295000", "161626.545000", "161627.795000", "161629.045000", "161630.295000", "161631.545000", "161632.795000", "161634.045000", "161635.295000", "161636.545000", "161637.795000", "161639.045000", "161640.295000", "161641.545000", "161642.795000", "161644.045000", "161645.295000", "161646.545000", "161647.795000", "161649.045000", "161650.295000", "161651.545000", "161652.795000", "161654.045000", "161655.295000", "161656.545000", "161657.795000", "161659.045000", "161700.295000", "161701.545000", "161702.795000", "161704.045000", "161705.295000", "161706.545000", "161707.795000", "161709.045000", "161710.295000", "161711.545000", "161712.795000", "161714.045000", "161715.295000", "161716.545000", "161717.795000", "161719.045000", "161720.295000", "161721.545000", "161722.795000", "161724.045000", "161725.295000", "161726.545000", "161727.795000", "161729.045000", "161730.295000", "161731.545000", "161732.795000", "161734.045000", "161735.295000", "161736.545000", "161737.795000", "161739.045000", "161740.295000", "161741.545000", "161742.795000", "161744.045000", "161745.295000", "161746.545000", "161747.795000", "161749.045000", "161750.295000", "161751.545000", "161752.795000", "161754.045000", "161755.295000", "161756.545000", "161757.795000", "161759.045000", "161800.295000", "161801.545000", "161802.795000", "161804.045000", "161805.295000", "161806.545000", "161807.795000", "161809.045000", "161810.295000", "161811.545000", "161812.795000", "161814.045000", "161815.295000", "161816.545000", "161817.795000", "161819.045000", "161820.295000", "161821.545000", "161822.795000", "161824.045000", "161825.295000", "161826.545000", "161827.795000", "161829.045000", "161830.295000", "161831.545000", "161832.795000", "161834.045000", "161835.295000", "161836.545000", "161837.795000", "161839.045000", "161840.295000", "161841.545000", "161842.795000", "161844.045000", "161845.295000", "161846.545000", "161847.795000", "161849.045000", "161850.295000", "161851.545000", "161852.795000", "161854.045000", "161855.295000", "161856.545000", "161857.795000", "161859.045000", "161900.295000", "161901.545000", "161902.795000", "161904.045000", "161905.295000", "161906.545000", "161907.795000", "161909.045000", "161910.295000", "161911.545000", "161912.795000", "161914.045000", "161915.295000", "161916.545000", "161917.795000", "161919.045000", "161920.295000"],
      "ContentTime": ["161332.642000", "161333.736000", "161334.962000", "161336.282000", "161337.507000", "161338.730000", "161339.997000", "161341.229000", "161342.474000", "161343.719000", "161344.982000", "161346.213000", "161347.450000", "161348.721000", "161349.939000", "161351.208000", "161352.460000", "161353.705000", "161354.991000", "161356.214000", "161357.448000", "161358.700000", "161359.958000", "161401.233000", "161402.503000", "161403.721000", "161404.957000", "161406.215000", "161407.475000", "161408.682000", "161409.946000", "161411.206000", "161412.476000", "161413.711000", "161414.945000", "161416.197000", "161417.449000", "161418.713000", "161420.019000", "161421.222000", "161422.475000", "161423.705000", "161424.953000", "161426.210000", "161427.504000", "161428.704000", "161429.969000", "161431.188000", "161432.462000", "161433.724000", "161434.952000", "161436.188000", "161437.454000", "161438.680000", "161439.972000", "161441.255000", "161442.434000", "161443.727000", "161444.962000", "161446.261000", "161447.471000", "161448.720000", "161449.958000", "161451.244000", "161452.470000", "161453.737000", "161454.969000", "161456.249000", "161457.492000", "161458.700000", "161459.982000", "161501.197000", "161502.533000", "161503.709000", "161504.972000", "161506.216000", "161507.477000", "161508.673000", "161509.953000", "161511.187000", "161512.455000", "161513.731000", "161514.981000", "161516.196000", "161517.424000", "161518.726000", "161519.998000", "161521.243000", "161522.464000", "161523.697000", "161524.985000", "161526.233000", "161527.461000", "161528.715000", "161529.952000", "161531.185000", "161532.452000", "161533.715000", "161535.002000", "161536.213000", "161537.486000", "161538.758000", "161539.981000", "161541.212000", "161542.462000", "161543.767000", "161544.969000", "161546.206000", "161547.448000", "161548.693000", "161550.003000", "161551.221000", "161552.501000", "161553.722000", "161554.967000", "161556.236000", "161557.497000", "161558.727000", "161559.972000", "161601.179000", "161602.441000", "161603.698000", "161604.959000", "161606.219000", "161607.475000", "161608.748000", "161609.994000", "161611.238000", "161612.457000", "161613.717000", "161614.979000", "161616.273000", "161617.478000", "161618.731000", "161619.990000", "161621.233000", "161622.464000", "161623.756000", "161625.022000", "161626.244000", "161627.488000", "161628.734000", "161629.990000", "161631.237000", "161632.499000", "161633.723000", "161634.972000", "161636.238000", "161637.469000", "161638.713000", "161639.980000", "161641.211000", "161642.498000", "161643.710000", "161644.935000", "161646.239000", "161647.466000", "161648.718000", "161649.974000", "161651.217000", "161652.473000", "161653.748000", "161654.968000", "161656.237000", "161657.453000", "161658.712000", "161659.966000", "161701.210000", "161702.475000", "161703.718000", "161704.968000", "161706.243000", "161707.455000", "161708.698000", "161710.001000", "161711.234000", "161712.490000", "161713.722000", "161714.951000", "161716.232000", "161717.450000", "161718.723000", "161719.945000", "161721.195000", "161722.495000", "161723.721000", "161725.037000", "161726.232000", "161727.467000", "161728.741000", "161729.977000", "161731.225000", "161732.463000", "161733.719000", "161734.997000", "161736.231000", "161737.481000", "161738.727000", "161739.989000", "161741.211000", "161742.501000", "161743.710000", "161745.071000", "161746.215000", "161747.452000", "161748.699000", "161749.964000", "161751.239000", "161752.545000", "161753.688000", "161755.008000", "161756.224000", "161757.478000", "161758.711000", "161759.958000", "161801.285000", "161802.487000", "161803.738000", "161804.997000", "161806.222000", "161807.497000", "161808.746000", "161809.971000", "161811.208000", "161812.466000", "161813.714000", "161814.992000", "161816.238000", "161817.452000", "161818.803000", "161819.956000", "161821.233000", "161822.490000", "161823.728000", "161824.985000", "161826.223000", "161827.492000", "161828.721000", "161829.949000", "161831.221000", "161832.497000", "161833.770000", "161834.972000", "161836.351000", "161837.478000", "161838.734000", "161840.022000", "161841.195000", "161842.509000", "161843.732000", "161844.956000", "161846.206000", "161847.467000", "161848.703000", "161849.975000", "161851.196000", "161852.509000", "161853.720000", "161854.956000", "161856.258000", "161857.460000", "161858.718000", "161900.019000", "161901.231000", "161902.500000", "161903.706000", "161904.998000", "161906.268000", "161907.480000", "161908.738000", "161909.928000", "161911.232000", "161912.475000", "161913.678000", "161915.009000", "161916.188000", "161917.506000", "161918.746000", "161919.959000", "161921.240000"],
      "InstanceCreationTime": ["161332.642000", "161333.736000", "161334.962000", "161336.282000", "161337.507000", "161338.730000", "161339.997000", "161341.229000", "161342.474000", "161343.719000", "161344.982000", "161346.213000", "161347.450000", "161348.721000", "161349.939000", "161351.208000", "161352.460000", "161353.705000", "161354.991000", "161356.214000", "161357.448000", "161358.700000", "161359.958000", "161401.233000", "161402.503000", "161403.721000", "161404.957000", "161406.215000", "161407.475000", "161408.682000", "161409.946000", "161411.206000", "161412.476000", "161413.711000", "161414.945000", "161416.197000", "161417.449000", "161418.713000", "161420.019000", "161421.222000", "161422.475000", "161423.705000", "161424.953000", "161426.210000", "161427.504000", "161428.704000", "161429.969000", "161431.188000", "161432.462000", "161433.724000", "161434.952000", "161436.188000", "161437.454000", "161438.680000", "161439.972000", "161441.255000", "161442.434000", "161443.727000", "161444.962000", "161446.261000", "161447.471000", "161448.720000", "161449.958000", "161451.244000", "161452.470000", "161453.737000", "161454.969000", "161456.249000", "161457.492000", "161458.700000", "161459.982000", "161501.197000", "161502.533000", "161503.709000", "161504.972000", "161506.216000", "161507.477000", "161508.673000", "161509.953000", "161511.187000", "161512.455000", "161513.731000", "161514.981000", "161516.196000", "161517.424000", "161518.726000", "161519.998000", "161521.243000", "161522.464000", "161523.697000", "161524.985000", "161526.233000", "161527.461000", "161528.715000", "161529.952000", "161531.185000", "161532.452000", "161533.715000", "161535.002000", "161536.213000", "161537.486000", "161538.758000", "161539.981000", "161541.212000", "161542.462000", "161543.767000", "161544.969000", "161546.206000", "161547.448000", "161548.693000", "161550.003000", "161551.221000", "161552.501000", "161553.722000", "161554.967000", "161556.236000", "161557.497000", "161558.727000", "161559.972000", "161601.179000", "161602.441000", "161603.698000", "161604.959000", "161606.219000", "161607.475000", "161608.748000", "161609.994000", "161611.238000", "161612.457000", "161613.717000", "161614.979000", "161616.273000", "161617.478000", "161618.731000", "161619.990000", "161621.233000", "161622.464000", "161623.756000", "161625.022000", "161626.244000", "161627.488000", "161628.734000", "161629.990000", "161631.237000", "161632.499000", "161633.723000", "161634.972000", "161636.238000", "161637.469000", "161638.713000", "161639.980000", "161641.211000", "161642.498000", "161643.710000", "161644.935000", "161646.239000", "161647.466000", "161648.718000", "161649.974000", "161651.217000", "161652.473000", "161653.748000", "161654.968000", "161656.237000", "161657.453000", "161658.712000", "161659.966000", "161701.210000", "161702.475000", "161703.718000", "161704.968000", "161706.243000", "161707.455000", "161708.698000", "161710.001000", "161711.234000", "161712.490000", "161713.722000", "161714.951000", "161716.232000", "161717.450000", "161718.723000", "161719.945000", "161721.195000", "161722.495000", "161723.721000", "161725.037000", "161726.232000", "161727.467000", "161728.741000", "161729.977000", "161731.225000", "161732.463000", "161733.719000", "161734.997000", "161736.231000", "161737.481000", "161738.727000", "161739.989000", "161741.211000", "161742.501000", "161743.710000", "161745.071000", "161746.215000", "161747.452000", "161748.699000", "161749.964000", "161751.239000", "161752.545000", "161753.688000", "161755.008000", "161756.224000", "161757.478000", "161758.711000", "161759.958000", "161801.285000", "161802.487000", "161803.738000", "161804.997000", "161806.222000", "161807.497000", "161808.746000", "161809.971000", "161811.208000", "161812.466000", "161813.714000", "161814.992000", "161816.238000", "161817.452000", "161818.803000", "161819.956000", "161821.233000", "161822.490000", "161823.728000", "161824.985000", "161826.223000", "161827.492000", "161828.721000", "161829.949000", "161831.221000", "161832.497000", "161833.770000", "161834.972000", "161836.351000", "161837.478000", "161838.734000", "161840.022000", "161841.195000", "161842.509000", "161843.732000", "161844.956000", "161846.206000", "161847.467000", "161848.703000", "161849.975000", "161851.196000", "161852.509000", "161853.720000", "161854.956000", "161856.258000", "161857.460000", "161858.718000", "161900.019000", "161901.231000", "161902.500000", "161903.706000", "161904.998000", "161906.268000", "161907.480000", "161908.738000", "161909.928000", "161911.232000", "161912.475000", "161913.678000", "161915.009000", "161916.188000", "161917.506000", "161918.746000", "161919.959000", "161921.240000"],
      "InstanceNumber": [1, 2, 3, 4, 5, 6, 7, 8, 9, 10, 11, 12, 13, 14, 15, 16, 17, 18, 19, 20, 21, 22, 23, 24, 25, 26, 27, 28, 29, 30, 31, 32, 33, 34, 35, 36, 37, 38, 39, 40, 41, 42, 43, 44, 45, 46, 47, 48, 49, 50, 51, 52, 53, 54, 55, 56, 57, 58, 59, 60, 61, 62, 63, 64, 65, 66, 67, 68, 69, 70, 71, 72, 73, 74, 75, 76, 77, 78, 79, 80, 81, 82, 83, 84, 85, 86, 87, 88, 89, 90, 91, 92, 93, 94, 95, 96, 97, 98, 99, 100, 101, 102, 103, 104, 105, 106, 107, 108, 109, 110, 111, 112, 113, 114, 115, 116, 117, 118, 119, 120, 121, 122, 123, 124, 125, 126, 127, 128, 129, 130, 131, 132, 133, 134, 135, 136, 137, 138, 139, 140, 141, 142, 143, 144, 145, 146, 147, 148, 149, 150, 151, 152, 153, 154, 155, 156, 157, 158, 159, 160, 161, 162, 163, 164, 165, 166, 167, 168, 169, 170, 171, 172, 173, 174, 175, 176, 177, 178, 179, 180, 181, 182, 183, 184, 185, 186, 187, 188, 189, 190, 191, 192, 193, 194, 195, 196, 197, 198, 199, 200, 201, 202, 203, 204, 205, 206, 207, 208, 209, 210, 211, 212, 213, 214, 215, 216, 217, 218, 219, 220, 221, 222, 223, 224, 225, 226, 227, 228, 229, 230, 231, 232, 233, 234, 235, 236, 237, 238, 239, 240, 241, 242, 243, 244, 245, 246, 247, 248, 249, 250, 251, 252, 253, 254, 255, 256, 257, 258, 259, 260, 261, 262, 263, 264, 265, 266, 267, 268, 269, 270, 271, 272, 273, 274, 275, 276, 277, 278, 279, 280],
      "LargestImagePixelValue": [1024, 1341, 814, 1368, 1520, 1069, 1027, 1258, 1522, 949, 1110, 991, 1452, 927, 1351, 970, 1323, 929, 1318, 1339, 1281, 989, 1273, 968, 1161, 843, 1344, 918, 1440, 1099, 1449, 1271, 1060, 1352, 1553, 1185, 845, 1389, 1303, 1259, 896, 1347, 1530, 1023, 836, 1311, 1446, 1381, 1188, 1044, 1300, 1253, 1050, 807, 1370, 1336, 908, 1328, 816, 1346, 917, 1309, 855, 1320, 1478, 1134, 1340, 973, 1314, 972, 1341, 981, 1306, 901, 1335, 889, 1336, 900, 1342, 970, 1323, 909, 1338, 972, 1308, 887, 1344, 896, 1361, 883, 1325, 956, 1303, 929, 1315, 1321, 1315, 1151, 1221, 1215, 955, 1442, 966, 1008, 1021, 1490, 882, 1330, 1363, 1199, 1335, 1045, 1452, 1133, 1201, 1095, 1347, 956, 1199, 1484, 956, 1307, 957, 1340, 835, 1351, 1238, 1365, 824, 1363, 904, 1391, 1116, 1345, 801, 1299, 1413, 1139, 1399, 985, 826, 1411, 860, 1397, 989, 1378, 1243, 1536, 1104, 803, 1396, 909, 1368, 1424, 1327, 1353, 861, 1293, 1367, 1156, 1307, 963, 1247, 959, 1320, 1099, 1385, 969, 1346, 1074, 1301, 974, 1431, 939, 1383, 963, 981, 1181, 1405, 1086, 796, 1389, 1183, 1380, 1166, 1278, 1307, 1344, 799, 1386, 898, 1366, 909, 1351, 1108, 1299, 1025, 1006, 1248, 1338, 1127, 1195, 1037, 1412, 961, 1123, 1044, 1459, 967, 1344, 1122, 1385, 933, 1050, 1271, 998, 1140, 1042, 1377, 911, 1104, 1006, 1417, 921, 1340, 984, 1330, 966, 1521, 878, 1313, 959, 1291, 959, 1310, 832, 1364, 1158, 1174, 1137, 1109, 1409, 1040, 1353, 889, 1338, 877, 1317, 950, 1304, 1127, 1166, 1409, 1036, 891, 1342, 1233, 1371, 909, 1346, 992, 1370, 976, 1353, 965, 853, 1341, 932, 1333, 981, 1444, 1005, 1411, 938, 944, 1175, 1488, 982, 1405, 999],
      "WindowCenter": [392.0, 393.0, 389.0, 392.0, 392.0, 389.0, 389.0, 391.0, 392.0, 388.0, 390.0, 390.0, 392.0, 389.0, 392.0, 390.0, 392.0, 389.0, 392.0, 391.0, 391.0, 389.0, 392.0, 389.0, 391.0, 389.0, 393.0, 391.0, 393.0, 391.0, 392.0, 390.0, 388.0, 389.0, 390.0, 388.0, 387.0, 391.0, 390.0, 390.0, 387.0, 391.0, 391.0, 388.0, 388.0, 392.0, 392.0, 392.0, 390.0, 389.0, 392.0, 391.0, 389.0, 388.0, 391.0, 390.0, 387.0, 389.0, 387.0, 391.0, 390.0, 392.0, 389.0, 392.0, 392.0, 390.0, 391.0, 388.0, 391.0, 389.0, 391.0, 389.0, 392.0, 388.0, 391.0, 388.0, 392.0, 388.0, 392.0, 390.0, 391.0, 388.0, 391.0, 390.0, 391.0, 388.0, 391.0, 388.0, 391.0, 388.0, 391.0, 390.0, 392.0, 389.0, 392.0, 391.0, 391.0, 390.0, 390.0, 390.0, 389.0, 392.0, 389.0, 390.0, 391.0, 393.0, 389.0, 392.0, 392.0, 391.0, 392.0, 389.0, 392.0, 390.0, 391.0, 390.0, 392.0, 389.0, 390.0, 391.0, 388.0, 390.0, 388.0, 391.0, 388.0, 391.0, 390.0, 391.0, 388.0, 392.0, 389.0, 392.0, 391.0, 392.0, 388.0, 391.0, 392.0, 390.0, 392.0, 389.0, 388.0, 393.0, 389.0, 393.0, 391.0, 392.0, 391.0, 391.0, 389.0, 387.0, 392.0, 389.0, 392.0, 392.0, 391.0, 391.0, 387.0, 390.0, 390.0, 389.0, 391.0, 389.0, 391.0, 390.0, 392.0, 390.0, 392.0, 389.0, 391.0, 389.0, 390.0, 389.0, 391.0, 388.0, 391.0, 388.0, 389.0, 390.0, 391.0, 390.0, 388.0, 393.0, 391.0, 392.0, 391.0, 391.0, 390.0, 391.0, 388.0, 392.0, 389.0, 392.0, 388.0, 391.0, 389.0, 391.0, 389.0, 389.0, 391.0, 392.0, 390.0, 390.0, 389.0, 392.0, 389.0, 391.0, 390.0, 392.0, 389.0, 392.0, 390.0, 391.0, 388.0, 390.0, 392.0, 390.0, 391.0, 390.0, 391.0, 388.0, 391.0, 390.0, 392.0, 390.0, 392.0, 390.0, 391.0, 389.0, 392.0, 388.0, 392.0, 389.0, 391.0, 389.0, 391.0, 388.0, 391.0, 390.0, 391.0, 391.0, 390.0, 392.0, 389.0, 391.0, 388.0, 391.0, 388.0, 392.0, 390.0, 391.0, 389.0, 390.0, 391.0, 389.0, 388.0, 392.0, 391.0, 392.0, 388.0, 391.0, 389.0, 392.0, 389.0, 392.0, 389.0, 389.0, 392.0, 389.0, 392.0, 389.0, 392.0, 389.0, 391.0, 389.0, 389.0, 391.0, 392.0, 389.0, 392.0, 389.0],
      "WindowWidth": [832.0, 832.0, 826.0, 830.0, 831.0, 826.0, 826.0, 829.0, 830.0, 825.0, 827.0, 827.0, 831.0, 826.0, 830.0, 827.0, 830.0, 827.0, 830.0, 829.0, 828.0, 827.0, 830.0, 827.0, 830.0, 827.0, 833.0, 829.0, 833.0, 829.0, 830.0, 828.0, 824.0, 826.0, 826.0, 824.0, 822.0, 828.0, 827.0, 828.0, 824.0, 828.0, 829.0, 825.0, 824.0, 830.0, 831.0, 830.0, 828.0, 826.0, 830.0, 829.0, 826.0, 824.0, 829.0, 828.0, 822.0, 826.0, 822.0, 828.0, 827.0, 830.0, 826.0, 830.0, 831.0, 827.0, 829.0, 825.0, 829.0, 826.0, 829.0, 827.0, 830.0, 825.0, 829.0, 825.0, 830.0, 825.0, 830.0, 827.0, 829.0, 825.0, 829.0, 827.0, 829.0, 825.0, 829.0, 825.0, 829.0, 825.0, 829.0, 827.0, 830.0, 827.0, 830.0, 829.0, 828.0, 827.0, 828.0, 828.0, 825.0, 830.0, 826.0, 828.0, 829.0, 833.0, 827.0, 831.0, 830.0, 828.0, 830.0, 827.0, 830.0, 828.0, 830.0, 828.0, 830.0, 826.0, 827.0, 829.0, 824.0, 828.0, 825.0, 828.0, 824.0, 829.0, 828.0, 828.0, 824.0, 830.0, 826.0, 830.0, 829.0, 830.0, 825.0, 829.0, 830.0, 827.0, 830.0, 826.0, 825.0, 832.0, 827.0, 832.0, 829.0, 830.0, 828.0, 829.0, 826.0, 824.0, 831.0, 827.0, 831.0, 831.0, 829.0, 828.0, 823.0, 827.0, 827.0, 825.0, 829.0, 826.0, 829.0, 827.0, 831.0, 828.0, 830.0, 826.0, 830.0, 826.0, 828.0, 826.0, 829.0, 824.0, 828.0, 824.0, 826.0, 828.0, 829.0, 827.0, 825.0, 831.0, 830.0, 830.0, 828.0, 829.0, 828.0, 828.0, 825.0, 830.0, 826.0, 830.0, 825.0, 829.0, 826.0, 828.0, 826.0, 826.0, 829.0, 830.0, 828.0, 828.0, 827.0, 830.0, 827.0, 829.0, 828.0, 831.0, 826.0, 830.0, 828.0, 829.0, 825.0, 827.0, 830.0, 827.0, 829.0, 827.0, 829.0, 825.0, 828.0, 828.0, 831.0, 827.0, 832.0, 827.0, 829.0, 826.0, 830.0, 825.0, 830.0, 826.0, 829.0, 826.0, 829.0, 824.0, 828.0, 828.0, 828.0, 828.0, 828.0, 830.0, 825.0, 828.0, 825.0, 829.0, 825.0, 830.0, 827.0, 829.0, 826.0, 827.0, 828.0, 826.0, 825.0, 830.0, 829.0, 830.0, 825.0, 829.0, 826.0, 830.0, 826.0, 830.0, 826.0, 827.0, 831.0, 826.0, 830.0, 826.0, 830.0, 826.0, 830.0, 826.0, 826.0, 829.0, 831.0, 826.0, 830.0, 826.0]
    },
    "slices": {}
  }
}