{
  "AcquisitionMatrixPE": 96,
  "AcquisitionNumber": 1,
  "AcquisitionTime": "15:44:2.965000",
  "BandwidthPerPixelPhaseEncode": 18.939,
  "BaseResolution": 96,
  "BodyPartExamined": "BRAIN",
  "ConsistencyInfo": "N4_VE11C_LATEST_20160120",
  "ConversionSoftware": "dcm2niix",
  "ConversionSoftwareVersion": "v1.0.20170923 (OpenJPEG build) GCC6.3.0",
  "DerivedVendorReportedEchoSpacing": 0.000550011,
  "DeviceSerialNumber": "66112",
  "DwellTime": 2.3e-06,
  "EchoTime": 0.033,
  "EchoTrainLength": 96,
  "EffectiveEchoSpacing": 0.000550011,
  "FlipAngle": 64,
  "ImageType": [
    "ORIGINAL",
    "PRIMARY",
    "FMRI",
    "NONE",
    "ND",
    "NORM",
    "MOSAIC"
],
  "InstitutionAddress": "Maynard_3_Hanover_NH_US_03755",
  "InstitutionName": "Dartmouth_College_-_PBS",
  "MagneticFieldStrength": 3,
  "Manufacturer": "Siemens",
  "ManufacturersModelName": "Prisma",
  "Modality": "MR",
  "MultibandAccelerationFactor": 4,
  "PartialFourier": 1,
  "PercentPhaseFOV": 100,
  "PhaseEncodingDirection": "j-",
  "PhaseEncodingSteps": 96,
  "PhaseResolution": 1,
  "ProcedureStepDescription": "Gobbini_Matteo_1017_famface-angles",
  "ProtocolName": "func_run-03_task-fam1back",
  "PulseSequenceDetails": "%SiemensSeq%_ep2d_bold",
  "ReceiveCoilActiveElements": "HEA;HEP",
  "ReceiveCoilName": "Head_32",
  "ReconMatrixPE": 96,
  "RepetitionTime": 1.25,
  "ScanOptions": "FS",
  "ScanningSequence": "EP",
  "SequenceName": "_epfid2d1_96",
  "SequenceVariant": "SK",
  "SeriesDescription": "func_run-03_task-fam1back",
  "SliceTiming": [0.8775, 0, 0.615, 0.0875, 0.7025, 0.175, 0.79, 0.35, 0.965, 0.44, 1.055, 0.5275, 1.1425, 0.2625, 0.8775, 0, 0.615, 0.0875, 0.7025, 0.175, 0.79, 0.35, 0.965, 0.44, 1.055, 0.5275, 1.1425, 0.2625, 0.8775, 0, 0.615, 0.0875, 0.7025, 0.175, 0.79, 0.35, 0.965, 0.44, 1.055, 0.5275, 1.1425, 0.2625, 0.8775, 0, 0.615, 0.0875, 0.7025, 0.175, 0.79, 0.35, 0.965, 0.44, 1.055, 0.5275, 1.1425, 0.2625],
  "SoftwareVersions": "syngo_MR_E11",
  "StationName": "AWP66112",
  "TaskName": "fam1back",
  "TotalReadoutTime": 0.0522511,
  "dcmmeta_affine": [
    [-2.4999420642852783, 0.008290061727166176, -0.014884415082633495, 123.82583618164062],
    [0.009952063672244549, 2.4832870960235596, -0.28842103481292725, -86.02306365966797],
    [-0.013828498311340809, 0.28847357630729675, 2.483262300491333, -81.70022583007812],
    [0.0, 0.0, 0.0, 1.0]
],
  "dcmmeta_reorient_transform": [
    [0.0, -1.0, 0.0, 95.0],
    [1.0, 0.0, 0.0, 0.0],
    [0.0, 0.0, 1.0, 0.0],
    [0.0, 0.0, 0.0, 1.0]
],
  "dcmmeta_shape": [96, 96, 56, 280],
  "dcmmeta_slice_dim": 2,
  "dcmmeta_version": 0.6,
  "global": {
    "const": {
      "AccessionNumber": "A000457",
      "AcquisitionMatrix": [96, 0, 0, 96],
      "AngioFlag": "N",
      "BitsAllocated": 16,
      "BitsStored": 12,
      "BodyPartExamined": "BRAIN",
      "Columns": 768,
      "EchoNumbers": 1,
      "EchoTime": 33.0,
      "EchoTrainLength": 96,
      "FlipAngle": 64.0,
      "HighBit": 11,
      "ImageOrientationPatient": [0.99997677805618, -0.0039808254013, -0.0055313992362, 0.00331602474293, 0.99331479521049, -0.115389434507],
      "ImagePositionPatient": [-967.37934573018, -980.92973562007, 47.278267666432],
      "ImageType": [
        "ORIGINAL",
        "PRIMARY",
        "FMRI",
        "NONE",
        "ND",
        "NORM",
        "MOSAIC"
],
      "ImagedNucleus": "1H",
      "ImagingFrequency": 123.252364,
      "InPlanePhaseEncodingDirection": "COL",
      "MRAcquisitionType": "2D",
      "MagneticFieldStrength": 3.0,
      "Manufacturer": "SIEMENS",
      "ManufacturerModelName": "Prisma",
      "Modality": "MR",
      "NumberOfAverages": 1.0,
      "NumberOfPhaseEncodingSteps": 96,
      "PercentPhaseFieldOfView": 100.0,
      "PercentSampling": 100.0,
      "PerformedProcedureStepStartTime": "152148.325000",
      "PhotometricInterpretation": "MONOCHROME2",
      "PixelBandwidth": 2265.0,
      "PixelRepresentation": 0,
      "PixelSpacing": [2.5, 2.5],
      "PositionReferenceIndicator": "",
      "ProtocolName": "func_run-03_task-fam1back",
      "RepetitionTime": 1250.0,
      "Rows": 768,
      "SAR": 0.06135301516132,
      "SamplesPerPixel": 1,
      "ScanOptions": "FS",
      "ScanningSequence": "EP",
      "SequenceName": "*epfid2d1_96",
      "SequenceVariant": "SK",
      "SeriesDescription": "func_run-03_task-fam1back",
      "SeriesNumber": 22,
      "SeriesTime": "154404.265000",
      "SliceLocation": -71.966120396205,
      "SliceThickness": 2.5,
      "SmallestImagePixelValue": 0,
      "SoftwareVersions": "syngo MR E11",
      "SpacingBetweenSlices": 2.5000000332155,
      "SpecificCharacterSet": "ISO_IR 100",
      "StudyID": "1",
      "StudyTime": "152148.263000",
      "TransmitCoilName": "Body",
      "VariableFlipAngleFlag": "N",
      "WindowCenterWidthExplanation": "Algo1",
      "dBdt": 0.0},
    "slices": {}
  },
  "time": {
    "samples": {
      "AcquisitionNumber": [1, 2, 3, 4, 5, 6, 7, 8, 9, 10, 11, 12, 13, 14, 15, 16, 17, 18, 19, 20, 21, 22, 23, 24, 25, 26, 27, 28, 29, 30, 31, 32, 33, 34, 35, 36, 37, 38, 39, 40, 41, 42, 43, 44, 45, 46, 47, 48, 49, 50, 51, 52, 53, 54, 55, 56, 57, 58, 59, 60, 61, 62, 63, 64, 65, 66, 67, 68, 69, 70, 71, 72, 73, 74, 75, 76, 77, 78, 79, 80, 81, 82, 83, 84, 85, 86, 87, 88, 89, 90, 91, 92, 93, 94, 95, 96, 97, 98, 99, 100, 101, 102, 103, 104, 105, 106, 107, 108, 109, 110, 111, 112, 113, 114, 115, 116, 117, 118, 119, 120, 121, 122, 123, 124, 125, 126, 127, 128, 129, 130, 131, 132, 133, 134, 135, 136, 137, 138, 139, 140, 141, 142, 143, 144, 145, 146, 147, 148, 149, 150, 151, 152, 153, 154, 155, 156, 157, 158, 159, 160, 161, 162, 163, 164, 165, 166, 167, 168, 169, 170, 171, 172, 173, 174, 175, 176, 177, 178, 179, 180, 181, 182, 183, 184, 185, 186, 187, 188, 189, 190, 191, 192, 193, 194, 195, 196, 197, 198, 199, 200, 201, 202, 203, 204, 205, 206, 207, 208, 209, 210, 211, 212, 213, 214, 215, 216, 217, 218, 219, 220, 221, 222, 223, 224, 225, 226, 227, 228, 229, 230, 231, 232, 233, 234, 235, 236, 237, 238, 239, 240, 241, 242, 243, 244, 245, 246, 247, 248, 249, 250, 251, 252, 253, 254, 255, 256, 257, 258, 259, 260, 261, 262, 263, 264, 265, 266, 267, 268, 269, 270, 271, 272, 273, 274, 275, 276, 277, 278, 279, 280],
      "AcquisitionTime": ["154402.965000", "154404.215000", "154405.465000", "154406.715000", "154407.965000", "154409.215000", "154410.465000", "154411.715000", "154412.965000", "154414.215000", "154415.465000", "154416.715000", "154417.965000", "154419.215000", "154420.465000", "154421.715000", "154422.965000", "154424.215000", "154425.465000", "154426.715000", "154427.965000", "154429.215000", "154430.465000", "154431.715000", "154432.965000", "154434.215000", "154435.465000", "154436.715000", "154437.965000", "154439.215000", "154440.465000", "154441.715000", "154442.965000", "154444.215000", "154445.465000", "154446.715000", "154447.965000", "154449.215000", "154450.465000", "154451.715000", "154452.965000", "154454.215000", "154455.465000", "154456.715000", "154457.965000", "154459.215000", "154500.465000", "154501.715000", "154502.965000", "154504.215000", "154505.465000", "154506.715000", "154507.965000", "154509.215000", "154510.465000", "154511.715000", "154512.965000", "154514.215000", "154515.465000", "154516.715000", "154517.965000", "154519.215000", "154520.465000", "154521.715000", "154522.965000", "154524.215000", "154525.465000", "154526.715000", "154527.965000", "154529.215000", "154530.465000", "154531.715000", "154532.965000", "154534.215000", "154535.465000", "154536.715000", "154537.965000", "154539.215000", "154540.465000", "154541.715000", "154542.965000", "154544.215000", "154545.465000", "154546.715000", "154547.965000", "154549.215000", "154550.465000", "154551.715000", "154552.965000", "154554.215000", "154555.465000", "154556.715000", "154557.965000", "154559.215000", "154600.465000", "154601.715000", "154602.965000", "154604.215000", "154605.465000", "154606.715000", "154607.965000", "154609.215000", "154610.465000", "154611.715000", "154612.965000", "154614.215000", "154615.465000", "154616.715000", "154617.965000", "154619.215000", "154620.465000", "154621.715000", "154622.965000", "154624.215000", "154625.465000", "154626.715000", "154627.965000", "154629.215000", "154630.465000", "154631.715000", "154632.965000", "154634.215000", "154635.465000", "154636.715000", "154637.965000", "154639.215000", "154640.465000", "154641.715000", "154642.965000", "154644.215000", "154645.465000", "154646.715000", "154647.965000", "154649.215000", "154650.465000", "154651.715000", "154652.965000", "154654.215000", "154655.465000", "154656.715000", "154657.965000", "154659.215000", "154700.465000", "154701.715000", "154702.965000", "154704.215000", "154705.465000", "154706.715000", "154707.965000", "154709.215000", "154710.465000", "154711.715000", "154712.965000", "154714.215000", "154715.465000", "154716.715000", "154717.965000", "154719.215000", "154720.465000", "154721.715000", "154722.965000", "154724.215000", "154725.465000", "154726.715000", "154727.965000", "154729.215000", "154730.465000", "154731.715000", "154732.965000", "154734.215000", "154735.465000", "154736.715000", "154737.965000", "154739.215000", "154740.465000", "154741.715000", "154742.965000", "154744.215000", "154745.465000", "154746.715000", "154747.965000", "154749.215000", "154750.465000", "154751.715000", "154752.965000", "154754.215000", "154755.465000", "154756.715000", "154757.965000", "154759.215000", "154800.465000", "154801.715000", "154802.965000", "154804.215000", "154805.465000", "154806.715000", "154807.965000", "154809.215000", "154810.465000", "154811.715000", "154812.965000", "154814.215000", "154815.465000", "154816.715000", "154817.965000", "154819.215000", "154820.465000", "154821.715000", "154822.965000", "154824.215000", "154825.465000", "154826.715000", "154827.965000", "154829.215000", "154830.465000", "154831.715000", "154832.965000", "154834.215000", "154835.465000", "154836.715000", "154837.965000", "154839.215000", "154840.465000", "154841.715000", "154842.965000", "154844.215000", "154845.465000", "154846.715000", "154847.965000", "154849.215000", "154850.465000", "154851.715000", "154852.965000", "154854.215000", "154855.465000", "154856.715000", "154857.965000", "154859.215000", "154900.465000", "154901.715000", "154902.965000", "154904.215000", "154905.465000", "154906.715000", "154907.965000", "154909.215000", "154910.465000", "154911.715000", "154912.965000", "154914.215000", "154915.465000", "154916.715000", "154917.965000", "154919.215000", "154920.465000", "154921.715000", "154922.965000", "154924.215000", "154925.465000", "154926.715000", "154927.965000", "154929.215000", "154930.465000", "154931.715000", "154932.965000", "154934.215000", "154935.465000", "154936.715000", "154937.965000", "154939.215000", "154940.465000", "154941.715000", "154942.965000", "154944.215000", "154945.465000", "154946.715000", "154947.965000", "154949.215000", "154950.465000", "154951.715000"],
      "ContentTime": ["154404.269000", "154405.324000", "154406.552000", "154407.793000", "154409.057000", "154410.299000", "154411.581000", "154412.796000", "154414.044000", "154415.307000", "154416.542000", "154417.805000", "154419.070000", "154420.303000", "154421.568000", "154422.825000", "154424.032000", "154425.294000", "154426.566000", "154427.813000", "154429.019000", "154430.284000", "154431.578000", "154432.838000", "154434.028000", "154435.292000", "154436.542000", "154437.804000", "154439.025000", "154440.302000", "154441.575000", "154442.850000", "154444.147000", "154445.321000", "154446.540000", "154447.804000", "154449.023000", "154450.307000", "154451.552000", "154452.816000", "154454.051000", "154455.310000", "154456.594000", "154457.779000", "154459.070000", "154500.375000", "154501.534000", "154502.806000", "154504.067000", "154505.295000", "154506.568000", "154507.754000", "154509.030000", "154510.285000", "154511.537000", "154512.825000", "154514.036000", "154515.280000", "154516.548000", "154517.829000", "154519.053000", "154520.287000", "154521.527000", "154522.807000", "154524.049000", "154525.303000", "154526.587000", "154527.819000", "154529.072000", "154530.308000", "154531.541000", "154532.801000", "154534.043000", "154535.317000", "154536.527000", "154537.792000", "154539.042000", "154540.322000", "154541.534000", "154542.821000", "154544.048000", "154545.312000", "154546.529000", "154547.776000", "154549.047000", "154550.317000", "154551.553000", "154552.813000", "154554.028000", "154555.313000", "154556.545000", "154557.825000", "154559.050000", "154600.346000", "154601.549000", "154602.791000", "154604.070000", "154605.288000", "154606.551000", "154607.780000", "154609.067000", "154610.297000", "154611.561000", "154612.841000", "154614.091000", "154615.315000", "154616.574000", "154617.812000", "154619.070000", "154620.294000", "154621.581000", "154622.841000", "154624.050000", "154625.356000", "154626.598000", "154627.821000", "154629.053000", "154630.301000", "154631.544000", "154632.801000", "154634.075000", "154635.319000", "154636.552000", "154637.820000", "154639.053000", "154640.292000", "154641.587000", "154642.797000", "154644.040000", "154645.310000", "154646.538000", "154647.807000", "154649.096000", "154650.363000", "154651.571000", "154652.803000", "154654.070000", "154655.315000", "154656.555000", "154657.826000", "154659.062000", "154700.297000", "154701.585000", "154702.812000", "154704.096000", "154705.319000", "154706.611000", "154707.793000", "154709.073000", "154710.327000", "154711.599000", "154712.823000", "154714.077000", "154715.349000", "154716.596000", "154717.836000", "154719.062000", "154720.311000", "154721.590000", "154722.798000", "154724.057000", "154725.307000", "154726.586000", "154727.836000", "154729.052000", "154730.313000", "154731.615000", "154732.822000", "154734.058000", "154735.307000", "154736.543000", "154737.809000", "154739.046000", "154740.289000", "154741.567000", "154742.789000", "154744.057000", "154745.330000", "154746.543000", "154747.795000", "154749.048000", "154750.311000", "154751.588000", "154752.795000", "154754.060000", "154755.286000", "154756.580000", "154757.816000", "154759.064000", "154800.310000", "154801.554000", "154802.792000", "154804.074000", "154805.294000", "154806.547000", "154807.823000", "154809.103000", "154810.311000", "154811.586000", "154812.831000", "154814.071000", "154815.291000", "154816.572000", "154817.800000", "154819.072000", "154820.302000", "154821.565000", "154822.791000", "154824.047000", "154825.275000", "154826.530000", "154827.799000", "154829.051000", "154830.309000", "154831.565000", "154832.791000", "154834.064000", "154835.312000", "154836.543000", "154837.815000", "154839.087000", "154840.293000", "154841.560000", "154842.809000", "154844.044000", "154845.311000", "154846.560000", "154847.788000", "154849.078000", "154850.286000", "154851.552000", "154852.800000", "154854.052000", "154855.290000", "154856.549000", "154857.797000", "154859.062000", "154900.283000", "154901.535000", "154902.790000", "154904.045000", "154905.311000", "154906.591000", "154907.822000", "154909.031000", "154910.300000", "154911.557000", "154912.825000", "154914.089000", "154915.333000", "154916.565000", "154917.813000", "154919.120000", "154920.325000", "154921.611000", "154922.860000", "154924.044000", "154925.341000", "154926.571000", "154927.792000", "154929.055000", "154930.341000", "154931.576000", "154932.798000", "154934.059000", "154935.313000", "154936.569000", "154937.820000", "154939.048000", "154940.324000", "154941.544000", "154942.807000", "154944.069000", "154945.333000", "154946.564000", "154947.818000", "154949.041000", "154950.335000", "154951.560000", "154952.854000"],
      "InstanceCreationTime": ["154404.269000", "154405.324000", "154406.552000", "154407.793000", "154409.057000", "154410.299000", "154411.581000", "154412.796000", "154414.044000", "154415.307000", "154416.542000", "154417.805000", "154419.070000", "154420.303000", "154421.568000", "154422.825000", "154424.032000", "154425.294000", "154426.566000", "154427.813000", "154429.019000", "154430.284000", "154431.578000", "154432.838000", "154434.028000", "154435.292000", "154436.542000", "154437.804000", "154439.025000", "154440.302000", "154441.575000", "154442.850000", "154444.147000", "154445.321000", "154446.540000", "154447.804000", "154449.023000", "154450.307000", "154451.552000", "154452.816000", "154454.051000", "154455.310000", "154456.594000", "154457.779000", "154459.070000", "154500.375000", "154501.534000", "154502.806000", "154504.067000", "154505.295000", "154506.568000", "154507.754000", "154509.030000", "154510.285000", "154511.537000", "154512.825000", "154514.036000", "154515.280000", "154516.548000", "154517.829000", "154519.053000", "154520.287000", "154521.527000", "154522.807000", "154524.049000", "154525.303000", "154526.587000", "154527.819000", "154529.072000", "154530.308000", "154531.541000", "154532.801000", "154534.043000", "154535.317000", "154536.527000", "154537.792000", "154539.042000", "154540.322000", "154541.534000", "154542.821000", "154544.048000", "154545.312000", "154546.529000", "154547.776000", "154549.047000", "154550.317000", "154551.553000", "154552.813000", "154554.028000", "154555.313000", "154556.545000", "154557.825000", "154559.050000", "154600.346000", "154601.549000", "154602.791000", "154604.070000", "154605.288000", "154606.551000", "154607.780000", "154609.067000", "154610.297000", "154611.561000", "154612.841000", "154614.091000", "154615.315000", "154616.574000", "154617.812000", "154619.070000", "154620.294000", "154621.581000", "154622.841000", "154624.050000", "154625.356000", "154626.598000", "154627.821000", "154629.053000", "154630.301000", "154631.544000", "154632.801000", "154634.075000", "154635.319000", "154636.552000", "154637.820000", "154639.053000", "154640.292000", "154641.587000", "154642.797000", "154644.040000", "154645.310000", "154646.538000", "154647.807000", "154649.096000", "154650.363000", "154651.571000", "154652.803000", "154654.070000", "154655.315000", "154656.555000", "154657.826000", "154659.062000", "154700.297000", "154701.585000", "154702.812000", "154704.096000", "154705.319000", "154706.611000", "154707.793000", "154709.073000", "154710.327000", "154711.599000", "154712.823000", "154714.077000", "154715.349000", "154716.596000", "154717.836000", "154719.062000", "154720.311000", "154721.590000", "154722.798000", "154724.057000", "154725.307000", "154726.586000", "154727.836000", "154729.052000", "154730.313000", "154731.615000", "154732.822000", "154734.058000", "154735.307000", "154736.543000", "154737.809000", "154739.046000", "154740.289000", "154741.567000", "154742.789000", "154744.057000", "154745.330000", "154746.543000", "154747.795000", "154749.048000", "154750.311000", "154751.588000", "154752.795000", "154754.060000", "154755.286000", "154756.580000", "154757.816000", "154759.064000", "154800.310000", "154801.554000", "154802.792000", "154804.074000", "154805.294000", "154806.547000", "154807.823000", "154809.103000", "154810.311000", "154811.586000", "154812.831000", "154814.071000", "154815.291000", "154816.572000", "154817.800000", "154819.072000", "154820.302000", "154821.565000", "154822.791000", "154824.047000", "154825.275000", "154826.530000", "154827.799000", "154829.051000", "154830.309000", "154831.565000", "154832.791000", "154834.064000", "154835.312000", "154836.543000", "154837.815000", "154839.087000", "154840.293000", "154841.560000", "154842.809000", "154844.044000", "154845.311000", "154846.560000", "154847.788000", "154849.078000", "154850.286000", "154851.552000", "154852.800000", "154854.052000", "154855.290000", "154856.549000", "154857.797000", "154859.062000", "154900.283000", "154901.535000", "154902.790000", "154904.045000", "154905.311000", "154906.591000", "154907.822000", "154909.031000", "154910.300000", "154911.557000", "154912.825000", "154914.089000", "154915.333000", "154916.565000", "154917.813000", "154919.120000", "154920.325000", "154921.611000", "154922.860000", "154924.044000", "154925.341000", "154926.571000", "154927.792000", "154929.055000", "154930.341000", "154931.576000", "154932.798000", "154934.059000", "154935.313000", "154936.569000", "154937.820000", "154939.048000", "154940.324000", "154941.544000", "154942.807000", "154944.069000", "154945.333000", "154946.564000", "154947.818000", "154949.041000", "154950.335000", "154951.560000", "154952.854000"],
      "InstanceNumber": [1, 2, 3, 4, 5, 6, 7, 8, 9, 10, 11, 12, 13, 14, 15, 16, 17, 18, 19, 20, 21, 22, 23, 24, 25, 26, 27, 28, 29, 30, 31, 32, 33, 34, 35, 36, 37, 38, 39, 40, 41, 42, 43, 44, 45, 46, 47, 48, 49, 50, 51, 52, 53, 54, 55, 56, 57, 58, 59, 60, 61, 62, 63, 64, 65, 66, 67, 68, 69, 70, 71, 72, 73, 74, 75, 76, 77, 78, 79, 80, 81, 82, 83, 84, 85, 86, 87, 88, 89, 90, 91, 92, 93, 94, 95, 96, 97, 98, 99, 100, 101, 102, 103, 104, 105, 106, 107, 108, 109, 110, 111, 112, 113, 114, 115, 116, 117, 118, 119, 120, 121, 122, 123, 124, 125, 126, 127, 128, 129, 130, 131, 132, 133, 134, 135, 136, 137, 138, 139, 140, 141, 142, 143, 144, 145, 146, 147, 148, 149, 150, 151, 152, 153, 154, 155, 156, 157, 158, 159, 160, 161, 162, 163, 164, 165, 166, 167, 168, 169, 170, 171, 172, 173, 174, 175, 176, 177, 178, 179, 180, 181, 182, 183, 184, 185, 186, 187, 188, 189, 190, 191, 192, 193, 194, 195, 196, 197, 198, 199, 200, 201, 202, 203, 204, 205, 206, 207, 208, 209, 210, 211, 212, 213, 214, 215, 216, 217, 218, 219, 220, 221, 222, 223, 224, 225, 226, 227, 228, 229, 230, 231, 232, 233, 234, 235, 236, 237, 238, 239, 240, 241, 242, 243, 244, 245, 246, 247, 248, 249, 250, 251, 252, 253, 254, 255, 256, 257, 258, 259, 260, 261, 262, 263, 264, 265, 266, 267, 268, 269, 270, 271, 272, 273, 274, 275, 276, 277, 278, 279, 280],
      "LargestImagePixelValue": [1121, 1248, 856, 1295, 943, 748, 1238, 1353, 987, 1256, 933, 1201, 1203, 1157, 743, 1285, 825, 1247, 1146, 1399, 929, 942, 1127, 1441, 1131, 1096, 1092, 1085, 796, 1237, 1324, 1056, 930, 1085, 1233, 1016, 1092, 1085, 1443, 1084, 1319, 897, 1199, 872, 1204, 1009, 877, 1249, 817, 1258, 928, 1328, 956, 799, 1253, 849, 1244, 998, 1412, 795, 1298, 984, 1240, 924, 1044, 1032, 1355, 964, 856, 1239, 865, 1190, 889, 1440, 1181, 1028, 1063, 827, 781, 1286, 1017, 1424, 928, 1337, 864, 1277, 987, 1069, 961, 1209, 1026, 1104, 1184, 1167, 1107, 999, 1210, 763, 1268, 1003, 1243, 957, 1278, 937, 1178, 1029, 1134, 1209, 1015, 1412, 783, 1217, 992, 1226, 777, 1268, 855, 1240, 878, 1337, 789, 1224, 1179, 1150, 802, 1264, 969, 1228, 1098, 1103, 892, 1131, 1414, 930, 1259, 811, 1186, 1199, 1120, 1114, 1015, 1138, 1228, 755, 1311, 924, 1264, 935, 1383, 855, 1303, 881, 817, 1227, 958, 1436, 762, 1274, 1266, 1231, 801, 1303, 849, 1256, 862, 1421, 781, 1263, 872, 1428, 830, 1310, 927, 954, 1138, 1260, 1158, 790, 1264, 786, 1258, 891, 1325, 897, 1306, 986, 1294, 888, 1259, 980, 1097, 1019, 1238, 951, 1190, 1073, 773, 1198, 1352, 1260, 1192, 980, 1372, 855, 1339, 1054, 1231, 846, 1225, 764, 1261, 850, 1221, 938, 1141, 1116, 1261, 1020, 978, 1164, 1081, 1238, 927, 1374, 1053, 1066, 1031, 1128, 1089, 909, 1258, 1024, 1448, 945, 1359, 990, 1278, 893, 1260, 927, 1011, 1184, 773, 1294, 823, 1251, 854, 1373, 821, 1245, 860, 1241, 781, 1265, 923, 827, 941, 1161, 1366, 926, 951, 1143, 978, 1252, 759, 1326, 1040, 1286, 930, 1270, 972, 1325, 887, 1286, 879, 925, 1162, 954, 1200, 1352],
      "WindowCenter": [390.0, 390.0, 387.0, 390.0, 387.0, 386.0, 391.0, 391.0, 388.0, 390.0, 387.0, 389.0, 389.0, 389.0, 386.0, 391.0, 388.0, 391.0, 390.0, 391.0, 388.0, 389.0, 390.0, 391.0, 388.0, 388.0, 387.0, 388.0, 386.0, 389.0, 390.0, 388.0, 388.0, 389.0, 390.0, 389.0, 389.0, 389.0, 391.0, 388.0, 389.0, 387.0, 389.0, 387.0, 390.0, 388.0, 387.0, 390.0, 386.0, 390.0, 388.0, 390.0, 388.0, 387.0, 390.0, 388.0, 390.0, 388.0, 391.0, 386.0, 390.0, 388.0, 390.0, 388.0, 388.0, 388.0, 390.0, 387.0, 387.0, 390.0, 387.0, 390.0, 388.0, 391.0, 389.0, 388.0, 388.0, 387.0, 387.0, 391.0, 389.0, 391.0, 387.0, 390.0, 387.0, 390.0, 389.0, 389.0, 389.0, 390.0, 389.0, 389.0, 390.0, 389.0, 389.0, 389.0, 390.0, 386.0, 390.0, 389.0, 390.0, 388.0, 390.0, 387.0, 389.0, 389.0, 390.0, 390.0, 389.0, 391.0, 386.0, 390.0, 388.0, 390.0, 386.0, 390.0, 387.0, 390.0, 388.0, 390.0, 386.0, 389.0, 389.0, 389.0, 386.0, 390.0, 388.0, 389.0, 389.0, 388.0, 387.0, 389.0, 390.0, 387.0, 390.0, 387.0, 390.0, 390.0, 389.0, 389.0, 389.0, 389.0, 390.0, 386.0, 390.0, 387.0, 390.0, 388.0, 391.0, 388.0, 391.0, 388.0, 387.0, 390.0, 389.0, 392.0, 387.0, 390.0, 390.0, 390.0, 387.0, 390.0, 388.0, 390.0, 388.0, 391.0, 386.0, 390.0, 387.0, 391.0, 387.0, 391.0, 387.0, 387.0, 389.0, 389.0, 388.0, 386.0, 390.0, 386.0, 390.0, 388.0, 391.0, 388.0, 390.0, 388.0, 390.0, 387.0, 390.0, 388.0, 389.0, 389.0, 390.0, 388.0, 390.0, 390.0, 388.0, 391.0, 391.0, 390.0, 390.0, 389.0, 391.0, 388.0, 391.0, 388.0, 390.0, 387.0, 389.0, 386.0, 390.0, 387.0, 390.0, 389.0, 390.0, 390.0, 391.0, 389.0, 389.0, 390.0, 389.0, 390.0, 388.0, 391.0, 388.0, 389.0, 389.0, 390.0, 389.0, 387.0, 390.0, 389.0, 390.0, 387.0, 389.0, 387.0, 389.0, 387.0, 389.0, 387.0, 388.0, 390.0, 387.0, 391.0, 388.0, 390.0, 388.0, 391.0, 388.0, 390.0, 388.0, 390.0, 386.0, 390.0, 387.0, 387.0, 388.0, 390.0, 390.0, 387.0, 388.0, 389.0, 388.0, 390.0, 387.0, 391.0, 390.0, 391.0, 388.0, 390.0, 388.0, 390.0, 387.0, 389.0, 387.0, 388.0, 390.0, 389.0, 391.0, 390.0],
      "WindowWidth": [829.0, 827.0, 823.0, 827.0, 823.0, 822.0, 829.0, 829.0, 824.0, 827.0, 823.0, 825.0, 825.0, 825.0, 822.0, 829.0, 824.0, 829.0, 827.0, 828.0, 824.0, 826.0, 827.0, 828.0, 825.0, 824.0, 823.0, 824.0, 821.0, 826.0, 827.0, 824.0, 824.0, 826.0, 828.0, 826.0, 826.0, 826.0, 828.0, 825.0, 826.0, 822.0, 825.0, 822.0, 826.0, 824.0, 822.0, 826.0, 822.0, 826.0, 824.0, 827.0, 824.0, 823.0, 828.0, 824.0, 828.0, 825.0, 828.0, 822.0, 828.0, 824.0, 827.0, 824.0, 825.0, 825.0, 827.0, 823.0, 822.0, 826.0, 822.0, 827.0, 824.0, 828.0, 825.0, 825.0, 824.0, 823.0, 823.0, 829.0, 827.0, 828.0, 824.0, 827.0, 823.0, 828.0, 825.0, 826.0, 825.0, 828.0, 825.0, 826.0, 827.0, 826.0, 825.0, 825.0, 828.0, 822.0, 828.0, 826.0, 828.0, 824.0, 828.0, 823.0, 826.0, 826.0, 827.0, 828.0, 825.0, 828.0, 822.0, 827.0, 824.0, 826.0, 822.0, 828.0, 823.0, 827.0, 824.0, 827.0, 821.0, 826.0, 825.0, 825.0, 822.0, 827.0, 824.0, 826.0, 825.0, 825.0, 823.0, 826.0, 828.0, 822.0, 827.0, 823.0, 827.0, 827.0, 826.0, 826.0, 825.0, 825.0, 826.0, 822.0, 828.0, 823.0, 827.0, 825.0, 828.0, 824.0, 829.0, 824.0, 823.0, 827.0, 826.0, 829.0, 823.0, 828.0, 826.0, 826.0, 823.0, 828.0, 824.0, 828.0, 824.0, 828.0, 822.0, 828.0, 824.0, 828.0, 823.0, 829.0, 824.0, 823.0, 826.0, 826.0, 825.0, 821.0, 827.0, 822.0, 827.0, 825.0, 829.0, 825.0, 828.0, 825.0, 828.0, 823.0, 828.0, 824.0, 826.0, 825.0, 827.0, 824.0, 828.0, 828.0, 825.0, 830.0, 829.0, 828.0, 827.0, 826.0, 828.0, 824.0, 829.0, 825.0, 827.0, 823.0, 826.0, 822.0, 827.0, 823.0, 828.0, 826.0, 828.0, 827.0, 829.0, 826.0, 825.0, 827.0, 826.0, 828.0, 825.0, 828.0, 825.0, 826.0, 826.0, 827.0, 826.0, 824.0, 827.0, 825.0, 827.0, 823.0, 826.0, 823.0, 825.0, 822.0, 826.0, 822.0, 824.0, 826.0, 823.0, 829.0, 825.0, 828.0, 824.0, 829.0, 824.0, 828.0, 824.0, 827.0, 822.0, 826.0, 824.0, 823.0, 825.0, 827.0, 828.0, 823.0, 824.0, 826.0, 824.0, 827.0, 823.0, 829.0, 827.0, 828.0, 825.0, 828.0, 824.0, 828.0, 822.0, 826.0, 823.0, 825.0, 828.0, 827.0, 828.0, 828.0]
    },
    "slices": {}
  }
}