{
  "AcquisitionMatrixPE": 96,
  "AcquisitionNumber": 1,
  "AcquisitionTime": "16:19:48.595000",
  "BandwidthPerPixelPhaseEncode": 18.939,
  "BaseResolution": 96,
  "BodyPartExamined": "BRAIN",
  "ConsistencyInfo": "N4_VE11C_LATEST_20160120",
  "ConversionSoftware": "dcm2niix",
  "ConversionSoftwareVersion": "v1.0.20170923 (OpenJPEG build) GCC6.3.0",
  "DerivedVendorReportedEchoSpacing": 0.000550011,
  "DeviceSerialNumber": "66112",
  "DwellTime": 2.3e-06,
  "EchoTime": 0.033,
  "EchoTrainLength": 96,
  "EffectiveEchoSpacing": 0.000550011,
  "FlipAngle": 64,
  "ImageType": [
    "ORIGINAL",
    "PRIMARY",
    "FMRI",
    "NONE",
    "ND",
    "NORM",
    "MOSAIC"
],
  "InstitutionAddress": "Maynard_3_Hanover_NH_US_03755",
  "InstitutionName": "Dartmouth_College_-_PBS",
  "MagneticFieldStrength": 3,
  "Manufacturer": "Siemens",
  "ManufacturersModelName": "Prisma",
  "Modality": "MR",
  "MultibandAccelerationFactor": 4,
  "PartialFourier": 1,
  "PercentPhaseFOV": 100,
  "PhaseEncodingDirection": "j-",
  "PhaseEncodingSteps": 96,
  "PhaseResolution": 1,
  "ProcedureStepDescription": "Gobbini_Matteo_1017_famface-angles",
  "ProtocolName": "func_run-08_task-fam1back",
  "PulseSequenceDetails": "%SiemensSeq%_ep2d_bold",
  "ReceiveCoilActiveElements": "HEA;HEP",
  "ReceiveCoilName": "Head_32",
  "ReconMatrixPE": 96,
  "RepetitionTime": 1.25,
  "ScanOptions": "FS",
  "ScanningSequence": "EP",
  "SequenceName": "_epfid2d1_96",
  "SequenceVariant": "SK",
  "SeriesDescription": "func_run-08_task-fam1back",
  "SliceTiming": [0.88, 0, 0.615, 0.09, 0.705, 0.1775, 0.7925, 0.3525, 0.9675, 0.44, 1.055, 0.5275, 1.1425, 0.265, 0.88, 0, 0.615, 0.09, 0.705, 0.1775, 0.7925, 0.3525, 0.9675, 0.44, 1.055, 0.5275, 1.1425, 0.265, 0.88, 0, 0.615, 0.09, 0.705, 0.1775, 0.7925, 0.3525, 0.9675, 0.44, 1.055, 0.5275, 1.1425, 0.265, 0.88, 0, 0.615, 0.09, 0.705, 0.1775, 0.7925, 0.3525, 0.9675, 0.44, 1.055, 0.5275, 1.1425, 0.265],
  "SoftwareVersions": "syngo_MR_E11",
  "StationName": "AWP66112",
  "TaskName": "fam1back",
  "TotalReadoutTime": 0.0522511,
  "dcmmeta_affine": [
    [-2.4999420642852783, 0.008290061727166176, -0.014884415082633495, 123.82583618164062],
    [0.009952063672244549, 2.4832870960235596, -0.28842103481292725, -86.02306365966797],
    [-0.013828498311340809, 0.28847357630729675, 2.483262300491333, -81.70022583007812],
    [0.0, 0.0, 0.0, 1.0]
],
  "dcmmeta_reorient_transform": [
    [0.0, -1.0, 0.0, 95.0],
    [1.0, 0.0, 0.0, 0.0],
    [0.0, 0.0, 1.0, 0.0],
    [0.0, 0.0, 0.0, 1.0]
],
  "dcmmeta_shape": [96, 96, 56, 280],
  "dcmmeta_slice_dim": 2,
  "dcmmeta_version": 0.6,
  "global": {
    "const": {
      "AccessionNumber": "A000457",
      "AcquisitionMatrix": [96, 0, 0, 96],
      "AngioFlag": "N",
      "BitsAllocated": 16,
      "BitsStored": 12,
      "BodyPartExamined": "BRAIN",
      "Columns": 768,
      "EchoNumbers": 1,
      "EchoTime": 33.0,
      "EchoTrainLength": 96,
      "FlipAngle": 64.0,
      "HighBit": 11,
      "ImageOrientationPatient": [0.99997677805618, -0.0039808254013, -0.0055313992362, 0.00331602474293, 0.99331479521049, -0.115389434507],
      "ImagePositionPatient": [-967.37934573018, -980.92973562007, 47.278267666432],
      "ImageType": [
        "ORIGINAL",
        "PRIMARY",
        "FMRI",
        "NONE",
        "ND",
        "NORM",
        "MOSAIC"
],
      "ImagedNucleus": "1H",
      "ImagingFrequency": 123.252373,
      "InPlanePhaseEncodingDirection": "COL",
      "MRAcquisitionType": "2D",
      "MagneticFieldStrength": 3.0,
      "Manufacturer": "SIEMENS",
      "ManufacturerModelName": "Prisma",
      "Modality": "MR",
      "NumberOfAverages": 1.0,
      "NumberOfPhaseEncodingSteps": 96,
      "PercentPhaseFieldOfView": 100.0,
      "PercentSampling": 100.0,
      "PerformedProcedureStepStartTime": "152148.325000",
      "PhotometricInterpretation": "MONOCHROME2",
      "PixelBandwidth": 2265.0,
      "PixelRepresentation": 0,
      "PixelSpacing": [2.5, 2.5],
      "PositionReferenceIndicator": "",
      "ProtocolName": "func_run-08_task-fam1back",
      "RepetitionTime": 1250.0,
      "Rows": 768,
      "SAR": 0.06135301516132,
      "SamplesPerPixel": 1,
      "ScanOptions": "FS",
      "ScanningSequence": "EP",
      "SequenceName": "*epfid2d1_96",
      "SequenceVariant": "SK",
      "SeriesDescription": "func_run-08_task-fam1back",
      "SeriesNumber": 60,
      "SeriesTime": "161950.254000",
      "SliceLocation": -71.966120396205,
      "SliceThickness": 2.5,
      "SmallestImagePixelValue": 0,
      "SoftwareVersions": "syngo MR E11",
      "SpacingBetweenSlices": 2.5000000332155,
      "SpecificCharacterSet": "ISO_IR 100",
      "StudyID": "1",
      "StudyTime": "152148.263000",
      "TransmitCoilName": "Body",
      "VariableFlipAngleFlag": "N",
      "WindowCenterWidthExplanation": "Algo1",
      "dBdt": 0.0},
    "slices": {}
  },
  "time": {
    "samples": {
      "AcquisitionNumber": [1, 2, 3, 4, 5, 6, 7, 8, 9, 10, 11, 12, 13, 14, 15, 16, 17, 18, 19, 20, 21, 22, 23, 24, 25, 26, 27, 28, 29, 30, 31, 32, 33, 34, 35, 36, 37, 38, 39, 40, 41, 42, 43, 44, 45, 46, 47, 48, 49, 50, 51, 52, 53, 54, 55, 56, 57, 58, 59, 60, 61, 62, 63, 64, 65, 66, 67, 68, 69, 70, 71, 72, 73, 74, 75, 76, 77, 78, 79, 80, 81, 82, 83, 84, 85, 86, 87, 88, 89, 90, 91, 92, 93, 94, 95, 96, 97, 98, 99, 100, 101, 102, 103, 104, 105, 106, 107, 108, 109, 110, 111, 112, 113, 114, 115, 116, 117, 118, 119, 120, 121, 122, 123, 124, 125, 126, 127, 128, 129, 130, 131, 132, 133, 134, 135, 136, 137, 138, 139, 140, 141, 142, 143, 144, 145, 146, 147, 148, 149, 150, 151, 152, 153, 154, 155, 156, 157, 158, 159, 160, 161, 162, 163, 164, 165, 166, 167, 168, 169, 170, 171, 172, 173, 174, 175, 176, 177, 178, 179, 180, 181, 182, 183, 184, 185, 186, 187, 188, 189, 190, 191, 192, 193, 194, 195, 196, 197, 198, 199, 200, 201, 202, 203, 204, 205, 206, 207, 208, 209, 210, 211, 212, 213, 214, 215, 216, 217, 218, 219, 220, 221, 222, 223, 224, 225, 226, 227, 228, 229, 230, 231, 232, 233, 234, 235, 236, 237, 238, 239, 240, 241, 242, 243, 244, 245, 246, 247, 248, 249, 250, 251, 252, 253, 254, 255, 256, 257, 258, 259, 260, 261, 262, 263, 264, 265, 266, 267, 268, 269, 270, 271, 272, 273, 274, 275, 276, 277, 278, 279, 280],
      "AcquisitionTime": ["161948.595000", "161949.845000", "161951.095000", "161952.345000", "161953.595000", "161954.845000", "161956.095000", "161957.345000", "161958.595000", "161959.845000", "162001.095000", "162002.345000", "162003.595000", "162004.845000", "162006.095000", "162007.345000", "162008.595000", "162009.845000", "162011.095000", "162012.345000", "162013.595000", "162014.845000", "162016.095000", "162017.345000", "162018.595000", "162019.845000", "162021.095000", "162022.345000", "162023.595000", "162024.845000", "162026.095000", "162027.345000", "162028.595000", "162029.845000", "162031.095000", "162032.345000", "162033.595000", "162034.845000", "162036.095000", "162037.345000", "162038.595000", "162039.845000", "162041.095000", "162042.345000", "162043.595000", "162044.845000", "162046.095000", "162047.345000", "162048.595000", "162049.845000", "162051.095000", "162052.345000", "162053.595000", "162054.845000", "162056.095000", "162057.345000", "162058.595000", "162059.845000", "162101.095000", "162102.345000", "162103.595000", "162104.845000", "162106.095000", "162107.345000", "162108.595000", "162109.845000", "162111.095000", "162112.345000", "162113.595000", "162114.845000", "162116.095000", "162117.345000", "162118.595000", "162119.845000", "162121.095000", "162122.345000", "162123.595000", "162124.845000", "162126.095000", "162127.345000", "162128.595000", "162129.845000", "162131.095000", "162132.345000", "162133.595000", "162134.845000", "162136.095000", "162137.345000", "162138.595000", "162139.845000", "162141.095000", "162142.345000", "162143.595000", "162144.845000", "162146.095000", "162147.345000", "162148.595000", "162149.845000", "162151.095000", "162152.345000", "162153.595000", "162154.845000", "162156.095000", "162157.345000", "162158.595000", "162159.845000", "162201.095000", "162202.345000", "162203.595000", "162204.845000", "162206.095000", "162207.345000", "162208.595000", "162209.845000", "162211.095000", "162212.345000", "162213.595000", "162214.845000", "162216.095000", "162217.345000", "162218.595000", "162219.845000", "162221.095000", "162222.345000", "162223.595000", "162224.845000", "162226.095000", "162227.345000", "162228.595000", "162229.845000", "162231.095000", "162232.345000", "162233.595000", "162234.845000", "162236.095000", "162237.345000", "162238.595000", "162239.845000", "162241.095000", "162242.345000", "162243.595000", "162244.845000", "162246.095000", "162247.345000", "162248.595000", "162249.845000", "162251.095000", "162252.345000", "162253.595000", "162254.845000", "162256.095000", "162257.345000", "162258.595000", "162259.845000", "162301.095000", "162302.345000", "162303.595000", "162304.845000", "162306.095000", "162307.345000", "162308.595000", "162309.845000", "162311.095000", "162312.345000", "162313.595000", "162314.845000", "162316.095000", "162317.345000", "162318.595000", "162319.845000", "162321.095000", "162322.345000", "162323.595000", "162324.845000", "162326.095000", "162327.345000", "162328.595000", "162329.845000", "162331.095000", "162332.345000", "162333.595000", "162334.845000", "162336.095000", "162337.345000", "162338.595000", "162339.845000", "162341.095000", "162342.345000", "162343.595000", "162344.845000", "162346.095000", "162347.345000", "162348.595000", "162349.845000", "162351.095000", "162352.345000", "162353.595000", "162354.845000", "162356.095000", "162357.345000", "162358.595000", "162359.845000", "162401.095000", "162402.345000", "162403.595000", "162404.845000", "162406.095000", "162407.345000", "162408.595000", "162409.845000", "162411.095000", "162412.345000", "162413.595000", "162414.845000", "162416.095000", "162417.345000", "162418.595000", "162419.845000", "162421.095000", "162422.345000", "162423.595000", "162424.845000", "162426.095000", "162427.345000", "162428.595000", "162429.845000", "162431.095000", "162432.345000", "162433.595000", "162434.845000", "162436.095000", "162437.345000", "162438.595000", "162439.845000", "162441.095000", "162442.345000", "162443.595000", "162444.845000", "162446.095000", "162447.345000", "162448.595000", "162449.845000", "162451.095000", "162452.345000", "162453.595000", "162454.845000", "162456.095000", "162457.345000", "162458.595000", "162459.845000", "162501.095000", "162502.345000", "162503.595000", "162504.845000", "162506.095000", "162507.345000", "162508.595000", "162509.845000", "162511.095000", "162512.345000", "162513.595000", "162514.845000", "162516.095000", "162517.345000", "162518.595000", "162519.845000", "162521.095000", "162522.345000", "162523.595000", "162524.845000", "162526.095000", "162527.345000", "162528.595000", "162529.845000", "162531.095000", "162532.345000", "162533.595000", "162534.845000", "162536.095000", "162537.345000"],
      "ContentTime": ["161950.258000", "161951.369000", "161952.599000", "161953.847000", "161955.148000", "161956.372000", "161957.631000", "161958.869000", "162000.096000", "162001.357000", "162002.714000", "162003.888000", "162005.083000", "162006.342000", "162007.622000", "162008.886000", "162010.123000", "162011.358000", "162012.638000", "162013.876000", "162015.106000", "162016.374000", "162017.584000", "162018.862000", "162020.104000", "162021.345000", "162022.594000", "162023.829000", "162025.116000", "162026.348000", "162027.581000", "162028.843000", "162030.087000", "162031.351000", "162032.583000", "162033.852000", "162035.118000", "162036.346000", "162037.620000", "162038.858000", "162040.129000", "162041.352000", "162042.617000", "162043.823000", "162045.115000", "162046.347000", "162047.567000", "162048.858000", "162050.138000", "162051.366000", "162052.588000", "162053.836000", "162055.092000", "162056.345000", "162057.582000", "162058.943000", "162100.118000", "162101.318000", "162102.574000", "162103.844000", "162105.081000", "162106.364000", "162107.589000", "162108.851000", "162110.091000", "162111.389000", "162112.612000", "162113.847000", "162115.089000", "162116.364000", "162117.638000", "162118.839000", "162120.081000", "162121.425000", "162122.600000", "162123.849000", "162125.068000", "162126.363000", "162127.595000", "162128.867000", "162130.090000", "162131.361000", "162132.584000", "162133.811000", "162135.110000", "162136.342000", "162137.589000", "162138.875000", "162140.114000", "162141.331000", "162142.595000", "162143.827000", "162145.066000", "162146.342000", "162147.628000", "162148.855000", "162150.104000", "162151.368000", "162152.574000", "162153.849000", "162155.103000", "162156.369000", "162157.607000", "162158.860000", "162200.116000", "162201.368000", "162202.615000", "162203.893000", "162205.097000", "162206.363000", "162207.630000", "162208.930000", "162210.126000", "162211.336000", "162212.612000", "162213.849000", "162215.097000", "162216.355000", "162217.573000", "162218.865000", "162220.126000", "162221.413000", "162222.588000", "162223.892000", "162225.162000", "162226.371000", "162227.593000", "162228.862000", "162230.145000", "162231.354000", "162232.600000", "162233.869000", "162235.126000", "162236.384000", "162237.606000", "162238.845000", "162240.144000", "162241.358000", "162242.589000", "162243.850000", "162245.105000", "162246.377000", "162247.613000", "162248.851000", "162250.144000", "162251.354000", "162252.606000", "162253.854000", "162255.108000", "162256.349000", "162257.582000", "162258.837000", "162300.118000", "162301.362000", "162302.625000", "162303.815000", "162305.099000", "162306.394000", "162307.610000", "162308.866000", "162310.113000", "162311.433000", "162312.595000", "162313.883000", "162315.105000", "162316.331000", "162317.668000", "162318.863000", "162320.120000", "162321.386000", "162322.588000", "162323.836000", "162325.123000", "162326.360000", "162327.596000", "162328.849000", "162330.131000", "162331.349000", "162332.624000", "162333.892000", "162335.101000", "162336.346000", "162337.584000", "162338.848000", "162340.114000", "162341.381000", "162342.654000", "162343.886000", "162345.126000", "162346.338000", "162347.611000", "162348.875000", "162350.130000", "162351.347000", "162352.591000", "162353.862000", "162355.074000", "162356.343000", "162357.597000", "162358.827000", "162400.097000", "162401.351000", "162402.621000", "162403.852000", "162405.115000", "162406.337000", "162407.628000", "162408.830000", "162410.117000", "162411.362000", "162412.659000", "162413.909000", "162415.079000", "162416.371000", "162417.585000", "162418.853000", "162420.125000", "162421.346000", "162422.590000", "162423.862000", "162425.095000", "162426.384000", "162427.605000", "162428.869000", "162430.124000", "162431.365000", "162432.631000", "162433.842000", "162435.086000", "162436.355000", "162437.650000", "162438.862000", "162440.085000", "162441.369000", "162442.614000", "162443.881000", "162445.140000", "162446.335000", "162447.641000", "162448.877000", "162450.122000", "162451.364000", "162452.622000", "162453.851000", "162455.071000", "162456.338000", "162457.642000", "162458.858000", "162500.099000", "162501.358000", "162502.600000", "162503.875000", "162505.080000", "162506.346000", "162507.597000", "162508.904000", "162510.132000", "162511.351000", "162512.679000", "162513.870000", "162515.109000", "162516.357000", "162517.599000", "162518.855000", "162520.105000", "162521.387000", "162522.629000", "162523.846000", "162525.146000", "162526.376000", "162527.583000", "162528.867000", "162530.091000", "162531.339000", "162532.603000", "162533.891000", "162535.146000", "162536.372000", "162537.617000", "162538.890000"],
      "InstanceCreationTime": ["161950.258000", "161951.369000", "161952.599000", "161953.847000", "161955.148000", "161956.372000", "161957.631000", "161958.869000", "162000.096000", "162001.357000", "162002.714000", "162003.888000", "162005.083000", "162006.342000", "162007.622000", "162008.886000", "162010.123000", "162011.358000", "162012.638000", "162013.876000", "162015.106000", "162016.374000", "162017.584000", "162018.862000", "162020.104000", "162021.345000", "162022.594000", "162023.829000", "162025.116000", "162026.348000", "162027.581000", "162028.843000", "162030.087000", "162031.351000", "162032.583000", "162033.852000", "162035.118000", "162036.346000", "162037.620000", "162038.858000", "162040.129000", "162041.352000", "162042.617000", "162043.823000", "162045.115000", "162046.347000", "162047.567000", "162048.858000", "162050.138000", "162051.366000", "162052.588000", "162053.836000", "162055.092000", "162056.345000", "162057.582000", "162058.943000", "162100.118000", "162101.318000", "162102.574000", "162103.844000", "162105.081000", "162106.364000", "162107.589000", "162108.851000", "162110.091000", "162111.389000", "162112.612000", "162113.847000", "162115.089000", "162116.364000", "162117.638000", "162118.839000", "162120.081000", "162121.425000", "162122.600000", "162123.849000", "162125.068000", "162126.363000", "162127.595000", "162128.867000", "162130.090000", "162131.361000", "162132.584000", "162133.811000", "162135.110000", "162136.342000", "162137.589000", "162138.875000", "162140.114000", "162141.331000", "162142.595000", "162143.827000", "162145.066000", "162146.342000", "162147.628000", "162148.855000", "162150.104000", "162151.368000", "162152.574000", "162153.849000", "162155.103000", "162156.369000", "162157.607000", "162158.860000", "162200.116000", "162201.368000", "162202.615000", "162203.893000", "162205.097000", "162206.363000", "162207.630000", "162208.930000", "162210.126000", "162211.336000", "162212.612000", "162213.849000", "162215.097000", "162216.355000", "162217.573000", "162218.865000", "162220.126000", "162221.413000", "162222.588000", "162223.892000", "162225.162000", "162226.371000", "162227.593000", "162228.862000", "162230.145000", "162231.354000", "162232.600000", "162233.869000", "162235.126000", "162236.384000", "162237.606000", "162238.845000", "162240.144000", "162241.358000", "162242.589000", "162243.850000", "162245.105000", "162246.377000", "162247.613000", "162248.851000", "162250.144000", "162251.354000", "162252.606000", "162253.854000", "162255.108000", "162256.349000", "162257.582000", "162258.837000", "162300.118000", "162301.362000", "162302.625000", "162303.815000", "162305.099000", "162306.394000", "162307.610000", "162308.866000", "162310.113000", "162311.433000", "162312.595000", "162313.883000", "162315.105000", "162316.331000", "162317.668000", "162318.863000", "162320.120000", "162321.386000", "162322.588000", "162323.836000", "162325.123000", "162326.360000", "162327.596000", "162328.849000", "162330.131000", "162331.349000", "162332.624000", "162333.892000", "162335.101000", "162336.346000", "162337.584000", "162338.848000", "162340.114000", "162341.381000", "162342.654000", "162343.886000", "162345.126000", "162346.338000", "162347.611000", "162348.875000", "162350.130000", "162351.347000", "162352.591000", "162353.862000", "162355.074000", "162356.343000", "162357.597000", "162358.827000", "162400.097000", "162401.351000", "162402.621000", "162403.852000", "162405.115000", "162406.337000", "162407.628000", "162408.830000", "162410.117000", "162411.362000", "162412.659000", "162413.909000", "162415.079000", "162416.371000", "162417.585000", "162418.853000", "162420.125000", "162421.346000", "162422.590000", "162423.862000", "162425.095000", "162426.384000", "162427.605000", "162428.869000", "162430.124000", "162431.365000", "162432.631000", "162433.842000", "162435.086000", "162436.355000", "162437.650000", "162438.862000", "162440.085000", "162441.369000", "162442.614000", "162443.881000", "162445.140000", "162446.335000", "162447.641000", "162448.877000", "162450.122000", "162451.364000", "162452.622000", "162453.851000", "162455.071000", "162456.338000", "162457.642000", "162458.858000", "162500.099000", "162501.358000", "162502.600000", "162503.875000", "162505.080000", "162506.346000", "162507.597000", "162508.904000", "162510.132000", "162511.351000", "162512.679000", "162513.870000", "162515.109000", "162516.357000", "162517.599000", "162518.855000", "162520.105000", "162521.387000", "162522.629000", "162523.846000", "162525.146000", "162526.376000", "162527.583000", "162528.867000", "162530.091000", "162531.339000", "162532.603000", "162533.891000", "162535.146000", "162536.372000", "162537.617000", "162538.890000"],
      "InstanceNumber": [1, 2, 3, 4, 5, 6, 7, 8, 9, 10, 11, 12, 13, 14, 15, 16, 17, 18, 19, 20, 21, 22, 23, 24, 25, 26, 27, 28, 29, 30, 31, 32, 33, 34, 35, 36, 37, 38, 39, 40, 41, 42, 43, 44, 45, 46, 47, 48, 49, 50, 51, 52, 53, 54, 55, 56, 57, 58, 59, 60, 61, 62, 63, 64, 65, 66, 67, 68, 69, 70, 71, 72, 73, 74, 75, 76, 77, 78, 79, 80, 81, 82, 83, 84, 85, 86, 87, 88, 89, 90, 91, 92, 93, 94, 95, 96, 97, 98, 99, 100, 101, 102, 103, 104, 105, 106, 107, 108, 109, 110, 111, 112, 113, 114, 115, 116, 117, 118, 119, 120, 121, 122, 123, 124, 125, 126, 127, 128, 129, 130, 131, 132, 133, 134, 135, 136, 137, 138, 139, 140, 141, 142, 143, 144, 145, 146, 147, 148, 149, 150, 151, 152, 153, 154, 155, 156, 157, 158, 159, 160, 161, 162, 163, 164, 165, 166, 167, 168, 169, 170, 171, 172, 173, 174, 175, 176, 177, 178, 179, 180, 181, 182, 183, 184, 185, 186, 187, 188, 189, 190, 191, 192, 193, 194, 195, 196, 197, 198, 199, 200, 201, 202, 203, 204, 205, 206, 207, 208, 209, 210, 211, 212, 213, 214, 215, 216, 217, 218, 219, 220, 221, 222, 223, 224, 225, 226, 227, 228, 229, 230, 231, 232, 233, 234, 235, 236, 237, 238, 239, 240, 241, 242, 243, 244, 245, 246, 247, 248, 249, 250, 251, 252, 253, 254, 255, 256, 257, 258, 259, 260, 261, 262, 263, 264, 265, 266, 267, 268, 269, 270, 271, 272, 273, 274, 275, 276, 277, 278, 279, 280],
      "LargestImagePixelValue": [914, 1329, 988, 1455, 1286, 1278, 831, 1292, 836, 1290, 1402, 1070, 1278, 864, 1263, 911, 1284, 1444, 1104, 1303, 875, 1262, 913, 1315, 1321, 1005, 1278, 800, 1255, 1034, 1259, 1164, 1035, 1035, 1298, 1057, 1248, 973, 1351, 901, 806, 1139, 1120, 1174, 975, 1299, 1205, 1281, 981, 1327, 1011, 1410, 936, 1339, 913, 1316, 946, 833, 1267, 803, 1297, 1367, 1026, 1294, 800, 1289, 1330, 1035, 1129, 1094, 1459, 1061, 1321, 938, 1224, 995, 1315, 929, 1210, 967, 1269, 966, 1249, 986, 1336, 953, 1360, 974, 1445, 870, 1298, 860, 1286, 807, 1273, 1335, 1406, 907, 1322, 1248, 1318, 808, 1314, 901, 1385, 794, 1313, 935, 1375, 961, 1237, 1360, 987, 1287, 953, 1386, 807, 1294, 847, 1276, 1159, 1278, 802, 1270, 1344, 1121, 1355, 981, 1417, 892, 1313, 950, 1393, 814, 1299, 1129, 1328, 909, 834, 1331, 797, 1310, 1469, 974, 1329, 935, 1319, 864, 1300, 902, 1335, 1018, 1316, 1266, 1233, 843, 1292, 1434, 1146, 871, 1325, 784, 1340, 1371, 1291, 1079, 1059, 1112, 1242, 1205, 1189, 1470, 920, 1332, 1115, 1311, 884, 1336, 901, 1297, 950, 1274, 804, 1315, 885, 1342, 843, 1305, 870, 1293, 1457, 1162, 1315, 946, 1314, 770, 932, 1211, 947, 1217, 1368, 1477, 1015, 1171, 951, 1338, 952, 797, 1293, 984, 1062, 1325, 1441, 1307, 958, 1185, 1152, 1177, 900, 1297, 1083, 1061, 1350, 901, 1318, 906, 1218, 1270, 904, 1338, 859, 1347, 984, 1307, 867, 1155, 1511, 847, 1318, 944, 1282, 835, 1250, 1466, 881, 1188, 912, 1297, 812, 1259, 1471, 885, 1313, 933, 1302, 860, 1253, 1473, 882, 1237, 953, 1371, 938, 769, 1344, 1387, 973, 1523, 935, 1293, 943, 1255, 884, 1266, 876, 1276, 892, 1306, 936, 1195],
      "WindowCenter": [389.0, 392.0, 390.0, 392.0, 391.0, 391.0, 388.0, 391.0, 388.0, 391.0, 392.0, 389.0, 390.0, 389.0, 391.0, 389.0, 392.0, 392.0, 389.0, 390.0, 388.0, 390.0, 388.0, 391.0, 392.0, 389.0, 391.0, 389.0, 392.0, 392.0, 393.0, 392.0, 391.0, 390.0, 391.0, 390.0, 391.0, 388.0, 390.0, 388.0, 388.0, 391.0, 392.0, 392.0, 391.0, 393.0, 391.0, 391.0, 390.0, 392.0, 389.0, 391.0, 388.0, 390.0, 387.0, 390.0, 387.0, 387.0, 391.0, 388.0, 393.0, 393.0, 390.0, 392.0, 389.0, 392.0, 392.0, 390.0, 390.0, 389.0, 391.0, 389.0, 390.0, 387.0, 390.0, 389.0, 391.0, 388.0, 391.0, 389.0, 391.0, 389.0, 391.0, 390.0, 392.0, 390.0, 392.0, 389.0, 392.0, 388.0, 391.0, 389.0, 392.0, 389.0, 391.0, 392.0, 392.0, 388.0, 391.0, 390.0, 391.0, 388.0, 391.0, 388.0, 392.0, 388.0, 392.0, 389.0, 392.0, 389.0, 391.0, 391.0, 389.0, 391.0, 389.0, 391.0, 387.0, 391.0, 388.0, 391.0, 390.0, 391.0, 388.0, 391.0, 391.0, 390.0, 391.0, 389.0, 392.0, 388.0, 391.0, 389.0, 391.0, 387.0, 391.0, 389.0, 390.0, 388.0, 389.0, 392.0, 388.0, 391.0, 392.0, 388.0, 390.0, 388.0, 390.0, 388.0, 391.0, 389.0, 391.0, 390.0, 391.0, 390.0, 390.0, 387.0, 391.0, 391.0, 389.0, 388.0, 391.0, 387.0, 392.0, 392.0, 391.0, 389.0, 389.0, 390.0, 391.0, 391.0, 391.0, 392.0, 388.0, 391.0, 389.0, 390.0, 387.0, 390.0, 388.0, 391.0, 389.0, 390.0, 387.0, 391.0, 388.0, 391.0, 388.0, 391.0, 388.0, 392.0, 392.0, 390.0, 390.0, 388.0, 390.0, 387.0, 389.0, 391.0, 390.0, 392.0, 392.0, 392.0, 388.0, 389.0, 388.0, 390.0, 388.0, 387.0, 391.0, 390.0, 390.0, 391.0, 391.0, 390.0, 388.0, 390.0, 390.0, 390.0, 388.0, 391.0, 390.0, 390.0, 391.0, 388.0, 391.0, 388.0, 390.0, 391.0, 388.0, 391.0, 388.0, 391.0, 389.0, 391.0, 388.0, 390.0, 391.0, 387.0, 390.0, 388.0, 390.0, 387.0, 391.0, 391.0, 388.0, 390.0, 388.0, 391.0, 387.0, 391.0, 392.0, 387.0, 390.0, 388.0, 391.0, 388.0, 391.0, 392.0, 387.0, 390.0, 388.0, 391.0, 388.0, 387.0, 392.0, 392.0, 389.0, 392.0, 388.0, 390.0, 387.0, 390.0, 388.0, 391.0, 388.0, 391.0, 389.0, 391.0, 388.0, 391.0],
      "WindowWidth": [828.0, 831.0, 828.0, 831.0, 829.0, 829.0, 825.0, 829.0, 826.0, 829.0, 830.0, 826.0, 827.0, 826.0, 830.0, 827.0, 830.0, 830.0, 826.0, 828.0, 824.0, 828.0, 825.0, 829.0, 830.0, 826.0, 829.0, 826.0, 831.0, 832.0, 833.0, 832.0, 830.0, 829.0, 830.0, 827.0, 829.0, 825.0, 828.0, 824.0, 824.0, 828.0, 830.0, 831.0, 829.0, 832.0, 829.0, 828.0, 827.0, 830.0, 826.0, 829.0, 824.0, 826.0, 822.0, 826.0, 823.0, 823.0, 829.0, 826.0, 832.0, 832.0, 828.0, 830.0, 826.0, 830.0, 830.0, 827.0, 827.0, 826.0, 829.0, 825.0, 827.0, 823.0, 828.0, 826.0, 829.0, 825.0, 828.0, 826.0, 829.0, 826.0, 830.0, 827.0, 830.0, 827.0, 831.0, 826.0, 830.0, 824.0, 829.0, 826.0, 830.0, 826.0, 830.0, 830.0, 830.0, 825.0, 829.0, 828.0, 829.0, 824.0, 829.0, 825.0, 830.0, 825.0, 830.0, 826.0, 830.0, 826.0, 828.0, 829.0, 826.0, 829.0, 826.0, 829.0, 824.0, 829.0, 825.0, 829.0, 827.0, 829.0, 825.0, 829.0, 829.0, 827.0, 829.0, 826.0, 830.0, 825.0, 829.0, 826.0, 829.0, 823.0, 828.0, 826.0, 828.0, 825.0, 826.0, 830.0, 825.0, 829.0, 830.0, 825.0, 827.0, 825.0, 828.0, 824.0, 829.0, 827.0, 829.0, 827.0, 829.0, 828.0, 828.0, 823.0, 828.0, 829.0, 826.0, 824.0, 829.0, 824.0, 830.0, 830.0, 829.0, 826.0, 827.0, 827.0, 829.0, 830.0, 829.0, 830.0, 825.0, 829.0, 825.0, 827.0, 823.0, 828.0, 824.0, 828.0, 826.0, 828.0, 823.0, 829.0, 824.0, 829.0, 825.0, 829.0, 826.0, 831.0, 830.0, 827.0, 828.0, 825.0, 828.0, 822.0, 826.0, 830.0, 828.0, 830.0, 831.0, 830.0, 825.0, 826.0, 824.0, 828.0, 825.0, 824.0, 829.0, 828.0, 827.0, 829.0, 829.0, 827.0, 824.0, 827.0, 827.0, 827.0, 825.0, 830.0, 828.0, 827.0, 829.0, 824.0, 828.0, 824.0, 827.0, 828.0, 825.0, 829.0, 824.0, 829.0, 826.0, 829.0, 825.0, 827.0, 829.0, 823.0, 828.0, 825.0, 828.0, 824.0, 828.0, 829.0, 824.0, 827.0, 825.0, 829.0, 824.0, 828.0, 829.0, 823.0, 828.0, 825.0, 829.0, 824.0, 828.0, 830.0, 823.0, 827.0, 825.0, 828.0, 825.0, 824.0, 830.0, 830.0, 826.0, 830.0, 824.0, 827.0, 823.0, 827.0, 824.0, 829.0, 825.0, 829.0, 826.0, 829.0, 825.0, 830.0]
    },
    "slices": {}
  }
}