{
  "AcquisitionMatrixPE": 96,
  "AcquisitionNumber": 1,
  "AcquisitionTime": "15:50:30.270000",
  "BandwidthPerPixelPhaseEncode": 18.939,
  "BaseResolution": 96,
  "BodyPartExamined": "BRAIN",
  "ConsistencyInfo": "N4_VE11C_LATEST_20160120",
  "ConversionSoftware": "dcm2niix",
  "ConversionSoftwareVersion": "v1.0.20170923 (OpenJPEG build) GCC6.3.0",
  "DerivedVendorReportedEchoSpacing": 0.000550011,
  "DeviceSerialNumber": "66112",
  "DwellTime": 2.3e-06,
  "EchoTime": 0.033,
  "EchoTrainLength": 96,
  "EffectiveEchoSpacing": 0.000550011,
  "FlipAngle": 64,
  "ImageType": [
    "ORIGINAL",
    "PRIMARY",
    "FMRI",
    "NONE",
    "ND",
    "NORM",
    "MOSAIC"
],
  "InstitutionAddress": "Maynard_3_Hanover_NH_US_03755",
  "InstitutionName": "Dartmouth_College_-_PBS",
  "MagneticFieldStrength": 3,
  "Manufacturer": "Siemens",
  "ManufacturersModelName": "Prisma",
  "Modality": "MR",
  "MultibandAccelerationFactor": 4,
  "PartialFourier": 1,
  "PercentPhaseFOV": 100,
  "PhaseEncodingDirection": "j-",
  "PhaseEncodingSteps": 96,
  "PhaseResolution": 1,
  "ProcedureStepDescription": "Gobbini_Matteo_1017_famface-angles",
  "ProtocolName": "func_run-04_task-str1back",
  "PulseSequenceDetails": "%SiemensSeq%_ep2d_bold",
  "ReceiveCoilActiveElements": "HEA;HEP",
  "ReceiveCoilName": "Head_32",
  "ReconMatrixPE": 96,
  "RepetitionTime": 1.25,
  "ScanOptions": "FS",
  "ScanningSequence": "EP",
  "SequenceName": "_epfid2d1_96",
  "SequenceVariant": "SK",
  "SeriesDescription": "func_run-04_task-str1back",
  "SliceTiming": [0.88, 0, 0.615, 0.0875, 0.7025, 0.175, 0.79, 0.3525, 0.9675, 0.44, 1.055, 0.5275, 1.1425, 0.265, 0.88, 0, 0.615, 0.0875, 0.7025, 0.175, 0.79, 0.3525, 0.9675, 0.44, 1.055, 0.5275, 1.1425, 0.265, 0.88, 0, 0.615, 0.0875, 0.7025, 0.175, 0.79, 0.3525, 0.9675, 0.44, 1.055, 0.5275, 1.1425, 0.265, 0.88, 0, 0.615, 0.0875, 0.7025, 0.175, 0.79, 0.3525, 0.9675, 0.44, 1.055, 0.5275, 1.1425, 0.265],
  "SoftwareVersions": "syngo_MR_E11",
  "StationName": "AWP66112",
  "TaskName": "str1back",
  "TotalReadoutTime": 0.0522511,
  "dcmmeta_affine": [
    [-2.4999420642852783, 0.008290061727166176, -0.014884415082633495, 123.82583618164062],
    [0.009952063672244549, 2.4832870960235596, -0.28842103481292725, -86.02306365966797],
    [-0.013828498311340809, 0.28847357630729675, 2.483262300491333, -81.70022583007812],
    [0.0, 0.0, 0.0, 1.0]
],
  "dcmmeta_reorient_transform": [
    [0.0, -1.0, 0.0, 95.0],
    [1.0, 0.0, 0.0, 0.0],
    [0.0, 0.0, 1.0, 0.0],
    [0.0, 0.0, 0.0, 1.0]
],
  "dcmmeta_shape": [96, 96, 56, 280],
  "dcmmeta_slice_dim": 2,
  "dcmmeta_version": 0.6,
  "global": {
    "const": {
      "AccessionNumber": "A000457",
      "AcquisitionMatrix": [96, 0, 0, 96],
      "AngioFlag": "N",
      "BitsAllocated": 16,
      "BitsStored": 12,
      "BodyPartExamined": "BRAIN",
      "Columns": 768,
      "EchoNumbers": 1,
      "EchoTime": 33.0,
      "EchoTrainLength": 96,
      "FlipAngle": 64.0,
      "HighBit": 11,
      "ImageOrientationPatient": [0.99997677805618, -0.0039808254013, -0.0055313992362, 0.00331602474293, 0.99331479521049, -0.115389434507],
      "ImagePositionPatient": [-967.37934573018, -980.92973562007, 47.278267666432],
      "ImageType": [
        "ORIGINAL",
        "PRIMARY",
        "FMRI",
        "NONE",
        "ND",
        "NORM",
        "MOSAIC"
],
      "ImagedNucleus": "1H",
      "ImagingFrequency": 123.252367,
      "InPlanePhaseEncodingDirection": "COL",
      "MRAcquisitionType": "2D",
      "MagneticFieldStrength": 3.0,
      "Manufacturer": "SIEMENS",
      "ManufacturerModelName": "Prisma",
      "Modality": "MR",
      "NumberOfAverages": 1.0,
      "NumberOfPhaseEncodingSteps": 96,
      "PercentPhaseFieldOfView": 100.0,
      "PercentSampling": 100.0,
      "PerformedProcedureStepStartTime": "152148.325000",
      "PhotometricInterpretation": "MONOCHROME2",
      "PixelBandwidth": 2265.0,
      "PixelRepresentation": 0,
      "PixelSpacing": [2.5, 2.5],
      "PositionReferenceIndicator": "",
      "ProtocolName": "func_run-04_task-str1back",
      "RepetitionTime": 1250.0,
      "Rows": 768,
      "SAR": 0.06135301516132,
      "SamplesPerPixel": 1,
      "ScanOptions": "FS",
      "ScanningSequence": "EP",
      "SequenceName": "*epfid2d1_96",
      "SequenceVariant": "SK",
      "SeriesDescription": "func_run-04_task-str1back",
      "SeriesNumber": 29,
      "SeriesTime": "155031.411000",
      "SliceLocation": -71.966120396205,
      "SliceThickness": 2.5,
      "SmallestImagePixelValue": 0,
      "SoftwareVersions": "syngo MR E11",
      "SpacingBetweenSlices": 2.5000000332155,
      "SpecificCharacterSet": "ISO_IR 100",
      "StudyID": "1",
      "StudyTime": "152148.263000",
      "TransmitCoilName": "Body",
      "VariableFlipAngleFlag": "N",
      "WindowCenterWidthExplanation": "Algo1",
      "dBdt": 0.0},
    "slices": {}
  },
  "time": {
    "samples": {
      "AcquisitionNumber": [1, 2, 3, 4, 5, 6, 7, 8, 9, 10, 11, 12, 13, 14, 15, 16, 17, 18, 19, 20, 21, 22, 23, 24, 25, 26, 27, 28, 29, 30, 31, 32, 33, 34, 35, 36, 37, 38, 39, 40, 41, 42, 43, 44, 45, 46, 47, 48, 49, 50, 51, 52, 53, 54, 55, 56, 57, 58, 59, 60, 61, 62, 63, 64, 65, 66, 67, 68, 69, 70, 71, 72, 73, 74, 75, 76, 77, 78, 79, 80, 81, 82, 83, 84, 85, 86, 87, 88, 89, 90, 91, 92, 93, 94, 95, 96, 97, 98, 99, 100, 101, 102, 103, 104, 105, 106, 107, 108, 109, 110, 111, 112, 113, 114, 115, 116, 117, 118, 119, 120, 121, 122, 123, 124, 125, 126, 127, 128, 129, 130, 131, 132, 133, 134, 135, 136, 137, 138, 139, 140, 141, 142, 143, 144, 145, 146, 147, 148, 149, 150, 151, 152, 153, 154, 155, 156, 157, 158, 159, 160, 161, 162, 163, 164, 165, 166, 167, 168, 169, 170, 171, 172, 173, 174, 175, 176, 177, 178, 179, 180, 181, 182, 183, 184, 185, 186, 187, 188, 189, 190, 191, 192, 193, 194, 195, 196, 197, 198, 199, 200, 201, 202, 203, 204, 205, 206, 207, 208, 209, 210, 211, 212, 213, 214, 215, 216, 217, 218, 219, 220, 221, 222, 223, 224, 225, 226, 227, 228, 229, 230, 231, 232, 233, 234, 235, 236, 237, 238, 239, 240, 241, 242, 243, 244, 245, 246, 247, 248, 249, 250, 251, 252, 253, 254, 255, 256, 257, 258, 259, 260, 261, 262, 263, 264, 265, 266, 267, 268, 269, 270, 271, 272, 273, 274, 275, 276, 277, 278, 279, 280],
      "AcquisitionTime": ["155030.270000", "155031.520000", "155032.770000", "155034.020000", "155035.270000", "155036.520000", "155037.770000", "155039.020000", "155040.270000", "155041.520000", "155042.770000", "155044.020000", "155045.270000", "155046.520000", "155047.770000", "155049.020000", "155050.270000", "155051.520000", "155052.770000", "155054.020000", "155055.270000", "155056.520000", "155057.770000", "155059.020000", "155100.270000", "155101.520000", "155102.770000", "155104.020000", "155105.270000", "155106.520000", "155107.770000", "155109.020000", "155110.270000", "155111.520000", "155112.770000", "155114.020000", "155115.270000", "155116.520000", "155117.770000", "155119.020000", "155120.270000", "155121.520000", "155122.770000", "155124.020000", "155125.270000", "155126.520000", "155127.770000", "155129.020000", "155130.270000", "155131.520000", "155132.770000", "155134.020000", "155135.270000", "155136.520000", "155137.770000", "155139.020000", "155140.270000", "155141.520000", "155142.770000", "155144.020000", "155145.270000", "155146.520000", "155147.770000", "155149.020000", "155150.270000", "155151.520000", "155152.770000", "155154.020000", "155155.270000", "155156.520000", "155157.770000", "155159.020000", "155200.270000", "155201.520000", "155202.770000", "155204.020000", "155205.270000", "155206.520000", "155207.770000", "155209.020000", "155210.270000", "155211.520000", "155212.770000", "155214.020000", "155215.270000", "155216.520000", "155217.770000", "155219.020000", "155220.270000", "155221.520000", "155222.770000", "155224.020000", "155225.270000", "155226.520000", "155227.770000", "155229.020000", "155230.270000", "155231.520000", "155232.770000", "155234.020000", "155235.270000", "155236.520000", "155237.770000", "155239.020000", "155240.270000", "155241.520000", "155242.770000", "155244.020000", "155245.270000", "155246.520000", "155247.770000", "155249.020000", "155250.270000", "155251.520000", "155252.770000", "155254.020000", "155255.270000", "155256.520000", "155257.770000", "155259.020000", "155300.270000", "155301.520000", "155302.770000", "155304.020000", "155305.270000", "155306.520000", "155307.770000", "155309.020000", "155310.270000", "155311.520000", "155312.770000", "155314.020000", "155315.270000", "155316.520000", "155317.770000", "155319.020000", "155320.270000", "155321.520000", "155322.770000", "155324.020000", "155325.270000", "155326.520000", "155327.770000", "155329.020000", "155330.270000", "155331.520000", "155332.770000", "155334.020000", "155335.270000", "155336.520000", "155337.770000", "155339.020000", "155340.270000", "155341.520000", "155342.770000", "155344.020000", "155345.270000", "155346.520000", "155347.770000", "155349.020000", "155350.270000", "155351.520000", "155352.770000", "155354.020000", "155355.270000", "155356.520000", "155357.770000", "155359.020000", "155400.270000", "155401.520000", "155402.770000", "155404.020000", "155405.270000", "155406.520000", "155407.770000", "155409.020000", "155410.270000", "155411.520000", "155412.770000", "155414.020000", "155415.270000", "155416.520000", "155417.770000", "155419.020000", "155420.270000", "155421.520000", "155422.770000", "155424.020000", "155425.270000", "155426.520000", "155427.770000", "155429.020000", "155430.270000", "155431.520000", "155432.770000", "155434.020000", "155435.270000", "155436.520000", "155437.770000", "155439.020000", "155440.270000", "155441.520000", "155442.770000", "155444.020000", "155445.270000", "155446.520000", "155447.770000", "155449.020000", "155450.270000", "155451.520000", "155452.770000", "155454.020000", "155455.270000", "155456.520000", "155457.770000", "155459.020000", "155500.270000", "155501.520000", "155502.770000", "155504.020000", "155505.270000", "155506.520000", "155507.770000", "155509.020000", "155510.270000", "155511.520000", "155512.770000", "155514.020000", "155515.270000", "155516.520000", "155517.770000", "155519.020000", "155520.270000", "155521.520000", "155522.770000", "155524.020000", "155525.270000", "155526.520000", "155527.770000", "155529.020000", "155530.270000", "155531.520000", "155532.770000", "155534.020000", "155535.270000", "155536.520000", "155537.770000", "155539.020000", "155540.270000", "155541.520000", "155542.770000", "155544.020000", "155545.270000", "155546.520000", "155547.770000", "155549.020000", "155550.270000", "155551.520000", "155552.770000", "155554.020000", "155555.270000", "155556.520000", "155557.770000", "155559.020000", "155600.270000", "155601.520000", "155602.770000", "155604.020000", "155605.270000", "155606.520000", "155607.770000", "155609.020000", "155610.270000", "155611.520000", "155612.770000", "155614.020000", "155615.270000", "155616.520000", "155617.770000", "155619.020000"],
      "ContentTime": ["155031.415000", "155032.496000", "155033.744000", "155035.012000", "155036.245000", "155037.496000", "155038.748000", "155040.014000", "155041.234000", "155042.476000", "155043.724000", "155044.967000", "155046.245000", "155047.503000", "155048.725000", "155050.004000", "155051.285000", "155052.485000", "155053.752000", "155055.033000", "155056.254000", "155057.511000", "155058.719000", "155100.051000", "155101.304000", "155102.428000", "155103.778000", "155105.032000", "155106.256000", "155107.474000", "155108.750000", "155110.005000", "155111.250000", "155112.491000", "155113.736000", "155114.959000", "155116.226000", "155117.497000", "155118.768000", "155119.973000", "155121.246000", "155122.462000", "155123.750000", "155125.005000", "155126.246000", "155127.481000", "155128.727000", "155129.993000", "155131.220000", "155132.486000", "155133.762000", "155134.993000", "155136.254000", "155137.514000", "155138.740000", "155139.981000", "155141.249000", "155142.508000", "155143.722000", "155144.979000", "155146.267000", "155147.485000", "155148.748000", "155149.986000", "155151.248000", "155152.520000", "155153.732000", "155154.990000", "155156.236000", "155157.482000", "155158.740000", "155159.998000", "155201.252000", "155202.468000", "155203.748000", "155205.003000", "155206.238000", "155207.468000", "155208.787000", "155209.966000", "155211.242000", "155212.521000", "155213.769000", "155214.990000", "155216.239000", "155217.525000", "155218.739000", "155219.991000", "155221.254000", "155222.464000", "155223.753000", "155224.962000", "155226.272000", "155227.489000", "155228.731000", "155230.011000", "155231.247000", "155232.505000", "155233.737000", "155235.004000", "155236.242000", "155237.522000", "155238.761000", "155240.025000", "155241.241000", "155242.511000", "155243.761000", "155244.990000", "155246.244000", "155247.524000", "155248.778000", "155249.992000", "155251.261000", "155252.606000", "155253.778000", "155255.037000", "155256.256000", "155257.533000", "155258.760000", "155300.023000", "155301.246000", "155302.505000", "155303.739000", "155304.993000", "155306.264000", "155307.545000", "155308.828000", "155309.972000", "155311.259000", "155312.503000", "155313.767000", "155315.008000", "155316.261000", "155317.518000", "155318.758000", "155320.016000", "155321.267000", "155322.519000", "155323.761000", "155325.003000", "155326.237000", "155327.540000", "155328.754000", "155330.002000", "155331.238000", "155332.576000", "155333.820000", "155335.029000", "155336.236000", "155337.503000", "155338.750000", "155340.035000", "155341.230000", "155342.496000", "155343.743000", "155345.020000", "155346.285000", "155347.518000", "155348.774000", "155350.017000", "155351.279000", "155352.521000", "155353.699000", "155355.020000", "155356.241000", "155357.501000", "155358.741000", "155400.026000", "155401.282000", "155402.529000", "155403.735000", "155405.019000", "155406.260000", "155407.487000", "155408.754000", "155410.015000", "155411.254000", "155412.487000", "155413.752000", "155415.051000", "155416.287000", "155417.522000", "155418.742000", "155420.052000", "155421.244000", "155422.491000", "155423.734000", "155425.007000", "155426.256000", "155427.496000", "155428.745000", "155429.995000", "155431.227000", "155432.491000", "155433.732000", "155434.998000", "155436.247000", "155437.491000", "155438.743000", "155440.003000", "155441.242000", "155442.505000", "155443.751000", "155444.990000", "155446.253000", "155447.530000", "155448.767000", "155449.986000", "155451.287000", "155452.578000", "155453.777000", "155454.967000", "155456.270000", "155457.567000", "155458.776000", "155500.013000", "155501.243000", "155502.495000", "155503.758000", "155505.003000", "155506.254000", "155507.530000", "155508.748000", "155510.001000", "155511.229000", "155512.484000", "155513.820000", "155514.996000", "155516.233000", "155517.485000", "155518.771000", "155520.038000", "155521.268000", "155522.515000", "155523.763000", "155524.983000", "155526.284000", "155527.474000", "155528.788000", "155529.986000", "155531.252000", "155532.502000", "155533.766000", "155535.001000", "155536.260000", "155537.474000", "155538.748000", "155540.010000", "155541.241000", "155542.520000", "155543.760000", "155544.975000", "155546.242000", "155547.482000", "155548.742000", "155549.993000", "155551.291000", "155552.486000", "155553.736000", "155555.026000", "155556.279000", "155557.486000", "155558.731000", "155559.954000", "155601.288000", "155602.475000", "155603.797000", "155605.004000", "155606.227000", "155607.528000", "155608.723000", "155609.987000", "155611.267000", "155612.533000", "155613.745000", "155614.998000", "155616.258000", "155617.508000", "155618.810000", "155620.044000"],
      "InstanceCreationTime": ["155031.415000", "155032.496000", "155033.744000", "155035.012000", "155036.245000", "155037.496000", "155038.748000", "155040.014000", "155041.234000", "155042.476000", "155043.724000", "155044.967000", "155046.245000", "155047.503000", "155048.725000", "155050.004000", "155051.285000", "155052.485000", "155053.752000", "155055.033000", "155056.254000", "155057.511000", "155058.719000", "155100.051000", "155101.304000", "155102.428000", "155103.778000", "155105.032000", "155106.256000", "155107.474000", "155108.750000", "155110.005000", "155111.250000", "155112.491000", "155113.736000", "155114.959000", "155116.226000", "155117.497000", "155118.768000", "155119.973000", "155121.246000", "155122.462000", "155123.750000", "155125.005000", "155126.246000", "155127.481000", "155128.727000", "155129.993000", "155131.220000", "155132.486000", "155133.762000", "155134.993000", "155136.254000", "155137.514000", "155138.740000", "155139.981000", "155141.249000", "155142.508000", "155143.722000", "155144.979000", "155146.267000", "155147.485000", "155148.748000", "155149.986000", "155151.248000", "155152.520000", "155153.732000", "155154.990000", "155156.236000", "155157.482000", "155158.740000", "155159.998000", "155201.252000", "155202.468000", "155203.748000", "155205.003000", "155206.238000", "155207.468000", "155208.787000", "155209.966000", "155211.242000", "155212.521000", "155213.769000", "155214.990000", "155216.239000", "155217.525000", "155218.739000", "155219.991000", "155221.254000", "155222.464000", "155223.753000", "155224.962000", "155226.272000", "155227.489000", "155228.731000", "155230.011000", "155231.247000", "155232.505000", "155233.737000", "155235.004000", "155236.242000", "155237.522000", "155238.761000", "155240.025000", "155241.241000", "155242.511000", "155243.761000", "155244.990000", "155246.244000", "155247.524000", "155248.778000", "155249.992000", "155251.261000", "155252.606000", "155253.778000", "155255.037000", "155256.256000", "155257.533000", "155258.760000", "155300.023000", "155301.246000", "155302.505000", "155303.739000", "155304.993000", "155306.264000", "155307.545000", "155308.828000", "155309.972000", "155311.259000", "155312.503000", "155313.767000", "155315.008000", "155316.261000", "155317.518000", "155318.758000", "155320.016000", "155321.267000", "155322.519000", "155323.761000", "155325.003000", "155326.237000", "155327.540000", "155328.754000", "155330.002000", "155331.238000", "155332.576000", "155333.820000", "155335.029000", "155336.236000", "155337.503000", "155338.750000", "155340.035000", "155341.230000", "155342.496000", "155343.743000", "155345.020000", "155346.285000", "155347.518000", "155348.774000", "155350.017000", "155351.279000", "155352.521000", "155353.699000", "155355.020000", "155356.241000", "155357.501000", "155358.741000", "155400.026000", "155401.282000", "155402.529000", "155403.735000", "155405.019000", "155406.260000", "155407.487000", "155408.754000", "155410.015000", "155411.254000", "155412.487000", "155413.752000", "155415.051000", "155416.287000", "155417.522000", "155418.742000", "155420.052000", "155421.244000", "155422.491000", "155423.734000", "155425.007000", "155426.256000", "155427.496000", "155428.745000", "155429.995000", "155431.227000", "155432.491000", "155433.732000", "155434.998000", "155436.247000", "155437.491000", "155438.743000", "155440.003000", "155441.242000", "155442.505000", "155443.751000", "155444.990000", "155446.253000", "155447.530000", "155448.767000", "155449.986000", "155451.287000", "155452.578000", "155453.777000", "155454.967000", "155456.270000", "155457.567000", "155458.776000", "155500.013000", "155501.243000", "155502.495000", "155503.758000", "155505.003000", "155506.254000", "155507.530000", "155508.748000", "155510.001000", "155511.229000", "155512.484000", "155513.820000", "155514.996000", "155516.233000", "155517.485000", "155518.771000", "155520.038000", "155521.268000", "155522.515000", "155523.763000", "155524.983000", "155526.284000", "155527.474000", "155528.788000", "155529.986000", "155531.252000", "155532.502000", "155533.766000", "155535.001000", "155536.260000", "155537.474000", "155538.748000", "155540.010000", "155541.241000", "155542.520000", "155543.760000", "155544.975000", "155546.242000", "155547.482000", "155548.742000", "155549.993000", "155551.291000", "155552.486000", "155553.736000", "155555.026000", "155556.279000", "155557.486000", "155558.731000", "155559.954000", "155601.288000", "155602.475000", "155603.797000", "155605.004000", "155606.227000", "155607.528000", "155608.723000", "155609.987000", "155611.267000", "155612.533000", "155613.745000", "155614.998000", "155616.258000", "155617.508000", "155618.810000", "155620.044000"],
      "InstanceNumber": [1, 2, 3, 4, 5, 6, 7, 8, 9, 10, 11, 12, 13, 14, 15, 16, 17, 18, 19, 20, 21, 22, 23, 24, 25, 26, 27, 28, 29, 30, 31, 32, 33, 34, 35, 36, 37, 38, 39, 40, 41, 42, 43, 44, 45, 46, 47, 48, 49, 50, 51, 52, 53, 54, 55, 56, 57, 58, 59, 60, 61, 62, 63, 64, 65, 66, 67, 68, 69, 70, 71, 72, 73, 74, 75, 76, 77, 78, 79, 80, 81, 82, 83, 84, 85, 86, 87, 88, 89, 90, 91, 92, 93, 94, 95, 96, 97, 98, 99, 100, 101, 102, 103, 104, 105, 106, 107, 108, 109, 110, 111, 112, 113, 114, 115, 116, 117, 118, 119, 120, 121, 122, 123, 124, 125, 126, 127, 128, 129, 130, 131, 132, 133, 134, 135, 136, 137, 138, 139, 140, 141, 142, 143, 144, 145, 146, 147, 148, 149, 150, 151, 152, 153, 154, 155, 156, 157, 158, 159, 160, 161, 162, 163, 164, 165, 166, 167, 168, 169, 170, 171, 172, 173, 174, 175, 176, 177, 178, 179, 180, 181, 182, 183, 184, 185, 186, 187, 188, 189, 190, 191, 192, 193, 194, 195, 196, 197, 198, 199, 200, 201, 202, 203, 204, 205, 206, 207, 208, 209, 210, 211, 212, 213, 214, 215, 216, 217, 218, 219, 220, 221, 222, 223, 224, 225, 226, 227, 228, 229, 230, 231, 232, 233, 234, 235, 236, 237, 238, 239, 240, 241, 242, 243, 244, 245, 246, 247, 248, 249, 250, 251, 252, 253, 254, 255, 256, 257, 258, 259, 260, 261, 262, 263, 264, 265, 266, 267, 268, 269, 270, 271, 272, 273, 274, 275, 276, 277, 278, 279, 280],
      "LargestImagePixelValue": [1247, 1300, 1029, 796, 1283, 852, 1335, 886, 1309, 860, 1278, 1194, 1338, 920, 806, 1288, 916, 1402, 886, 1409, 963, 1279, 941, 1396, 1094, 1114, 1530, 914, 1125, 950, 933, 1041, 1457, 951, 1128, 1424, 900, 1011, 1124, 1040, 1144, 1445, 1018, 1283, 861, 1352, 917, 1248, 964, 1180, 980, 1029, 1086, 865, 1248, 1116, 1224, 779, 1338, 990, 1069, 1006, 1460, 1178, 1273, 962, 1386, 867, 1228, 788, 1247, 790, 1245, 1150, 1202, 788, 1339, 941, 1331, 1089, 1428, 1011, 1431, 831, 1282, 980, 1268, 954, 1390, 833, 1239, 1135, 1374, 895, 1277, 951, 1174, 953, 1424, 1287, 1213, 811, 1210, 1378, 1192, 1037, 1100, 1474, 870, 1241, 906, 1360, 898, 1275, 900, 1436, 830, 1280, 924, 1420, 988, 1282, 1147, 1200, 779, 1348, 909, 1274, 917, 1334, 869, 1303, 1020, 907, 1101, 1412, 1140, 1250, 952, 1421, 912, 1257, 818, 1272, 905, 1252, 1341, 1114, 988, 1177, 1071, 1407, 879, 1393, 1048, 1241, 892, 1364, 903, 1266, 861, 1260, 913, 1361, 913, 1198, 1365, 937, 784, 1296, 792, 1255, 1341, 1027, 1203, 1142, 787, 1237, 1449, 1202, 1345, 954, 1287, 860, 1489, 859, 1274, 945, 1239, 984, 1419, 1040, 1248, 869, 1303, 988, 1079, 1003, 1418, 1010, 1285, 1033, 1436, 935, 1056, 1126, 786, 1283, 945, 947, 841, 1321, 1101, 997, 911, 756, 1385, 1287, 1261, 1023, 901, 1412, 967, 1327, 1022, 1053, 1102, 960, 1276, 860, 1405, 1273, 1350, 1508, 1145, 1243, 897, 1438, 876, 1260, 930, 1310, 928, 1427, 1170, 1083, 1060, 1394, 898, 1137, 962, 964, 1215, 1099, 1368, 1142, 1222, 1275, 985, 1254, 895, 1313, 801, 1261, 814, 1231, 810, 1220, 1446, 1182, 1399, 1074, 1374, 940, 1060, 1091, 1481, 1032, 1273, 1412],
      "WindowCenter": [390.0, 390.0, 388.0, 386.0, 390.0, 388.0, 391.0, 388.0, 391.0, 388.0, 391.0, 390.0, 391.0, 388.0, 388.0, 392.0, 390.0, 392.0, 388.0, 391.0, 389.0, 391.0, 389.0, 391.0, 389.0, 389.0, 391.0, 387.0, 390.0, 389.0, 389.0, 389.0, 391.0, 388.0, 389.0, 391.0, 387.0, 388.0, 389.0, 388.0, 389.0, 391.0, 388.0, 389.0, 387.0, 390.0, 388.0, 390.0, 388.0, 390.0, 388.0, 389.0, 389.0, 387.0, 390.0, 390.0, 390.0, 387.0, 391.0, 389.0, 390.0, 390.0, 393.0, 390.0, 391.0, 389.0, 391.0, 388.0, 390.0, 387.0, 390.0, 387.0, 391.0, 390.0, 390.0, 387.0, 392.0, 390.0, 391.0, 390.0, 391.0, 389.0, 390.0, 387.0, 390.0, 389.0, 390.0, 389.0, 391.0, 387.0, 390.0, 390.0, 391.0, 387.0, 390.0, 388.0, 390.0, 389.0, 391.0, 390.0, 390.0, 387.0, 390.0, 391.0, 390.0, 389.0, 389.0, 391.0, 387.0, 389.0, 388.0, 391.0, 388.0, 390.0, 388.0, 391.0, 388.0, 391.0, 389.0, 391.0, 389.0, 390.0, 389.0, 389.0, 386.0, 390.0, 387.0, 390.0, 388.0, 390.0, 387.0, 391.0, 389.0, 388.0, 390.0, 392.0, 389.0, 391.0, 389.0, 391.0, 387.0, 390.0, 388.0, 391.0, 389.0, 391.0, 390.0, 389.0, 389.0, 390.0, 389.0, 391.0, 387.0, 391.0, 388.0, 390.0, 388.0, 391.0, 388.0, 390.0, 388.0, 390.0, 387.0, 390.0, 387.0, 390.0, 390.0, 387.0, 386.0, 391.0, 388.0, 391.0, 392.0, 390.0, 390.0, 390.0, 387.0, 390.0, 392.0, 390.0, 390.0, 387.0, 389.0, 387.0, 390.0, 387.0, 390.0, 388.0, 391.0, 389.0, 391.0, 388.0, 390.0, 387.0, 392.0, 389.0, 390.0, 389.0, 391.0, 388.0, 390.0, 389.0, 391.0, 387.0, 388.0, 389.0, 386.0, 390.0, 388.0, 389.0, 389.0, 392.0, 391.0, 390.0, 389.0, 388.0, 392.0, 390.0, 390.0, 389.0, 389.0, 392.0, 389.0, 392.0, 389.0, 389.0, 390.0, 389.0, 392.0, 389.0, 392.0, 391.0, 391.0, 391.0, 389.0, 390.0, 388.0, 391.0, 387.0, 390.0, 389.0, 391.0, 388.0, 392.0, 390.0, 389.0, 389.0, 391.0, 387.0, 389.0, 388.0, 388.0, 390.0, 390.0, 391.0, 389.0, 390.0, 390.0, 388.0, 390.0, 388.0, 390.0, 387.0, 390.0, 387.0, 391.0, 388.0, 391.0, 391.0, 390.0, 391.0, 389.0, 390.0, 388.0, 390.0, 391.0, 392.0, 389.0, 390.0, 391.0],
      "WindowWidth": [829.0, 827.0, 824.0, 822.0, 827.0, 824.0, 829.0, 825.0, 829.0, 825.0, 829.0, 827.0, 829.0, 824.0, 824.0, 831.0, 827.0, 831.0, 825.0, 829.0, 826.0, 829.0, 826.0, 830.0, 825.0, 826.0, 829.0, 823.0, 827.0, 826.0, 826.0, 827.0, 829.0, 825.0, 826.0, 829.0, 823.0, 825.0, 826.0, 825.0, 826.0, 828.0, 824.0, 826.0, 824.0, 828.0, 824.0, 827.0, 825.0, 827.0, 825.0, 826.0, 826.0, 824.0, 828.0, 827.0, 828.0, 823.0, 829.0, 826.0, 827.0, 827.0, 832.0, 828.0, 829.0, 825.0, 829.0, 824.0, 828.0, 823.0, 828.0, 823.0, 829.0, 828.0, 828.0, 823.0, 830.0, 827.0, 830.0, 828.0, 830.0, 825.0, 827.0, 822.0, 828.0, 825.0, 828.0, 826.0, 829.0, 822.0, 827.0, 827.0, 828.0, 823.0, 827.0, 824.0, 828.0, 826.0, 829.0, 827.0, 827.0, 823.0, 828.0, 828.0, 827.0, 825.0, 826.0, 828.0, 822.0, 826.0, 825.0, 829.0, 825.0, 828.0, 825.0, 829.0, 824.0, 829.0, 826.0, 830.0, 826.0, 828.0, 826.0, 826.0, 822.0, 827.0, 823.0, 827.0, 825.0, 828.0, 824.0, 828.0, 825.0, 825.0, 827.0, 830.0, 827.0, 829.0, 825.0, 828.0, 823.0, 827.0, 824.0, 829.0, 826.0, 828.0, 828.0, 825.0, 825.0, 827.0, 826.0, 829.0, 824.0, 828.0, 825.0, 828.0, 825.0, 828.0, 825.0, 827.0, 824.0, 826.0, 823.0, 827.0, 823.0, 826.0, 827.0, 823.0, 822.0, 829.0, 825.0, 829.0, 830.0, 827.0, 827.0, 827.0, 824.0, 828.0, 830.0, 827.0, 827.0, 823.0, 826.0, 823.0, 827.0, 823.0, 827.0, 825.0, 828.0, 825.0, 828.0, 824.0, 826.0, 823.0, 830.0, 827.0, 827.0, 825.0, 829.0, 825.0, 827.0, 825.0, 828.0, 823.0, 825.0, 826.0, 822.0, 827.0, 825.0, 826.0, 826.0, 830.0, 829.0, 828.0, 826.0, 825.0, 830.0, 828.0, 828.0, 826.0, 826.0, 831.0, 827.0, 830.0, 827.0, 827.0, 827.0, 826.0, 830.0, 827.0, 831.0, 830.0, 829.0, 829.0, 825.0, 827.0, 824.0, 829.0, 823.0, 827.0, 826.0, 829.0, 825.0, 830.0, 827.0, 826.0, 826.0, 829.0, 823.0, 826.0, 824.0, 825.0, 828.0, 827.0, 829.0, 826.0, 826.0, 828.0, 825.0, 828.0, 825.0, 827.0, 823.0, 828.0, 824.0, 829.0, 824.0, 828.0, 829.0, 827.0, 828.0, 825.0, 827.0, 824.0, 828.0, 829.0, 831.0, 827.0, 828.0, 828.0]
    },
    "slices": {}
  }
}