{
  "AcquisitionMatrixPE": 96,
  "AcquisitionNumber": 1,
  "AcquisitionTime": "18:08:23.127500",
  "BandwidthPerPixelPhaseEncode": 18.939,
  "BaseResolution": 96,
  "BodyPartExamined": "BRAIN",
  "ConsistencyInfo": "N4_VE11C_LATEST_20160120",
  "ConversionSoftware": "dcm2niix",
  "ConversionSoftwareVersion": "v1.0.20170923 (OpenJPEG build) GCC6.3.0",
  "DerivedVendorReportedEchoSpacing": 0.000550011,
  "DeviceSerialNumber": "66112",
  "DwellTime": 2.3e-06,
  "EchoTime": 0.033,
  "EchoTrainLength": 96,
  "EffectiveEchoSpacing": 0.000550011,
  "FlipAngle": 64,
  "ImageType": [
    "ORIGINAL",
    "PRIMARY",
    "FMRI",
    "NONE",
    "ND",
    "NORM",
    "MOSAIC"
],
  "InstitutionAddress": "Maynard_3_Hanover_NH_US_03755",
  "InstitutionName": "Dartmouth_College_-_PBS",
  "MagneticFieldStrength": 3,
  "Manufacturer": "Siemens",
  "ManufacturersModelName": "Prisma",
  "Modality": "MR",
  "MultibandAccelerationFactor": 4,
  "PartialFourier": 1,
  "PercentPhaseFOV": 100,
  "PhaseEncodingDirection": "j-",
  "PhaseEncodingSteps": 96,
  "PhaseResolution": 1,
  "ProcedureStepDescription": "Gobbini_Matteo_1017_famface-angles",
  "ProtocolName": "func_run-09_task-fam1back",
  "PulseSequenceDetails": "%SiemensSeq%_ep2d_bold",
  "ReceiveCoilActiveElements": "HEA;HEP",
  "ReceiveCoilName": "Head_32",
  "ReconMatrixPE": 96,
  "RepetitionTime": 1.25,
  "ScanOptions": "FS",
  "ScanningSequence": "EP",
  "SequenceName": "_epfid2d1_96",
  "SequenceVariant": "SK",
  "SeriesDescription": "func_run-09_task-fam1back",
  "SliceTiming": [0.8775, 0, 0.615, 0.0875, 0.7025, 0.175, 0.79, 0.35, 0.965, 0.4375, 1.0525, 0.5275, 1.1425, 0.2625, 0.8775, 0, 0.615, 0.0875, 0.7025, 0.175, 0.79, 0.35, 0.965, 0.4375, 1.0525, 0.5275, 1.1425, 0.2625, 0.8775, 0, 0.615, 0.0875, 0.7025, 0.175, 0.79, 0.35, 0.965, 0.4375, 1.0525, 0.5275, 1.1425, 0.2625, 0.8775, 0, 0.615, 0.0875, 0.7025, 0.175, 0.79, 0.35, 0.965, 0.4375, 1.0525, 0.5275, 1.1425, 0.2625],
  "SoftwareVersions": "syngo_MR_E11",
  "StationName": "AWP66112",
  "TaskName": "fam1back",
  "TotalReadoutTime": 0.0522511,
  "dcmmeta_affine": [
    [-2.4995944499969482, -0.04275773838162422, -0.014108624309301376, 124.7601318359375],
    [-0.0443987213075161, 2.470911741256714, 0.3776552081108093, -94.64942932128906],
    [-0.007485393900424242, -0.37784454226493835, 2.4712703227996826, -55.4096565246582],
    [0.0, 0.0, 0.0, 1.0]
],
  "dcmmeta_reorient_transform": [
    [0.0, -1.0, 0.0, 95.0],
    [1.0, 0.0, 0.0, 0.0],
    [0.0, 0.0, 1.0, 0.0],
    [0.0, 0.0, 0.0, 1.0]
],
  "dcmmeta_shape": [96, 96, 56, 280],
  "dcmmeta_slice_dim": 2,
  "dcmmeta_version": 0.6,
  "global": {
    "const": {
      "AccessionNumber": "A000295",
      "AcquisitionMatrix": [96, 0, 0, 96],
      "AngioFlag": "N",
      "BitsAllocated": 16,
      "BitsStored": 12,
      "BodyPartExamined": "BRAIN",
      "Columns": 768,
      "EchoNumbers": 1,
      "EchoTime": 33.0,
      "EchoTrainLength": 96,
      "FlipAngle": 64.0,
      "HighBit": 11,
      "ImageOrientationPatient": [0.99983780463524, 0.01775948880109, -0.002994157597, -0.0171030960153, 0.98836473294099, 0.15113781388247],
      "ImagePositionPatient": [-946.19530356674, -985.23154016488, -215.74555895985],
      "ImageType": [
        "ORIGINAL",
        "PRIMARY",
        "FMRI",
        "NONE",
        "ND",
        "NORM",
        "MOSAIC"
],
      "ImagedNucleus": "1H",
      "ImagingFrequency": 123.252373,
      "InPlanePhaseEncodingDirection": "COL",
      "MRAcquisitionType": "2D",
      "MagneticFieldStrength": 3.0,
      "Manufacturer": "SIEMENS",
      "ManufacturerModelName": "Prisma",
      "Modality": "MR",
      "NumberOfAverages": 1.0,
      "NumberOfPhaseEncodingSteps": 96,
      "PercentPhaseFieldOfView": 100.0,
      "PercentSampling": 100.0,
      "PerformedProcedureStepStartTime": "165333.439000",
      "PhotometricInterpretation": "MONOCHROME2",
      "PixelBandwidth": 2265.0,
      "PixelRepresentation": 0,
      "PixelSpacing": [2.5, 2.5],
      "PositionReferenceIndicator": "",
      "ProtocolName": "func_run-09_task-fam1back",
      "RepetitionTime": 1250.0,
      "Rows": 768,
      "SAR": 0.05259224264587,
      "SamplesPerPixel": 1,
      "ScanOptions": "FS",
      "ScanningSequence": "EP",
      "SequenceName": "*epfid2d1_96",
      "SequenceVariant": "SK",
      "SeriesDescription": "func_run-09_task-fam1back",
      "SeriesNumber": 64,
      "SeriesTime": "180824.442000",
      "SliceLocation": -69.774916748694,
      "SliceThickness": 2.5,
      "SmallestImagePixelValue": 0,
      "SoftwareVersions": "syngo MR E11",
      "SpacingBetweenSlices": 2.4999999103724,
      "SpecificCharacterSet": "ISO_IR 100",
      "StudyID": "4",
      "StudyTime": "165333.388000",
      "TransmitCoilName": "Body",
      "VariableFlipAngleFlag": "N",
      "WindowCenterWidthExplanation": "Algo1",
      "dBdt": 0.0},
    "slices": {}
  },
  "time": {
    "samples": {
      "AcquisitionNumber": [1, 2, 3, 4, 5, 6, 7, 8, 9, 10, 11, 12, 13, 14, 15, 16, 17, 18, 19, 20, 21, 22, 23, 24, 25, 26, 27, 28, 29, 30, 31, 32, 33, 34, 35, 36, 37, 38, 39, 40, 41, 42, 43, 44, 45, 46, 47, 48, 49, 50, 51, 52, 53, 54, 55, 56, 57, 58, 59, 60, 61, 62, 63, 64, 65, 66, 67, 68, 69, 70, 71, 72, 73, 74, 75, 76, 77, 78, 79, 80, 81, 82, 83, 84, 85, 86, 87, 88, 89, 90, 91, 92, 93, 94, 95, 96, 97, 98, 99, 100, 101, 102, 103, 104, 105, 106, 107, 108, 109, 110, 111, 112, 113, 114, 115, 116, 117, 118, 119, 120, 121, 122, 123, 124, 125, 126, 127, 128, 129, 130, 131, 132, 133, 134, 135, 136, 137, 138, 139, 140, 141, 142, 143, 144, 145, 146, 147, 148, 149, 150, 151, 152, 153, 154, 155, 156, 157, 158, 159, 160, 161, 162, 163, 164, 165, 166, 167, 168, 169, 170, 171, 172, 173, 174, 175, 176, 177, 178, 179, 180, 181, 182, 183, 184, 185, 186, 187, 188, 189, 190, 191, 192, 193, 194, 195, 196, 197, 198, 199, 200, 201, 202, 203, 204, 205, 206, 207, 208, 209, 210, 211, 212, 213, 214, 215, 216, 217, 218, 219, 220, 221, 222, 223, 224, 225, 226, 227, 228, 229, 230, 231, 232, 233, 234, 235, 236, 237, 238, 239, 240, 241, 242, 243, 244, 245, 246, 247, 248, 249, 250, 251, 252, 253, 254, 255, 256, 257, 258, 259, 260, 261, 262, 263, 264, 265, 266, 267, 268, 269, 270, 271, 272, 273, 274, 275, 276, 277, 278, 279, 280],
      "AcquisitionTime": ["180823.127500", "180824.377500", "180825.627500", "180826.877500", "180828.127500", "180829.377500", "180830.627500", "180831.877500", "180833.127500", "180834.377500", "180835.627500", "180836.877500", "180838.127500", "180839.377500", "180840.627500", "180841.877500", "180843.127500", "180844.377500", "180845.627500", "180846.877500", "180848.127500", "180849.377500", "180850.627500", "180851.877500", "180853.127500", "180854.377500", "180855.627500", "180856.877500", "180858.127500", "180859.377500", "180900.627500", "180901.877500", "180903.127500", "180904.377500", "180905.627500", "180906.877500", "180908.127500", "180909.377500", "180910.627500", "180911.877500", "180913.127500", "180914.377500", "180915.627500", "180916.877500", "180918.127500", "180919.377500", "180920.627500", "180921.877500", "180923.127500", "180924.377500", "180925.627500", "180926.877500", "180928.127500", "180929.377500", "180930.627500", "180931.877500", "180933.127500", "180934.377500", "180935.627500", "180936.877500", "180938.127500", "180939.377500", "180940.627500", "180941.877500", "180943.127500", "180944.377500", "180945.627500", "180946.877500", "180948.127500", "180949.377500", "180950.627500", "180951.877500", "180953.127500", "180954.377500", "180955.627500", "180956.877500", "180958.127500", "180959.377500", "181000.627500", "181001.877500", "181003.127500", "181004.377500", "181005.627500", "181006.877500", "181008.127500", "181009.377500", "181010.627500", "181011.877500", "181013.127500", "181014.377500", "181015.627500", "181016.877500", "181018.127500", "181019.377500", "181020.627500", "181021.877500", "181023.127500", "181024.377500", "181025.627500", "181026.877500", "181028.127500", "181029.377500", "181030.627500", "181031.877500", "181033.127500", "181034.377500", "181035.627500", "181036.877500", "181038.127500", "181039.377500", "181040.627500", "181041.877500", "181043.127500", "181044.377500", "181045.627500", "181046.877500", "181048.127500", "181049.377500", "181050.627500", "181051.877500", "181053.127500", "181054.377500", "181055.627500", "181056.877500", "181058.127500", "181059.377500", "181100.627500", "181101.877500", "181103.127500", "181104.377500", "181105.627500", "181106.877500", "181108.127500", "181109.377500", "181110.627500", "181111.877500", "181113.127500", "181114.377500", "181115.627500", "181116.877500", "181118.127500", "181119.377500", "181120.627500", "181121.877500", "181123.127500", "181124.377500", "181125.627500", "181126.877500", "181128.127500", "181129.377500", "181130.627500", "181131.877500", "181133.127500", "181134.377500", "181135.627500", "181136.877500", "181138.127500", "181139.377500", "181140.627500", "181141.877500", "181143.127500", "181144.377500", "181145.627500", "181146.877500", "181148.127500", "181149.377500", "181150.627500", "181151.877500", "181153.127500", "181154.377500", "181155.627500", "181156.877500", "181158.127500", "181159.377500", "181200.627500", "181201.877500", "181203.127500", "181204.377500", "181205.627500", "181206.877500", "181208.127500", "181209.377500", "181210.627500", "181211.877500", "181213.127500", "181214.377500", "181215.627500", "181216.877500", "181218.127500", "181219.377500", "181220.627500", "181221.877500", "181223.127500", "181224.377500", "181225.627500", "181226.877500", "181228.127500", "181229.377500", "181230.627500", "181231.877500", "181233.127500", "181234.377500", "181235.627500", "181236.877500", "181238.127500", "181239.377500", "181240.627500", "181241.877500", "181243.127500", "181244.377500", "181245.627500", "181246.877500", "181248.127500", "181249.377500", "181250.627500", "181251.877500", "181253.127500", "181254.377500", "181255.627500", "181256.877500", "181258.127500", "181259.377500", "181300.627500", "181301.877500", "181303.127500", "181304.377500", "181305.627500", "181306.877500", "181308.127500", "181309.377500", "181310.627500", "181311.877500", "181313.127500", "181314.377500", "181315.627500", "181316.877500", "181318.127500", "181319.377500", "181320.627500", "181321.877500", "181323.127500", "181324.377500", "181325.627500", "181326.877500", "181328.127500", "181329.377500", "181330.627500", "181331.877500", "181333.127500", "181334.377500", "181335.627500", "181336.877500", "181338.127500", "181339.377500", "181340.627500", "181341.877500", "181343.127500", "181344.377500", "181345.627500", "181346.877500", "181348.127500", "181349.377500", "181350.627500", "181351.877500", "181353.127500", "181354.377500", "181355.627500", "181356.877500", "181358.127500", "181359.377500", "181400.627500", "181401.877500", "181403.127500", "181404.377500", "181405.627500", "181406.877500", "181408.127500", "181409.377500", "181410.627500", "181411.877500"],
      "ContentTime": ["180824.446000", "180825.497000", "180826.742000", "180828.102000", "180829.227000", "180830.495000", "180831.879000", "180833.007000", "180834.252000", "180835.519000", "180836.757000", "180837.990000", "180839.264000", "180840.520000", "180841.750000", "180843.037000", "180844.336000", "180845.533000", "180846.763000", "180847.985000", "180849.229000", "180850.515000", "180851.749000", "180852.978000", "180854.217000", "180855.474000", "180856.706000", "180857.988000", "180859.248000", "180900.505000", "180901.774000", "180903.018000", "180904.271000", "180905.546000", "180906.818000", "180908.007000", "180909.255000", "180910.493000", "180911.752000", "180913.031000", "180914.221000", "180915.461000", "180916.748000", "180917.987000", "180919.259000", "180920.556000", "180921.764000", "180922.996000", "180924.242000", "180925.505000", "180926.711000", "180928.002000", "180929.233000", "180930.520000", "180931.762000", "180932.991000", "180934.251000", "180935.464000", "180936.706000", "180937.992000", "180939.248000", "180940.495000", "180941.752000", "180942.991000", "180944.243000", "180945.467000", "180946.802000", "180948.004000", "180949.232000", "180950.475000", "180951.787000", "180953.010000", "180954.225000", "180955.493000", "180956.773000", "180958.002000", "180959.247000", "181000.484000", "181001.753000", "181003.028000", "181004.227000", "181005.538000", "181006.757000", "181008.008000", "181009.247000", "181010.502000", "181011.738000", "181012.991000", "181014.239000", "181015.535000", "181016.773000", "181017.991000", "181019.270000", "181020.483000", "181021.759000", "181023.035000", "181024.262000", "181025.462000", "181026.742000", "181028.023000", "181029.297000", "181030.512000", "181031.837000", "181033.003000", "181034.293000", "181035.530000", "181036.759000", "181038.009000", "181039.270000", "181040.502000", "181041.760000", "181043.047000", "181044.268000", "181045.495000", "181046.760000", "181047.988000", "181049.245000", "181050.509000", "181051.760000", "181053.002000", "181054.255000", "181055.508000", "181056.707000", "181058.003000", "181059.247000", "181100.507000", "181101.752000", "181102.998000", "181104.243000", "181105.555000", "181106.776000", "181108.043000", "181109.225000", "181110.498000", "181111.737000", "181112.998000", "181114.266000", "181115.531000", "181116.780000", "181118.009000", "181119.300000", "181120.521000", "181121.768000", "181123.002000", "181124.241000", "181125.493000", "181126.767000", "181127.956000", "181129.246000", "181130.508000", "181131.734000", "181133.008000", "181134.289000", "181135.519000", "181136.770000", "181138.009000", "181139.251000", "181140.517000", "181141.750000", "181143.015000", "181144.263000", "181145.502000", "181146.754000", "181148.016000", "181149.242000", "181150.501000", "181151.732000", "181152.994000", "181154.246000", "181155.501000", "181156.757000", "181157.961000", "181159.257000", "181200.493000", "181201.748000", "181202.995000", "181204.263000", "181205.493000", "181206.736000", "181208.009000", "181209.252000", "181210.499000", "181211.756000", "181212.981000", "181214.262000", "181215.524000", "181216.748000", "181218.030000", "181219.240000", "181220.502000", "181221.716000", "181223.008000", "181224.239000", "181225.511000", "181226.726000", "181228.010000", "181229.350000", "181230.470000", "181231.743000", "181233.009000", "181234.285000", "181235.514000", "181236.748000", "181237.986000", "181239.210000", "181240.510000", "181241.775000", "181243.032000", "181244.268000", "181245.505000", "181246.748000", "181248.004000", "181249.252000", "181250.530000", "181251.710000", "181253.017000", "181254.248000", "181255.482000", "181256.779000", "181258.015000", "181259.305000", "181300.545000", "181301.761000", "181303.001000", "181304.268000", "181305.500000", "181306.765000", "181308.000000", "181309.253000", "181310.510000", "181311.792000", "181313.021000", "181314.273000", "181315.513000", "181316.762000", "181318.025000", "181319.229000", "181320.528000", "181321.744000", "181323.041000", "181324.256000", "181325.564000", "181326.778000", "181328.004000", "181329.271000", "181330.507000", "181331.734000", "181332.996000", "181334.267000", "181335.532000", "181336.756000", "181338.014000", "181339.206000", "181340.497000", "181341.721000", "181343.010000", "181344.282000", "181345.497000", "181346.775000", "181348.062000", "181349.256000", "181350.494000", "181351.763000", "181352.985000", "181354.214000", "181355.509000", "181356.788000", "181358.013000", "181359.259000", "181400.502000", "181401.742000", "181403.003000", "181404.284000", "181405.541000", "181406.777000", "181408.022000", "181409.258000", "181410.483000", "181411.744000", "181413.082000"],
      "InstanceCreationTime": ["180824.446000", "180825.497000", "180826.742000", "180828.102000", "180829.227000", "180830.495000", "180831.879000", "180833.007000", "180834.252000", "180835.519000", "180836.757000", "180837.990000", "180839.264000", "180840.520000", "180841.750000", "180843.037000", "180844.336000", "180845.533000", "180846.763000", "180847.985000", "180849.229000", "180850.515000", "180851.749000", "180852.978000", "180854.217000", "180855.474000", "180856.706000", "180857.988000", "180859.248000", "180900.505000", "180901.774000", "180903.018000", "180904.271000", "180905.546000", "180906.818000", "180908.007000", "180909.255000", "180910.493000", "180911.752000", "180913.031000", "180914.221000", "180915.461000", "180916.748000", "180917.987000", "180919.259000", "180920.556000", "180921.764000", "180922.996000", "180924.242000", "180925.505000", "180926.711000", "180928.002000", "180929.233000", "180930.520000", "180931.762000", "180932.991000", "180934.251000", "180935.464000", "180936.706000", "180937.992000", "180939.248000", "180940.495000", "180941.752000", "180942.991000", "180944.243000", "180945.467000", "180946.802000", "180948.004000", "180949.232000", "180950.475000", "180951.787000", "180953.010000", "180954.225000", "180955.493000", "180956.773000", "180958.002000", "180959.247000", "181000.484000", "181001.753000", "181003.028000", "181004.227000", "181005.538000", "181006.757000", "181008.008000", "181009.247000", "181010.502000", "181011.738000", "181012.991000", "181014.239000", "181015.535000", "181016.773000", "181017.991000", "181019.270000", "181020.483000", "181021.759000", "181023.035000", "181024.262000", "181025.462000", "181026.742000", "181028.023000", "181029.297000", "181030.512000", "181031.837000", "181033.003000", "181034.293000", "181035.530000", "181036.759000", "181038.009000", "181039.270000", "181040.502000", "181041.760000", "181043.047000", "181044.268000", "181045.495000", "181046.760000", "181047.988000", "181049.245000", "181050.509000", "181051.760000", "181053.002000", "181054.255000", "181055.508000", "181056.707000", "181058.003000", "181059.247000", "181100.507000", "181101.752000", "181102.998000", "181104.243000", "181105.555000", "181106.776000", "181108.043000", "181109.225000", "181110.498000", "181111.737000", "181112.998000", "181114.266000", "181115.531000", "181116.780000", "181118.009000", "181119.300000", "181120.521000", "181121.768000", "181123.002000", "181124.241000", "181125.493000", "181126.767000", "181127.956000", "181129.246000", "181130.508000", "181131.734000", "181133.008000", "181134.289000", "181135.519000", "181136.770000", "181138.009000", "181139.251000", "181140.517000", "181141.750000", "181143.015000", "181144.263000", "181145.502000", "181146.754000", "181148.016000", "181149.242000", "181150.501000", "181151.732000", "181152.994000", "181154.246000", "181155.501000", "181156.757000", "181157.961000", "181159.257000", "181200.493000", "181201.748000", "181202.995000", "181204.263000", "181205.493000", "181206.736000", "181208.009000", "181209.252000", "181210.499000", "181211.756000", "181212.981000", "181214.262000", "181215.524000", "181216.748000", "181218.030000", "181219.240000", "181220.502000", "181221.716000", "181223.008000", "181224.239000", "181225.511000", "181226.726000", "181228.010000", "181229.350000", "181230.470000", "181231.743000", "181233.009000", "181234.285000", "181235.514000", "181236.748000", "181237.986000", "181239.210000", "181240.510000", "181241.775000", "181243.032000", "181244.268000", "181245.505000", "181246.748000", "181248.004000", "181249.252000", "181250.530000", "181251.710000", "181253.017000", "181254.248000", "181255.482000", "181256.779000", "181258.015000", "181259.305000", "181300.545000", "181301.761000", "181303.001000", "181304.268000", "181305.500000", "181306.765000", "181308.000000", "181309.253000", "181310.510000", "181311.792000", "181313.021000", "181314.273000", "181315.513000", "181316.762000", "181318.025000", "181319.229000", "181320.528000", "181321.744000", "181323.041000", "181324.256000", "181325.564000", "181326.778000", "181328.004000", "181329.271000", "181330.507000", "181331.734000", "181332.996000", "181334.267000", "181335.532000", "181336.756000", "181338.014000", "181339.206000", "181340.497000", "181341.721000", "181343.010000", "181344.282000", "181345.497000", "181346.775000", "181348.062000", "181349.256000", "181350.494000", "181351.763000", "181352.985000", "181354.214000", "181355.509000", "181356.788000", "181358.013000", "181359.259000", "181400.502000", "181401.742000", "181403.003000", "181404.284000", "181405.541000", "181406.777000", "181408.022000", "181409.258000", "181410.483000", "181411.744000", "181413.082000"],
      "InstanceNumber": [1, 2, 3, 4, 5, 6, 7, 8, 9, 10, 11, 12, 13, 14, 15, 16, 17, 18, 19, 20, 21, 22, 23, 24, 25, 26, 27, 28, 29, 30, 31, 32, 33, 34, 35, 36, 37, 38, 39, 40, 41, 42, 43, 44, 45, 46, 47, 48, 49, 50, 51, 52, 53, 54, 55, 56, 57, 58, 59, 60, 61, 62, 63, 64, 65, 66, 67, 68, 69, 70, 71, 72, 73, 74, 75, 76, 77, 78, 79, 80, 81, 82, 83, 84, 85, 86, 87, 88, 89, 90, 91, 92, 93, 94, 95, 96, 97, 98, 99, 100, 101, 102, 103, 104, 105, 106, 107, 108, 109, 110, 111, 112, 113, 114, 115, 116, 117, 118, 119, 120, 121, 122, 123, 124, 125, 126, 127, 128, 129, 130, 131, 132, 133, 134, 135, 136, 137, 138, 139, 140, 141, 142, 143, 144, 145, 146, 147, 148, 149, 150, 151, 152, 153, 154, 155, 156, 157, 158, 159, 160, 161, 162, 163, 164, 165, 166, 167, 168, 169, 170, 171, 172, 173, 174, 175, 176, 177, 178, 179, 180, 181, 182, 183, 184, 185, 186, 187, 188, 189, 190, 191, 192, 193, 194, 195, 196, 197, 198, 199, 200, 201, 202, 203, 204, 205, 206, 207, 208, 209, 210, 211, 212, 213, 214, 215, 216, 217, 218, 219, 220, 221, 222, 223, 224, 225, 226, 227, 228, 229, 230, 231, 232, 233, 234, 235, 236, 237, 238, 239, 240, 241, 242, 243, 244, 245, 246, 247, 248, 249, 250, 251, 252, 253, 254, 255, 256, 257, 258, 259, 260, 261, 262, 263, 264, 265, 266, 267, 268, 269, 270, 271, 272, 273, 274, 275, 276, 277, 278, 279, 280],
      "LargestImagePixelValue": [1242, 1043, 862, 1051, 1625, 1281, 1248, 1146, 1342, 1888, 1067, 1348, 909, 1115, 903, 983, 1534, 900, 1084, 928, 1463, 997, 879, 1341, 1426, 1075, 832, 883, 1293, 1138, 922, 877, 920, 870, 1006, 1678, 1028, 1037, 805, 1374, 1106, 881, 1079, 1128, 1165, 902, 870, 1425, 1087, 933, 1115, 1169, 1122, 875, 1041, 1007, 885, 847, 905, 1408, 903, 1346, 977, 1142, 902, 835, 1178, 1124, 1541, 946, 1227, 1018, 856, 1226, 1038, 892, 1183, 1680, 1012, 857, 1238, 970, 900, 920, 1391, 922, 827, 1062, 1173, 1113, 881, 931, 1230, 942, 871, 840, 932, 876, 929, 1661, 1004, 1496, 1097, 1838, 1185, 813, 1209, 1015, 1272, 901, 1269, 1241, 869, 905, 934, 1196, 873, 957, 832, 1347, 869, 820, 1143, 1305, 961, 933, 995, 1210, 896, 1180, 959, 1482, 1170, 893, 1117, 938, 1603, 1027, 964, 930, 1204, 923, 820, 1233, 1083, 1104, 851, 1229, 1445, 919, 1144, 920, 1146, 926, 887, 885, 1002, 931, 866, 913, 1247, 872, 985, 896, 1750, 1419, 1015, 1154, 1248, 1740, 922, 855, 963, 916, 867, 872, 924, 903, 1400, 1685, 1050, 1371, 929, 1540, 1128, 917, 1102, 990, 1090, 932, 1094, 1088, 1405, 1046, 906, 982, 947, 1050, 958, 845, 1154, 869, 901, 898, 1338, 1652, 1396, 934, 838, 887, 1162, 959, 910, 959, 968, 1282, 1040, 1085, 1401, 1255, 923, 1269, 1502, 1178, 1166, 959, 1439, 1067, 963, 961, 917, 1289, 1033, 1000, 829, 830, 867, 857, 1205, 901, 1071, 1526, 1270, 1675, 1127, 911, 1273, 1298, 1099, 978, 1070, 1124, 1055, 918, 966, 1499, 947, 1125, 1538, 1065, 980, 1237, 1185, 931, 1108, 918, 1013, 1003, 862, 1652, 877, 941, 1055, 1204, 1005, 932, 954, 1203, 896, 969],
      "WindowCenter": [385.0, 382.0, 381.0, 383.0, 386.0, 384.0, 383.0, 383.0, 384.0, 385.0, 381.0, 383.0, 380.0, 382.0, 380.0, 381.0, 385.0, 380.0, 382.0, 380.0, 384.0, 381.0, 379.0, 383.0, 383.0, 381.0, 379.0, 380.0, 383.0, 382.0, 379.0, 378.0, 380.0, 380.0, 382.0, 386.0, 381.0, 382.0, 380.0, 384.0, 383.0, 380.0, 382.0, 382.0, 382.0, 379.0, 380.0, 383.0, 381.0, 379.0, 381.0, 381.0, 381.0, 379.0, 380.0, 380.0, 379.0, 378.0, 379.0, 383.0, 380.0, 383.0, 380.0, 382.0, 380.0, 380.0, 383.0, 383.0, 384.0, 381.0, 383.0, 381.0, 379.0, 382.0, 381.0, 379.0, 382.0, 384.0, 380.0, 378.0, 382.0, 380.0, 379.0, 379.0, 383.0, 379.0, 378.0, 380.0, 382.0, 381.0, 379.0, 379.0, 382.0, 380.0, 380.0, 380.0, 381.0, 381.0, 382.0, 387.0, 382.0, 384.0, 381.0, 385.0, 382.0, 378.0, 382.0, 381.0, 383.0, 380.0, 382.0, 382.0, 378.0, 379.0, 379.0, 382.0, 379.0, 380.0, 379.0, 383.0, 379.0, 379.0, 383.0, 383.0, 380.0, 380.0, 381.0, 383.0, 381.0, 383.0, 381.0, 384.0, 382.0, 379.0, 381.0, 379.0, 384.0, 380.0, 379.0, 379.0, 382.0, 380.0, 379.0, 383.0, 382.0, 381.0, 379.0, 382.0, 383.0, 379.0, 381.0, 379.0, 380.0, 379.0, 379.0, 380.0, 381.0, 380.0, 380.0, 380.0, 383.0, 380.0, 382.0, 381.0, 386.0, 384.0, 381.0, 382.0, 382.0, 384.0, 379.0, 378.0, 379.0, 379.0, 380.0, 383.0, 383.0, 382.0, 385.0, 386.0, 381.0, 384.0, 379.0, 384.0, 381.0, 379.0, 381.0, 380.0, 381.0, 380.0, 381.0, 381.0, 382.0, 380.0, 379.0, 380.0, 379.0, 380.0, 379.0, 378.0, 382.0, 380.0, 381.0, 380.0, 384.0, 385.0, 383.0, 379.0, 377.0, 378.0, 382.0, 380.0, 380.0, 380.0, 380.0, 383.0, 383.0, 383.0, 384.0, 382.0, 380.0, 382.0, 383.0, 381.0, 380.0, 379.0, 382.0, 379.0, 379.0, 379.0, 378.0, 381.0, 379.0, 379.0, 378.0, 378.0, 380.0, 381.0, 385.0, 382.0, 383.0, 385.0, 383.0, 385.0, 382.0, 380.0, 383.0, 383.0, 381.0, 380.0, 381.0, 382.0, 381.0, 380.0, 380.0, 384.0, 381.0, 382.0, 385.0, 381.0, 380.0, 382.0, 381.0, 380.0, 381.0, 379.0, 380.0, 380.0, 379.0, 384.0, 379.0, 380.0, 381.0, 381.0, 380.0, 379.0, 379.0, 381.0, 379.0, 380.0],
      "WindowWidth": [818.0, 813.0, 812.0, 815.0, 818.0, 816.0, 814.0, 813.0, 815.0, 817.0, 811.0, 813.0, 809.0, 812.0, 810.0, 812.0, 817.0, 810.0, 812.0, 811.0, 815.0, 811.0, 809.0, 813.0, 814.0, 810.0, 808.0, 809.0, 814.0, 812.0, 809.0, 807.0, 809.0, 811.0, 813.0, 818.0, 812.0, 812.0, 809.0, 816.0, 814.0, 811.0, 812.0, 812.0, 813.0, 809.0, 809.0, 814.0, 811.0, 808.0, 811.0, 810.0, 810.0, 807.0, 809.0, 809.0, 807.0, 807.0, 809.0, 814.0, 809.0, 813.0, 810.0, 812.0, 810.0, 810.0, 815.0, 813.0, 816.0, 811.0, 814.0, 810.0, 808.0, 812.0, 811.0, 808.0, 812.0, 815.0, 809.0, 807.0, 811.0, 809.0, 807.0, 808.0, 813.0, 808.0, 807.0, 810.0, 812.0, 811.0, 808.0, 808.0, 813.0, 809.0, 809.0, 810.0, 811.0, 811.0, 813.0, 820.0, 813.0, 815.0, 811.0, 816.0, 812.0, 807.0, 813.0, 811.0, 813.0, 809.0, 812.0, 811.0, 806.0, 807.0, 808.0, 811.0, 808.0, 809.0, 808.0, 814.0, 808.0, 808.0, 814.0, 814.0, 810.0, 809.0, 810.0, 814.0, 811.0, 813.0, 811.0, 815.0, 812.0, 808.0, 810.0, 808.0, 815.0, 809.0, 808.0, 808.0, 811.0, 810.0, 809.0, 814.0, 812.0, 811.0, 808.0, 812.0, 814.0, 808.0, 811.0, 807.0, 810.0, 807.0, 807.0, 809.0, 812.0, 810.0, 809.0, 810.0, 814.0, 811.0, 812.0, 811.0, 818.0, 815.0, 810.0, 811.0, 811.0, 814.0, 807.0, 807.0, 808.0, 808.0, 809.0, 815.0, 815.0, 814.0, 817.0, 819.0, 812.0, 814.0, 808.0, 814.0, 811.0, 807.0, 810.0, 809.0, 811.0, 808.0, 810.0, 810.0, 812.0, 808.0, 807.0, 809.0, 808.0, 810.0, 808.0, 807.0, 812.0, 809.0, 811.0, 810.0, 815.0, 816.0, 813.0, 808.0, 805.0, 807.0, 812.0, 810.0, 810.0, 810.0, 809.0, 814.0, 814.0, 814.0, 816.0, 813.0, 809.0, 813.0, 814.0, 811.0, 809.0, 807.0, 812.0, 807.0, 807.0, 806.0, 805.0, 809.0, 808.0, 807.0, 805.0, 807.0, 810.0, 812.0, 818.0, 814.0, 814.0, 817.0, 814.0, 817.0, 812.0, 809.0, 814.0, 813.0, 810.0, 810.0, 811.0, 812.0, 811.0, 810.0, 810.0, 815.0, 811.0, 813.0, 816.0, 812.0, 809.0, 812.0, 811.0, 808.0, 810.0, 808.0, 809.0, 809.0, 807.0, 815.0, 808.0, 808.0, 810.0, 811.0, 808.0, 807.0, 807.0, 810.0, 808.0, 810.0]
    },
    "slices": {}
  }
}