{
  "AcquisitionMatrixPE": 96,
  "AcquisitionNumber": 1,
  "AcquisitionTime": "17:55:33.950000",
  "BandwidthPerPixelPhaseEncode": 18.939,
  "BaseResolution": 96,
  "BodyPartExamined": "BRAIN",
  "ConsistencyInfo": "N4_VE11C_LATEST_20160120",
  "ConversionSoftware": "dcm2niix",
  "ConversionSoftwareVersion": "v1.0.20170923 (OpenJPEG build) GCC6.3.0",
  "DerivedVendorReportedEchoSpacing": 0.000550011,
  "DeviceSerialNumber": "66112",
  "DwellTime": 2.3e-06,
  "EchoTime": 0.033,
  "EchoTrainLength": 96,
  "EffectiveEchoSpacing": 0.000550011,
  "FlipAngle": 64,
  "ImageType": [
    "ORIGINAL",
    "PRIMARY",
    "FMRI",
    "NONE",
    "ND",
    "NORM",
    "MOSAIC"
],
  "InstitutionAddress": "Maynard_3_Hanover_NH_US_03755",
  "InstitutionName": "Dartmouth_College_-_PBS",
  "MagneticFieldStrength": 3,
  "Manufacturer": "Siemens",
  "ManufacturersModelName": "Prisma",
  "Modality": "MR",
  "MultibandAccelerationFactor": 4,
  "PartialFourier": 1,
  "PercentPhaseFOV": 100,
  "PhaseEncodingDirection": "j-",
  "PhaseEncodingSteps": 96,
  "PhaseResolution": 1,
  "ProcedureStepDescription": "Gobbini_Matteo_1017_famface-angles",
  "ProtocolName": "func_run-07_task-fam1back",
  "PulseSequenceDetails": "%SiemensSeq%_ep2d_bold",
  "ReceiveCoilActiveElements": "HEA;HEP",
  "ReceiveCoilName": "Head_32",
  "ReconMatrixPE": 96,
  "RepetitionTime": 1.25,
  "ScanOptions": "FS",
  "ScanningSequence": "EP",
  "SequenceName": "_epfid2d1_96",
  "SequenceVariant": "SK",
  "SeriesDescription": "func_run-07_task-fam1back",
  "SliceTiming": [0.8775, 0, 0.615, 0.0875, 0.7025, 0.175, 0.79, 0.3525, 0.9675, 0.44, 1.055, 0.5275, 1.1425, 0.2625, 0.8775, 0, 0.615, 0.0875, 0.7025, 0.175, 0.79, 0.3525, 0.9675, 0.44, 1.055, 0.5275, 1.1425, 0.2625, 0.8775, 0, 0.615, 0.0875, 0.7025, 0.175, 0.79, 0.3525, 0.9675, 0.44, 1.055, 0.5275, 1.1425, 0.2625, 0.8775, 0, 0.615, 0.0875, 0.7025, 0.175, 0.79, 0.3525, 0.9675, 0.44, 1.055, 0.5275, 1.1425, 0.2625],
  "SoftwareVersions": "syngo_MR_E11",
  "StationName": "AWP66112",
  "TaskName": "fam1back",
  "TotalReadoutTime": 0.0522511,
  "dcmmeta_affine": [
    [-2.4995944499969482, -0.04275773838162422, -0.014108624309301376, 124.7601318359375],
    [-0.0443987213075161, 2.470911741256714, 0.3776552081108093, -94.64942932128906],
    [-0.007485393900424242, -0.37784454226493835, 2.4712703227996826, -55.4096565246582],
    [0.0, 0.0, 0.0, 1.0]
],
  "dcmmeta_reorient_transform": [
    [0.0, -1.0, 0.0, 95.0],
    [1.0, 0.0, 0.0, 0.0],
    [0.0, 0.0, 1.0, 0.0],
    [0.0, 0.0, 0.0, 1.0]
],
  "dcmmeta_shape": [96, 96, 56, 280],
  "dcmmeta_slice_dim": 2,
  "dcmmeta_version": 0.6,
  "global": {
    "const": {
      "AccessionNumber": "A000295",
      "AcquisitionMatrix": [96, 0, 0, 96],
      "AngioFlag": "N",
      "BitsAllocated": 16,
      "BitsStored": 12,
      "BodyPartExamined": "BRAIN",
      "Columns": 768,
      "EchoNumbers": 1,
      "EchoTime": 33.0,
      "EchoTrainLength": 96,
      "FlipAngle": 64.0,
      "HighBit": 11,
      "ImageOrientationPatient": [0.99983780463524, 0.01775948880109, -0.002994157597, -0.0171030960153, 0.98836473294099, 0.15113781388247],
      "ImagePositionPatient": [-946.19530356674, -985.23154016488, -215.74555895985],
      "ImageType": [
        "ORIGINAL",
        "PRIMARY",
        "FMRI",
        "NONE",
        "ND",
        "NORM",
        "MOSAIC"
],
      "ImagedNucleus": "1H",
      "ImagingFrequency": 123.252369,
      "InPlanePhaseEncodingDirection": "COL",
      "MRAcquisitionType": "2D",
      "MagneticFieldStrength": 3.0,
      "Manufacturer": "SIEMENS",
      "ManufacturerModelName": "Prisma",
      "Modality": "MR",
      "NumberOfAverages": 1.0,
      "NumberOfPhaseEncodingSteps": 96,
      "PercentPhaseFieldOfView": 100.0,
      "PercentSampling": 100.0,
      "PerformedProcedureStepStartTime": "165333.439000",
      "PhotometricInterpretation": "MONOCHROME2",
      "PixelBandwidth": 2265.0,
      "PixelRepresentation": 0,
      "PixelSpacing": [2.5, 2.5],
      "PositionReferenceIndicator": "",
      "ProtocolName": "func_run-07_task-fam1back",
      "RepetitionTime": 1250.0,
      "Rows": 768,
      "SAR": 0.05259224264587,
      "SamplesPerPixel": 1,
      "ScanOptions": "FS",
      "ScanningSequence": "EP",
      "SequenceName": "*epfid2d1_96",
      "SequenceVariant": "SK",
      "SeriesDescription": "func_run-07_task-fam1back",
      "SeriesNumber": 50,
      "SeriesTime": "175535.306000",
      "SliceLocation": -69.774916748694,
      "SliceThickness": 2.5,
      "SmallestImagePixelValue": 0,
      "SoftwareVersions": "syngo MR E11",
      "SpacingBetweenSlices": 2.4999999103724,
      "SpecificCharacterSet": "ISO_IR 100",
      "StudyID": "4",
      "StudyTime": "165333.388000",
      "TransmitCoilName": "Body",
      "VariableFlipAngleFlag": "N",
      "WindowCenterWidthExplanation": "Algo1",
      "dBdt": 0.0},
    "slices": {}
  },
  "time": {
    "samples": {
      "AcquisitionNumber": [1, 2, 3, 4, 5, 6, 7, 8, 9, 10, 11, 12, 13, 14, 15, 16, 17, 18, 19, 20, 21, 22, 23, 24, 25, 26, 27, 28, 29, 30, 31, 32, 33, 34, 35, 36, 37, 38, 39, 40, 41, 42, 43, 44, 45, 46, 47, 48, 49, 50, 51, 52, 53, 54, 55, 56, 57, 58, 59, 60, 61, 62, 63, 64, 65, 66, 67, 68, 69, 70, 71, 72, 73, 74, 75, 76, 77, 78, 79, 80, 81, 82, 83, 84, 85, 86, 87, 88, 89, 90, 91, 92, 93, 94, 95, 96, 97, 98, 99, 100, 101, 102, 103, 104, 105, 106, 107, 108, 109, 110, 111, 112, 113, 114, 115, 116, 117, 118, 119, 120, 121, 122, 123, 124, 125, 126, 127, 128, 129, 130, 131, 132, 133, 134, 135, 136, 137, 138, 139, 140, 141, 142, 143, 144, 145, 146, 147, 148, 149, 150, 151, 152, 153, 154, 155, 156, 157, 158, 159, 160, 161, 162, 163, 164, 165, 166, 167, 168, 169, 170, 171, 172, 173, 174, 175, 176, 177, 178, 179, 180, 181, 182, 183, 184, 185, 186, 187, 188, 189, 190, 191, 192, 193, 194, 195, 196, 197, 198, 199, 200, 201, 202, 203, 204, 205, 206, 207, 208, 209, 210, 211, 212, 213, 214, 215, 216, 217, 218, 219, 220, 221, 222, 223, 224, 225, 226, 227, 228, 229, 230, 231, 232, 233, 234, 235, 236, 237, 238, 239, 240, 241, 242, 243, 244, 245, 246, 247, 248, 249, 250, 251, 252, 253, 254, 255, 256, 257, 258, 259, 260, 261, 262, 263, 264, 265, 266, 267, 268, 269, 270, 271, 272, 273, 274, 275, 276, 277, 278, 279, 280],
      "AcquisitionTime": ["175533.950000", "175535.200000", "175536.450000", "175537.700000", "175538.950000", "175540.200000", "175541.450000", "175542.700000", "175543.950000", "175545.200000", "175546.450000", "175547.700000", "175548.950000", "175550.200000", "175551.450000", "175552.700000", "175553.950000", "175555.200000", "175556.450000", "175557.700000", "175558.950000", "175600.200000", "175601.450000", "175602.700000", "175603.950000", "175605.200000", "175606.450000", "175607.700000", "175608.950000", "175610.200000", "175611.450000", "175612.700000", "175613.950000", "175615.200000", "175616.450000", "175617.700000", "175618.950000", "175620.200000", "175621.450000", "175622.700000", "175623.950000", "175625.200000", "175626.450000", "175627.700000", "175628.950000", "175630.200000", "175631.450000", "175632.700000", "175633.950000", "175635.200000", "175636.450000", "175637.700000", "175638.950000", "175640.200000", "175641.450000", "175642.700000", "175643.950000", "175645.200000", "175646.450000", "175647.700000", "175648.950000", "175650.200000", "175651.450000", "175652.700000", "175653.950000", "175655.200000", "175656.450000", "175657.700000", "175658.950000", "175700.200000", "175701.450000", "175702.700000", "175703.950000", "175705.200000", "175706.450000", "175707.700000", "175708.950000", "175710.200000", "175711.450000", "175712.700000", "175713.950000", "175715.200000", "175716.450000", "175717.700000", "175718.950000", "175720.200000", "175721.450000", "175722.700000", "175723.950000", "175725.200000", "175726.450000", "175727.700000", "175728.950000", "175730.200000", "175731.450000", "175732.700000", "175733.950000", "175735.200000", "175736.450000", "175737.700000", "175738.950000", "175740.200000", "175741.450000", "175742.700000", "175743.950000", "175745.200000", "175746.450000", "175747.700000", "175748.950000", "175750.200000", "175751.450000", "175752.700000", "175753.950000", "175755.200000", "175756.450000", "175757.700000", "175758.950000", "175800.200000", "175801.450000", "175802.700000", "175803.950000", "175805.200000", "175806.450000", "175807.700000", "175808.950000", "175810.200000", "175811.450000", "175812.700000", "175813.950000", "175815.200000", "175816.450000", "175817.700000", "175818.950000", "175820.200000", "175821.450000", "175822.700000", "175823.950000", "175825.200000", "175826.450000", "175827.700000", "175828.950000", "175830.200000", "175831.450000", "175832.700000", "175833.950000", "175835.200000", "175836.450000", "175837.700000", "175838.950000", "175840.200000", "175841.450000", "175842.700000", "175843.950000", "175845.200000", "175846.450000", "175847.700000", "175848.950000", "175850.200000", "175851.450000", "175852.700000", "175853.950000", "175855.200000", "175856.450000", "175857.700000", "175858.950000", "175900.200000", "175901.450000", "175902.700000", "175903.950000", "175905.200000", "175906.450000", "175907.700000", "175908.950000", "175910.200000", "175911.450000", "175912.700000", "175913.950000", "175915.200000", "175916.450000", "175917.700000", "175918.950000", "175920.200000", "175921.450000", "175922.700000", "175923.950000", "175925.200000", "175926.450000", "175927.700000", "175928.950000", "175930.200000", "175931.450000", "175932.700000", "175933.950000", "175935.200000", "175936.450000", "175937.700000", "175938.950000", "175940.200000", "175941.450000", "175942.700000", "175943.950000", "175945.200000", "175946.450000", "175947.700000", "175948.950000", "175950.200000", "175951.450000", "175952.700000", "175953.950000", "175955.200000", "175956.450000", "175957.700000", "175958.950000", "180000.200000", "180001.450000", "180002.700000", "180003.950000", "180005.200000", "180006.450000", "180007.700000", "180008.950000", "180010.200000", "180011.450000", "180012.700000", "180013.950000", "180015.200000", "180016.450000", "180017.700000", "180018.950000", "180020.200000", "180021.450000", "180022.700000", "180023.950000", "180025.200000", "180026.450000", "180027.700000", "180028.950000", "180030.200000", "180031.450000", "180032.700000", "180033.950000", "180035.200000", "180036.450000", "180037.700000", "180038.950000", "180040.200000", "180041.450000", "180042.700000", "180043.950000", "180045.200000", "180046.450000", "180047.700000", "180048.950000", "180050.200000", "180051.450000", "180052.700000", "180053.950000", "180055.200000", "180056.450000", "180057.700000", "180058.950000", "180100.200000", "180101.450000", "180102.700000", "180103.950000", "180105.200000", "180106.450000", "180107.700000", "180108.950000", "180110.200000", "180111.450000", "180112.700000", "180113.950000", "180115.200000", "180116.450000", "180117.700000", "180118.950000", "180120.200000", "180121.450000", "180122.700000"],
      "ContentTime": ["175535.310000", "175536.403000", "175537.613000", "175538.881000", "175540.139000", "175541.372000", "175542.598000", "175543.876000", "175545.130000", "175546.388000", "175547.614000", "175548.869000", "175550.091000", "175551.388000", "175552.633000", "175553.864000", "175555.115000", "175556.403000", "175557.610000", "175558.869000", "175600.132000", "175601.393000", "175602.623000", "175603.844000", "175605.111000", "175606.375000", "175607.605000", "175608.849000", "175610.149000", "175611.401000", "175612.641000", "175613.865000", "175615.141000", "175616.398000", "175617.616000", "175618.871000", "175620.140000", "175621.379000", "175622.606000", "175623.853000", "175625.126000", "175626.379000", "175627.581000", "175628.844000", "175630.092000", "175631.373000", "175632.629000", "175633.860000", "175635.123000", "175636.354000", "175637.630000", "175638.888000", "175640.132000", "175641.382000", "175642.636000", "175643.863000", "175645.114000", "175646.357000", "175647.615000", "175648.880000", "175650.196000", "175651.351000", "175652.639000", "175653.873000", "175655.111000", "175656.377000", "175657.617000", "175658.861000", "175700.143000", "175701.355000", "175702.593000", "175703.860000", "175705.133000", "175706.375000", "175707.634000", "175708.855000", "175710.116000", "175711.402000", "175712.624000", "175713.918000", "175715.141000", "175716.384000", "175717.624000", "175718.876000", "175720.137000", "175721.366000", "175722.619000", "175723.860000", "175725.206000", "175726.384000", "175727.615000", "175728.874000", "175730.115000", "175731.368000", "175732.625000", "175733.880000", "175735.161000", "175736.358000", "175737.617000", "175738.845000", "175740.143000", "175741.379000", "175742.610000", "175743.873000", "175745.146000", "175746.367000", "175747.642000", "175748.882000", "175750.141000", "175751.371000", "175752.617000", "175753.903000", "175755.143000", "175756.376000", "175757.602000", "175758.882000", "175800.107000", "175801.342000", "175802.640000", "175803.842000", "175805.125000", "175806.382000", "175807.632000", "175808.884000", "175810.088000", "175811.389000", "175812.673000", "175813.878000", "175815.134000", "175816.380000", "175817.627000", "175818.863000", "175820.117000", "175821.448000", "175822.664000", "175823.884000", "175825.129000", "175826.366000", "175827.630000", "175828.884000", "175830.128000", "175831.381000", "175832.637000", "175833.877000", "175835.126000", "175836.388000", "175837.630000", "175838.912000", "175840.104000", "175841.432000", "175842.616000", "175843.844000", "175845.107000", "175846.407000", "175847.620000", "175848.873000", "175850.169000", "175851.387000", "175852.642000", "175853.896000", "175855.128000", "175856.386000", "175857.650000", "175858.885000", "175900.087000", "175901.396000", "175902.628000", "175903.914000", "175905.146000", "175906.368000", "175907.613000", "175908.890000", "175910.112000", "175911.381000", "175912.625000", "175913.868000", "175915.097000", "175916.356000", "175917.614000", "175918.867000", "175920.095000", "175921.374000", "175922.617000", "175923.862000", "175925.126000", "175926.367000", "175927.620000", "175928.890000", "175930.127000", "175931.366000", "175932.607000", "175933.901000", "175935.161000", "175936.366000", "175937.597000", "175938.886000", "175940.129000", "175941.376000", "175942.630000", "175943.868000", "175945.133000", "175946.414000", "175947.667000", "175948.894000", "175950.111000", "175951.373000", "175952.627000", "175953.889000", "175955.155000", "175956.372000", "175957.629000", "175958.907000", "180000.126000", "180001.359000", "180002.630000", "180003.847000", "180005.132000", "180006.454000", "180007.621000", "180008.893000", "180010.144000", "180011.370000", "180012.669000", "180013.877000", "180015.189000", "180016.398000", "180017.630000", "180018.889000", "180020.114000", "180021.370000", "180022.617000", "180023.884000", "180025.107000", "180026.366000", "180027.588000", "180028.861000", "180030.096000", "180031.362000", "180032.645000", "180033.825000", "180035.144000", "180036.403000", "180037.631000", "180038.901000", "180040.098000", "180041.374000", "180042.637000", "180043.878000", "180045.119000", "180046.348000", "180047.641000", "180048.872000", "180050.127000", "180051.360000", "180052.653000", "180053.867000", "180055.145000", "180056.386000", "180057.614000", "180058.855000", "180100.121000", "180101.345000", "180102.620000", "180103.937000", "180105.143000", "180106.345000", "180107.597000", "180108.850000", "180110.129000", "180111.371000", "180112.624000", "180113.860000", "180115.133000", "180116.370000", "180117.634000", "180118.899000", "180120.100000", "180121.372000", "180122.615000", "180123.936000"],
      "InstanceCreationTime": ["175535.310000", "175536.403000", "175537.613000", "175538.881000", "175540.139000", "175541.372000", "175542.598000", "175543.876000", "175545.130000", "175546.388000", "175547.614000", "175548.869000", "175550.091000", "175551.388000", "175552.633000", "175553.864000", "175555.115000", "175556.403000", "175557.610000", "175558.869000", "175600.132000", "175601.393000", "175602.623000", "175603.844000", "175605.111000", "175606.375000", "175607.605000", "175608.849000", "175610.149000", "175611.401000", "175612.641000", "175613.865000", "175615.141000", "175616.398000", "175617.616000", "175618.871000", "175620.140000", "175621.379000", "175622.606000", "175623.853000", "175625.126000", "175626.379000", "175627.581000", "175628.844000", "175630.092000", "175631.373000", "175632.629000", "175633.860000", "175635.123000", "175636.354000", "175637.630000", "175638.888000", "175640.132000", "175641.382000", "175642.636000", "175643.863000", "175645.114000", "175646.357000", "175647.615000", "175648.880000", "175650.196000", "175651.351000", "175652.639000", "175653.873000", "175655.111000", "175656.377000", "175657.617000", "175658.861000", "175700.143000", "175701.355000", "175702.593000", "175703.860000", "175705.133000", "175706.375000", "175707.634000", "175708.855000", "175710.116000", "175711.402000", "175712.624000", "175713.918000", "175715.141000", "175716.384000", "175717.624000", "175718.876000", "175720.137000", "175721.366000", "175722.619000", "175723.860000", "175725.206000", "175726.384000", "175727.615000", "175728.874000", "175730.115000", "175731.368000", "175732.625000", "175733.880000", "175735.161000", "175736.358000", "175737.617000", "175738.845000", "175740.143000", "175741.379000", "175742.610000", "175743.873000", "175745.146000", "175746.367000", "175747.642000", "175748.882000", "175750.141000", "175751.371000", "175752.617000", "175753.903000", "175755.143000", "175756.376000", "175757.602000", "175758.882000", "175800.107000", "175801.342000", "175802.640000", "175803.842000", "175805.125000", "175806.382000", "175807.632000", "175808.884000", "175810.088000", "175811.389000", "175812.673000", "175813.878000", "175815.134000", "175816.380000", "175817.627000", "175818.863000", "175820.117000", "175821.448000", "175822.664000", "175823.884000", "175825.129000", "175826.366000", "175827.630000", "175828.884000", "175830.128000", "175831.381000", "175832.637000", "175833.877000", "175835.126000", "175836.388000", "175837.630000", "175838.912000", "175840.104000", "175841.432000", "175842.616000", "175843.844000", "175845.107000", "175846.407000", "175847.620000", "175848.873000", "175850.169000", "175851.387000", "175852.642000", "175853.896000", "175855.128000", "175856.386000", "175857.650000", "175858.885000", "175900.087000", "175901.396000", "175902.628000", "175903.914000", "175905.146000", "175906.368000", "175907.613000", "175908.890000", "175910.112000", "175911.381000", "175912.625000", "175913.868000", "175915.097000", "175916.356000", "175917.614000", "175918.867000", "175920.095000", "175921.374000", "175922.617000", "175923.862000", "175925.126000", "175926.367000", "175927.620000", "175928.890000", "175930.127000", "175931.366000", "175932.607000", "175933.901000", "175935.161000", "175936.366000", "175937.597000", "175938.886000", "175940.129000", "175941.376000", "175942.630000", "175943.868000", "175945.133000", "175946.414000", "175947.667000", "175948.894000", "175950.111000", "175951.373000", "175952.627000", "175953.889000", "175955.155000", "175956.372000", "175957.629000", "175958.907000", "180000.126000", "180001.359000", "180002.630000", "180003.847000", "180005.132000", "180006.454000", "180007.621000", "180008.893000", "180010.144000", "180011.370000", "180012.669000", "180013.877000", "180015.189000", "180016.398000", "180017.630000", "180018.889000", "180020.114000", "180021.370000", "180022.617000", "180023.884000", "180025.107000", "180026.366000", "180027.588000", "180028.861000", "180030.096000", "180031.362000", "180032.645000", "180033.825000", "180035.144000", "180036.403000", "180037.631000", "180038.901000", "180040.098000", "180041.374000", "180042.637000", "180043.878000", "180045.119000", "180046.348000", "180047.641000", "180048.872000", "180050.127000", "180051.360000", "180052.653000", "180053.867000", "180055.145000", "180056.386000", "180057.614000", "180058.855000", "180100.121000", "180101.345000", "180102.620000", "180103.937000", "180105.143000", "180106.345000", "180107.597000", "180108.850000", "180110.129000", "180111.371000", "180112.624000", "180113.860000", "180115.133000", "180116.370000", "180117.634000", "180118.899000", "180120.100000", "180121.372000", "180122.615000", "180123.936000"],
      "InstanceNumber": [1, 2, 3, 4, 5, 6, 7, 8, 9, 10, 11, 12, 13, 14, 15, 16, 17, 18, 19, 20, 21, 22, 23, 24, 25, 26, 27, 28, 29, 30, 31, 32, 33, 34, 35, 36, 37, 38, 39, 40, 41, 42, 43, 44, 45, 46, 47, 48, 49, 50, 51, 52, 53, 54, 55, 56, 57, 58, 59, 60, 61, 62, 63, 64, 65, 66, 67, 68, 69, 70, 71, 72, 73, 74, 75, 76, 77, 78, 79, 80, 81, 82, 83, 84, 85, 86, 87, 88, 89, 90, 91, 92, 93, 94, 95, 96, 97, 98, 99, 100, 101, 102, 103, 104, 105, 106, 107, 108, 109, 110, 111, 112, 113, 114, 115, 116, 117, 118, 119, 120, 121, 122, 123, 124, 125, 126, 127, 128, 129, 130, 131, 132, 133, 134, 135, 136, 137, 138, 139, 140, 141, 142, 143, 144, 145, 146, 147, 148, 149, 150, 151, 152, 153, 154, 155, 156, 157, 158, 159, 160, 161, 162, 163, 164, 165, 166, 167, 168, 169, 170, 171, 172, 173, 174, 175, 176, 177, 178, 179, 180, 181, 182, 183, 184, 185, 186, 187, 188, 189, 190, 191, 192, 193, 194, 195, 196, 197, 198, 199, 200, 201, 202, 203, 204, 205, 206, 207, 208, 209, 210, 211, 212, 213, 214, 215, 216, 217, 218, 219, 220, 221, 222, 223, 224, 225, 226, 227, 228, 229, 230, 231, 232, 233, 234, 235, 236, 237, 238, 239, 240, 241, 242, 243, 244, 245, 246, 247, 248, 249, 250, 251, 252, 253, 254, 255, 256, 257, 258, 259, 260, 261, 262, 263, 264, 265, 266, 267, 268, 269, 270, 271, 272, 273, 274, 275, 276, 277, 278, 279, 280],
      "LargestImagePixelValue": [1242, 957, 1206, 948, 911, 1430, 1462, 1151, 946, 1224, 953, 963, 936, 1394, 940, 928, 1395, 995, 1239, 937, 1192, 1266, 915, 949, 1790, 1117, 950, 1295, 911, 1127, 933, 1041, 910, 1268, 1391, 1000, 959, 1061, 996, 936, 1618, 987, 1027, 1060, 1192, 1147, 962, 845, 850, 903, 885, 1010, 1337, 1098, 956, 874, 1125, 916, 1013, 1105, 1346, 933, 1155, 1316, 1034, 983, 1125, 1022, 1463, 873, 868, 1013, 1016, 875, 870, 963, 1567, 1117, 959, 844, 1264, 1348, 917, 966, 957, 1327, 1017, 940, 881, 1168, 871, 907, 1212, 1407, 926, 893, 1399, 948, 934, 944, 1595, 998, 884, 1312, 988, 918, 890, 1543, 1013, 921, 1137, 1308, 924, 904, 1096, 986, 1076, 1212, 1090, 1020, 1045, 1063, 1285, 899, 1083, 863, 1120, 1246, 931, 950, 837, 1006, 1107, 870, 1265, 954, 1195, 976, 1375, 1326, 1041, 1032, 1423, 1104, 1156, 965, 1205, 1110, 1063, 1073, 1227, 859, 1027, 886, 1321, 871, 1036, 1184, 862, 1069, 890, 1294, 1230, 964, 933, 1031, 889, 1082, 1244, 1161, 1064, 926, 1366, 886, 1060, 879, 1414, 960, 990, 1501, 1194, 990, 922, 1089, 879, 1053, 1316, 928, 1094, 960, 1299, 1183, 914, 1423, 902, 1106, 902, 1232, 875, 1117, 1240, 1116, 1126, 952, 1312, 912, 1156, 932, 1260, 864, 1094, 1227, 1116, 968, 1024, 1265, 1180, 1213, 1114, 1145, 962, 1000, 1159, 992, 1120, 1348, 1034, 1153, 1039, 1395, 1146, 940, 1432, 965, 1010, 933, 861, 965, 908, 974, 1030, 1409, 903, 983, 1434, 944, 1098, 1093, 1161, 1142, 924, 1282, 897, 1130, 898, 977, 1190, 928, 1110, 1117, 911, 1145, 1034, 1043, 1115, 894, 1119, 897, 1175, 902, 988, 973, 1540, 1051, 1136, 1060, 1159, 995, 1104, 1205],
      "WindowCenter": [385.0, 381.0, 383.0, 381.0, 381.0, 385.0, 384.0, 382.0, 380.0, 382.0, 380.0, 381.0, 380.0, 384.0, 381.0, 381.0, 385.0, 382.0, 384.0, 382.0, 383.0, 385.0, 381.0, 381.0, 386.0, 383.0, 381.0, 384.0, 381.0, 383.0, 381.0, 382.0, 381.0, 383.0, 384.0, 380.0, 380.0, 381.0, 381.0, 380.0, 385.0, 381.0, 380.0, 381.0, 381.0, 380.0, 379.0, 378.0, 379.0, 380.0, 380.0, 381.0, 383.0, 381.0, 380.0, 378.0, 381.0, 380.0, 381.0, 382.0, 385.0, 381.0, 383.0, 384.0, 382.0, 381.0, 382.0, 381.0, 384.0, 379.0, 379.0, 381.0, 382.0, 381.0, 381.0, 382.0, 386.0, 383.0, 381.0, 379.0, 383.0, 384.0, 380.0, 381.0, 381.0, 384.0, 382.0, 381.0, 380.0, 382.0, 381.0, 381.0, 384.0, 384.0, 380.0, 380.0, 384.0, 381.0, 381.0, 380.0, 385.0, 381.0, 379.0, 383.0, 381.0, 380.0, 381.0, 385.0, 382.0, 380.0, 382.0, 383.0, 380.0, 380.0, 382.0, 381.0, 382.0, 383.0, 382.0, 380.0, 381.0, 381.0, 382.0, 380.0, 382.0, 379.0, 381.0, 382.0, 380.0, 380.0, 379.0, 381.0, 382.0, 381.0, 384.0, 381.0, 383.0, 381.0, 384.0, 383.0, 382.0, 382.0, 383.0, 382.0, 382.0, 380.0, 383.0, 381.0, 381.0, 380.0, 381.0, 379.0, 381.0, 380.0, 384.0, 380.0, 381.0, 382.0, 380.0, 382.0, 381.0, 383.0, 383.0, 381.0, 380.0, 381.0, 380.0, 383.0, 384.0, 384.0, 382.0, 381.0, 384.0, 380.0, 382.0, 380.0, 385.0, 381.0, 381.0, 385.0, 382.0, 380.0, 380.0, 382.0, 380.0, 382.0, 384.0, 381.0, 382.0, 381.0, 384.0, 383.0, 381.0, 384.0, 379.0, 381.0, 380.0, 383.0, 380.0, 382.0, 383.0, 382.0, 382.0, 381.0, 384.0, 380.0, 382.0, 380.0, 383.0, 380.0, 383.0, 384.0, 383.0, 381.0, 381.0, 383.0, 382.0, 383.0, 382.0, 382.0, 381.0, 381.0, 382.0, 381.0, 382.0, 383.0, 382.0, 382.0, 382.0, 384.0, 382.0, 380.0, 384.0, 381.0, 381.0, 380.0, 379.0, 381.0, 381.0, 382.0, 383.0, 385.0, 380.0, 381.0, 385.0, 382.0, 382.0, 382.0, 382.0, 382.0, 380.0, 383.0, 380.0, 382.0, 380.0, 381.0, 384.0, 381.0, 382.0, 381.0, 380.0, 381.0, 380.0, 380.0, 381.0, 379.0, 381.0, 379.0, 383.0, 381.0, 382.0, 382.0, 385.0, 382.0, 382.0, 382.0, 383.0, 381.0, 382.0, 382.0],
      "WindowWidth": [818.0, 812.0, 815.0, 812.0, 812.0, 817.0, 816.0, 812.0, 809.0, 812.0, 810.0, 811.0, 810.0, 816.0, 811.0, 811.0, 817.0, 813.0, 816.0, 813.0, 815.0, 817.0, 812.0, 811.0, 818.0, 813.0, 811.0, 815.0, 811.0, 814.0, 811.0, 812.0, 811.0, 814.0, 815.0, 809.0, 809.0, 811.0, 811.0, 810.0, 817.0, 811.0, 810.0, 810.0, 811.0, 809.0, 807.0, 806.0, 808.0, 810.0, 809.0, 812.0, 814.0, 811.0, 809.0, 807.0, 811.0, 809.0, 811.0, 813.0, 816.0, 812.0, 814.0, 815.0, 812.0, 811.0, 813.0, 811.0, 814.0, 809.0, 808.0, 812.0, 812.0, 811.0, 811.0, 813.0, 818.0, 814.0, 811.0, 809.0, 814.0, 815.0, 810.0, 811.0, 811.0, 815.0, 812.0, 811.0, 810.0, 813.0, 811.0, 812.0, 816.0, 816.0, 811.0, 810.0, 815.0, 811.0, 811.0, 811.0, 817.0, 811.0, 808.0, 814.0, 811.0, 810.0, 811.0, 817.0, 812.0, 809.0, 813.0, 813.0, 810.0, 810.0, 813.0, 811.0, 813.0, 813.0, 812.0, 810.0, 810.0, 810.0, 813.0, 809.0, 811.0, 808.0, 811.0, 812.0, 809.0, 808.0, 808.0, 811.0, 813.0, 811.0, 816.0, 812.0, 814.0, 811.0, 815.0, 814.0, 812.0, 812.0, 814.0, 812.0, 812.0, 810.0, 813.0, 812.0, 811.0, 809.0, 811.0, 807.0, 810.0, 809.0, 815.0, 810.0, 811.0, 812.0, 809.0, 813.0, 811.0, 815.0, 815.0, 811.0, 810.0, 812.0, 810.0, 814.0, 816.0, 815.0, 813.0, 811.0, 815.0, 810.0, 812.0, 810.0, 817.0, 812.0, 812.0, 816.0, 813.0, 810.0, 809.0, 812.0, 810.0, 812.0, 816.0, 811.0, 813.0, 811.0, 815.0, 814.0, 811.0, 815.0, 809.0, 811.0, 810.0, 814.0, 810.0, 813.0, 814.0, 813.0, 813.0, 812.0, 815.0, 810.0, 812.0, 810.0, 813.0, 810.0, 814.0, 816.0, 815.0, 812.0, 811.0, 813.0, 813.0, 813.0, 813.0, 813.0, 811.0, 811.0, 812.0, 811.0, 813.0, 814.0, 812.0, 813.0, 812.0, 815.0, 812.0, 810.0, 815.0, 811.0, 811.0, 810.0, 808.0, 811.0, 811.0, 813.0, 814.0, 817.0, 810.0, 812.0, 817.0, 812.0, 813.0, 812.0, 812.0, 812.0, 810.0, 814.0, 810.0, 812.0, 810.0, 812.0, 815.0, 811.0, 812.0, 812.0, 809.0, 811.0, 809.0, 810.0, 810.0, 808.0, 810.0, 809.0, 814.0, 811.0, 813.0, 813.0, 817.0, 812.0, 813.0, 812.0, 814.0, 811.0, 812.0, 813.0]
    },
    "slices": {}
  }
}