{
  "AcquisitionMatrixPE": 96,
  "AcquisitionNumber": 1,
  "AcquisitionTime": "17:15:5.135000",
  "BandwidthPerPixelPhaseEncode": 18.939,
  "BaseResolution": 96,
  "BodyPartExamined": "BRAIN",
  "ConsistencyInfo": "N4_VE11C_LATEST_20160120",
  "ConversionSoftware": "dcm2niix",
  "ConversionSoftwareVersion": "v1.0.20170923 (OpenJPEG build) GCC6.3.0",
  "DerivedVendorReportedEchoSpacing": 0.000550011,
  "DeviceSerialNumber": "66112",
  "DwellTime": 2.3e-06,
  "EchoTime": 0.033,
  "EchoTrainLength": 96,
  "EffectiveEchoSpacing": 0.000550011,
  "FlipAngle": 64,
  "ImageType": [
    "ORIGINAL",
    "PRIMARY",
    "FMRI",
    "NONE",
    "ND",
    "NORM",
    "MOSAIC"
],
  "InstitutionAddress": "Maynard_3_Hanover_NH_US_03755",
  "InstitutionName": "Dartmouth_College_-_PBS",
  "MagneticFieldStrength": 3,
  "Manufacturer": "Siemens",
  "ManufacturersModelName": "Prisma",
  "Modality": "MR",
  "MultibandAccelerationFactor": 4,
  "PartialFourier": 1,
  "PercentPhaseFOV": 100,
  "PhaseEncodingDirection": "j-",
  "PhaseEncodingSteps": 96,
  "PhaseResolution": 1,
  "ProcedureStepDescription": "Gobbini_Matteo_1017_famface-angles",
  "ProtocolName": "func_run-01_task-str1back",
  "PulseSequenceDetails": "%SiemensSeq%_ep2d_bold",
  "ReceiveCoilActiveElements": "HEA;HEP",
  "ReceiveCoilName": "Head_32",
  "ReconMatrixPE": 96,
  "RepetitionTime": 1.25,
  "ScanOptions": "FS",
  "ScanningSequence": "EP",
  "SequenceName": "_epfid2d1_96",
  "SequenceVariant": "SK",
  "SeriesDescription": "func_run-01_task-str1back",
  "SliceTiming": [0.8775, 0, 0.615, 0.0875, 0.7025, 0.175, 0.79, 0.35, 0.965, 0.44, 1.055, 0.5275, 1.1425, 0.2625, 0.8775, 0, 0.615, 0.0875, 0.7025, 0.175, 0.79, 0.35, 0.965, 0.44, 1.055, 0.5275, 1.1425, 0.2625, 0.8775, 0, 0.615, 0.0875, 0.7025, 0.175, 0.79, 0.35, 0.965, 0.44, 1.055, 0.5275, 1.1425, 0.2625, 0.8775, 0, 0.615, 0.0875, 0.7025, 0.175, 0.79, 0.35, 0.965, 0.44, 1.055, 0.5275, 1.1425, 0.2625],
  "SoftwareVersions": "syngo_MR_E11",
  "StationName": "AWP66112",
  "TaskName": "str1back",
  "TotalReadoutTime": 0.0522511,
  "dcmmeta_affine": [
    [-2.4995944499969482, -0.04275773838162422, -0.014108624309301376, 124.7601318359375],
    [-0.0443987213075161, 2.470911741256714, 0.3776552081108093, -94.64942932128906],
    [-0.007485393900424242, -0.37784454226493835, 2.4712703227996826, -55.4096565246582],
    [0.0, 0.0, 0.0, 1.0]
],
  "dcmmeta_reorient_transform": [
    [0.0, -1.0, 0.0, 95.0],
    [1.0, 0.0, 0.0, 0.0],
    [0.0, 0.0, 1.0, 0.0],
    [0.0, 0.0, 0.0, 1.0]
],
  "dcmmeta_shape": [96, 96, 56, 280],
  "dcmmeta_slice_dim": 2,
  "dcmmeta_version": 0.6,
  "global": {
    "const": {
      "AccessionNumber": "A000295",
      "AcquisitionMatrix": [96, 0, 0, 96],
      "AngioFlag": "N",
      "BitsAllocated": 16,
      "BitsStored": 12,
      "BodyPartExamined": "BRAIN",
      "Columns": 768,
      "EchoNumbers": 1,
      "EchoTime": 33.0,
      "EchoTrainLength": 96,
      "FlipAngle": 64.0,
      "HighBit": 11,
      "ImageOrientationPatient": [0.99983780463524, 0.01775948880109, -0.002994157597, -0.0171030960153, 0.98836473294099, 0.15113781388247],
      "ImagePositionPatient": [-946.19530356674, -985.23154016488, -215.74555895985],
      "ImageType": [
        "ORIGINAL",
        "PRIMARY",
        "FMRI",
        "NONE",
        "ND",
        "NORM",
        "MOSAIC"
],
      "ImagedNucleus": "1H",
      "ImagingFrequency": 123.252359,
      "InPlanePhaseEncodingDirection": "COL",
      "MRAcquisitionType": "2D",
      "MagneticFieldStrength": 3.0,
      "Manufacturer": "SIEMENS",
      "ManufacturerModelName": "Prisma",
      "Modality": "MR",
      "NumberOfAverages": 1.0,
      "NumberOfPhaseEncodingSteps": 96,
      "PercentPhaseFieldOfView": 100.0,
      "PercentSampling": 100.0,
      "PerformedProcedureStepStartTime": "165333.439000",
      "PhotometricInterpretation": "MONOCHROME2",
      "PixelBandwidth": 2265.0,
      "PixelRepresentation": 0,
      "PixelSpacing": [2.5, 2.5],
      "PositionReferenceIndicator": "",
      "ProtocolName": "func_run-01_task-str1back",
      "RepetitionTime": 1250.0,
      "Rows": 768,
      "SAR": 0.05259224264587,
      "SamplesPerPixel": 1,
      "ScanOptions": "FS",
      "ScanningSequence": "EP",
      "SequenceName": "*epfid2d1_96",
      "SequenceVariant": "SK",
      "SeriesDescription": "func_run-01_task-str1back",
      "SeriesNumber": 8,
      "SeriesTime": "171506.713000",
      "SliceLocation": -69.774916748694,
      "SliceThickness": 2.5,
      "SmallestImagePixelValue": 0,
      "SoftwareVersions": "syngo MR E11",
      "SpacingBetweenSlices": 2.4999999103724,
      "SpecificCharacterSet": "ISO_IR 100",
      "StudyID": "4",
      "StudyTime": "165333.388000",
      "TransmitCoilName": "Body",
      "VariableFlipAngleFlag": "N",
      "WindowCenterWidthExplanation": "Algo1",
      "dBdt": 0.0},
    "slices": {}
  },
  "time": {
    "samples": {
      "AcquisitionNumber": [1, 2, 3, 4, 5, 6, 7, 8, 9, 10, 11, 12, 13, 14, 15, 16, 17, 18, 19, 20, 21, 22, 23, 24, 25, 26, 27, 28, 29, 30, 31, 32, 33, 34, 35, 36, 37, 38, 39, 40, 41, 42, 43, 44, 45, 46, 47, 48, 49, 50, 51, 52, 53, 54, 55, 56, 57, 58, 59, 60, 61, 62, 63, 64, 65, 66, 67, 68, 69, 70, 71, 72, 73, 74, 75, 76, 77, 78, 79, 80, 81, 82, 83, 84, 85, 86, 87, 88, 89, 90, 91, 92, 93, 94, 95, 96, 97, 98, 99, 100, 101, 102, 103, 104, 105, 106, 107, 108, 109, 110, 111, 112, 113, 114, 115, 116, 117, 118, 119, 120, 121, 122, 123, 124, 125, 126, 127, 128, 129, 130, 131, 132, 133, 134, 135, 136, 137, 138, 139, 140, 141, 142, 143, 144, 145, 146, 147, 148, 149, 150, 151, 152, 153, 154, 155, 156, 157, 158, 159, 160, 161, 162, 163, 164, 165, 166, 167, 168, 169, 170, 171, 172, 173, 174, 175, 176, 177, 178, 179, 180, 181, 182, 183, 184, 185, 186, 187, 188, 189, 190, 191, 192, 193, 194, 195, 196, 197, 198, 199, 200, 201, 202, 203, 204, 205, 206, 207, 208, 209, 210, 211, 212, 213, 214, 215, 216, 217, 218, 219, 220, 221, 222, 223, 224, 225, 226, 227, 228, 229, 230, 231, 232, 233, 234, 235, 236, 237, 238, 239, 240, 241, 242, 243, 244, 245, 246, 247, 248, 249, 250, 251, 252, 253, 254, 255, 256, 257, 258, 259, 260, 261, 262, 263, 264, 265, 266, 267, 268, 269, 270, 271, 272, 273, 274, 275, 276, 277, 278, 279, 280],
      "AcquisitionTime": ["171505.135000", "171506.385000", "171507.635000", "171508.885000", "171510.135000", "171511.385000", "171512.635000", "171513.885000", "171515.135000", "171516.385000", "171517.635000", "171518.885000", "171520.135000", "171521.385000", "171522.635000", "171523.885000", "171525.135000", "171526.385000", "171527.635000", "171528.885000", "171530.135000", "171531.385000", "171532.635000", "171533.885000", "171535.135000", "171536.385000", "171537.635000", "171538.885000", "171540.135000", "171541.385000", "171542.635000", "171543.885000", "171545.135000", "171546.385000", "171547.635000", "171548.885000", "171550.135000", "171551.385000", "171552.635000", "171553.885000", "171555.135000", "171556.385000", "171557.635000", "171558.885000", "171600.135000", "171601.385000", "171602.635000", "171603.885000", "171605.135000", "171606.385000", "171607.635000", "171608.885000", "171610.135000", "171611.385000", "171612.635000", "171613.885000", "171615.135000", "171616.385000", "171617.635000", "171618.885000", "171620.135000", "171621.385000", "171622.635000", "171623.885000", "171625.135000", "171626.385000", "171627.635000", "171628.885000", "171630.135000", "171631.385000", "171632.635000", "171633.885000", "171635.135000", "171636.385000", "171637.635000", "171638.885000", "171640.135000", "171641.385000", "171642.635000", "171643.885000", "171645.135000", "171646.385000", "171647.635000", "171648.885000", "171650.135000", "171651.385000", "171652.635000", "171653.885000", "171655.135000", "171656.385000", "171657.635000", "171658.885000", "171700.135000", "171701.385000", "171702.635000", "171703.885000", "171705.135000", "171706.385000", "171707.635000", "171708.885000", "171710.135000", "171711.385000", "171712.635000", "171713.885000", "171715.135000", "171716.385000", "171717.635000", "171718.885000", "171720.135000", "171721.385000", "171722.635000", "171723.885000", "171725.135000", "171726.385000", "171727.635000", "171728.885000", "171730.135000", "171731.385000", "171732.635000", "171733.885000", "171735.135000", "171736.385000", "171737.635000", "171738.885000", "171740.135000", "171741.385000", "171742.635000", "171743.885000", "171745.135000", "171746.385000", "171747.635000", "171748.885000", "171750.135000", "171751.385000", "171752.635000", "171753.885000", "171755.135000", "171756.385000", "171757.635000", "171758.885000", "171800.135000", "171801.385000", "171802.635000", "171803.885000", "171805.135000", "171806.385000", "171807.635000", "171808.885000", "171810.135000", "171811.385000", "171812.635000", "171813.885000", "171815.135000", "171816.385000", "171817.635000", "171818.885000", "171820.135000", "171821.385000", "171822.635000", "171823.885000", "171825.135000", "171826.385000", "171827.635000", "171828.885000", "171830.135000", "171831.385000", "171832.635000", "171833.885000", "171835.135000", "171836.385000", "171837.635000", "171838.885000", "171840.135000", "171841.385000", "171842.635000", "171843.885000", "171845.135000", "171846.385000", "171847.635000", "171848.885000", "171850.135000", "171851.385000", "171852.635000", "171853.885000", "171855.135000", "171856.385000", "171857.635000", "171858.885000", "171900.135000", "171901.385000", "171902.635000", "171903.885000", "171905.135000", "171906.385000", "171907.635000", "171908.885000", "171910.135000", "171911.385000", "171912.635000", "171913.885000", "171915.135000", "171916.385000", "171917.635000", "171918.885000", "171920.135000", "171921.385000", "171922.635000", "171923.885000", "171925.135000", "171926.385000", "171927.635000", "171928.885000", "171930.135000", "171931.385000", "171932.635000", "171933.885000", "171935.135000", "171936.385000", "171937.635000", "171938.885000", "171940.135000", "171941.385000", "171942.635000", "171943.885000", "171945.135000", "171946.385000", "171947.635000", "171948.885000", "171950.135000", "171951.385000", "171952.635000", "171953.885000", "171955.135000", "171956.385000", "171957.635000", "171958.885000", "172000.135000", "172001.385000", "172002.635000", "172003.885000", "172005.135000", "172006.385000", "172007.635000", "172008.885000", "172010.135000", "172011.385000", "172012.635000", "172013.885000", "172015.135000", "172016.385000", "172017.635000", "172018.885000", "172020.135000", "172021.385000", "172022.635000", "172023.885000", "172025.135000", "172026.385000", "172027.635000", "172028.885000", "172030.135000", "172031.385000", "172032.635000", "172033.885000", "172035.135000", "172036.385000", "172037.635000", "172038.885000", "172040.135000", "172041.385000", "172042.635000", "172043.885000", "172045.135000", "172046.385000", "172047.635000", "172048.885000", "172050.135000", "172051.385000", "172052.635000", "172053.885000"],
      "ContentTime": ["171506.717000", "171507.789000", "171509.027000", "171510.303000", "171511.545000", "171512.837000", "171514.064000", "171515.306000", "171516.553000", "171517.781000", "171519.058000", "171520.328000", "171521.538000", "171522.807000", "171524.080000", "171525.304000", "171526.552000", "171527.807000", "171529.158000", "171530.303000", "171531.537000", "171532.803000", "171534.077000", "171535.290000", "171536.530000", "171537.774000", "171539.040000", "171540.274000", "171541.567000", "171542.781000", "171544.037000", "171545.283000", "171546.580000", "171547.779000", "171549.041000", "171550.279000", "171551.508000", "171552.824000", "171554.026000", "171555.309000", "171556.542000", "171557.841000", "171559.050000", "171600.313000", "171601.543000", "171602.798000", "171604.079000", "171605.291000", "171606.537000", "171607.819000", "171609.047000", "171610.323000", "171611.568000", "171612.795000", "171614.018000", "171615.316000", "171616.535000", "171617.788000", "171619.025000", "171620.303000", "171621.532000", "171622.784000", "171624.054000", "171625.286000", "171626.538000", "171627.783000", "171629.047000", "171630.311000", "171631.593000", "171632.834000", "171634.061000", "171635.261000", "171636.532000", "171637.792000", "171639.075000", "171640.310000", "171641.520000", "171642.810000", "171644.044000", "171645.288000", "171646.527000", "171647.787000", "171649.023000", "171650.274000", "171651.521000", "171652.801000", "171654.032000", "171655.281000", "171656.555000", "171657.789000", "171659.033000", "171700.243000", "171701.501000", "171702.842000", "171704.044000", "171705.286000", "171706.534000", "171707.785000", "171709.034000", "171710.290000", "171711.566000", "171712.792000", "171714.081000", "171715.335000", "171716.564000", "171717.802000", "171719.036000", "171720.320000", "171721.549000", "171722.811000", "171724.058000", "171725.276000", "171726.562000", "171727.795000", "171729.083000", "171730.323000", "171731.560000", "171732.769000", "171734.021000", "171735.264000", "171736.537000", "171737.801000", "171739.031000", "171740.284000", "171741.565000", "171742.782000", "171744.053000", "171745.301000", "171746.558000", "171747.822000", "171749.044000", "171750.310000", "171751.545000", "171752.745000", "171754.054000", "171755.320000", "171756.532000", "171757.777000", "171759.028000", "171800.314000", "171801.556000", "171802.801000", "171804.065000", "171805.282000", "171806.583000", "171807.816000", "171809.053000", "171810.290000", "171811.559000", "171812.783000", "171814.052000", "171815.311000", "171816.557000", "171817.768000", "171819.074000", "171820.297000", "171821.553000", "171822.783000", "171824.047000", "171825.279000", "171826.574000", "171827.815000", "171829.059000", "171830.294000", "171831.583000", "171832.806000", "171834.025000", "171835.349000", "171836.570000", "171837.834000", "171839.063000", "171840.302000", "171841.567000", "171842.798000", "171844.073000", "171845.281000", "171846.551000", "171847.815000", "171849.048000", "171850.324000", "171851.551000", "171852.805000", "171854.049000", "171855.291000", "171856.595000", "171857.802000", "171859.039000", "171900.308000", "171901.532000", "171902.809000", "171904.056000", "171905.315000", "171906.549000", "171907.776000", "171909.065000", "171910.286000", "171911.551000", "171912.785000", "171914.036000", "171915.285000", "171916.588000", "171917.791000", "171919.062000", "171920.292000", "171921.542000", "171922.844000", "171924.060000", "171925.290000", "171926.532000", "171927.790000", "171929.042000", "171930.288000", "171931.539000", "171932.806000", "171934.062000", "171935.312000", "171936.563000", "171937.792000", "171939.044000", "171940.267000", "171941.557000", "171942.775000", "171944.040000", "171945.310000", "171946.534000", "171947.792000", "171949.053000", "171950.290000", "171951.569000", "171952.796000", "171954.044000", "171955.288000", "171956.549000", "171957.775000", "171959.049000", "172000.306000", "172001.525000", "172002.789000", "172004.033000", "172005.289000", "172006.568000", "172007.813000", "172009.038000", "172010.319000", "172011.532000", "172012.815000", "172014.056000", "172015.303000", "172016.564000", "172017.800000", "172019.042000", "172020.285000", "172021.575000", "172022.814000", "172024.029000", "172025.286000", "172026.560000", "172027.806000", "172029.033000", "172030.276000", "172031.550000", "172032.827000", "172034.030000", "172035.308000", "172036.571000", "172037.799000", "172039.050000", "172040.291000", "172041.548000", "172042.795000", "172044.068000", "172045.314000", "172046.523000", "172047.787000", "172049.039000", "172050.300000", "172051.530000", "172052.789000", "172054.049000", "172055.366000"],
      "InstanceCreationTime": ["171506.717000", "171507.789000", "171509.027000", "171510.303000", "171511.545000", "171512.837000", "171514.064000", "171515.306000", "171516.553000", "171517.781000", "171519.058000", "171520.328000", "171521.538000", "171522.807000", "171524.080000", "171525.304000", "171526.552000", "171527.807000", "171529.158000", "171530.303000", "171531.537000", "171532.803000", "171534.077000", "171535.290000", "171536.530000", "171537.774000", "171539.040000", "171540.274000", "171541.567000", "171542.781000", "171544.037000", "171545.283000", "171546.580000", "171547.779000", "171549.041000", "171550.279000", "171551.508000", "171552.824000", "171554.026000", "171555.309000", "171556.542000", "171557.841000", "171559.050000", "171600.313000", "171601.543000", "171602.798000", "171604.079000", "171605.291000", "171606.537000", "171607.819000", "171609.047000", "171610.323000", "171611.568000", "171612.795000", "171614.018000", "171615.316000", "171616.535000", "171617.788000", "171619.025000", "171620.303000", "171621.532000", "171622.784000", "171624.054000", "171625.286000", "171626.538000", "171627.783000", "171629.047000", "171630.311000", "171631.593000", "171632.834000", "171634.061000", "171635.261000", "171636.532000", "171637.792000", "171639.075000", "171640.310000", "171641.520000", "171642.810000", "171644.044000", "171645.288000", "171646.527000", "171647.787000", "171649.023000", "171650.274000", "171651.521000", "171652.801000", "171654.032000", "171655.281000", "171656.555000", "171657.789000", "171659.033000", "171700.243000", "171701.501000", "171702.842000", "171704.044000", "171705.286000", "171706.534000", "171707.785000", "171709.034000", "171710.290000", "171711.566000", "171712.792000", "171714.081000", "171715.335000", "171716.564000", "171717.802000", "171719.036000", "171720.320000", "171721.549000", "171722.811000", "171724.058000", "171725.276000", "171726.562000", "171727.795000", "171729.083000", "171730.323000", "171731.560000", "171732.769000", "171734.021000", "171735.264000", "171736.537000", "171737.801000", "171739.031000", "171740.284000", "171741.565000", "171742.782000", "171744.053000", "171745.301000", "171746.558000", "171747.822000", "171749.044000", "171750.310000", "171751.545000", "171752.745000", "171754.054000", "171755.320000", "171756.532000", "171757.777000", "171759.028000", "171800.314000", "171801.556000", "171802.801000", "171804.065000", "171805.282000", "171806.583000", "171807.816000", "171809.053000", "171810.290000", "171811.559000", "171812.783000", "171814.052000", "171815.311000", "171816.557000", "171817.768000", "171819.074000", "171820.297000", "171821.553000", "171822.783000", "171824.047000", "171825.279000", "171826.574000", "171827.815000", "171829.059000", "171830.294000", "171831.583000", "171832.806000", "171834.025000", "171835.349000", "171836.570000", "171837.834000", "171839.063000", "171840.302000", "171841.567000", "171842.798000", "171844.073000", "171845.281000", "171846.551000", "171847.815000", "171849.048000", "171850.324000", "171851.551000", "171852.805000", "171854.049000", "171855.291000", "171856.595000", "171857.802000", "171859.039000", "171900.308000", "171901.532000", "171902.809000", "171904.056000", "171905.315000", "171906.549000", "171907.776000", "171909.065000", "171910.286000", "171911.551000", "171912.785000", "171914.036000", "171915.285000", "171916.588000", "171917.791000", "171919.062000", "171920.292000", "171921.542000", "171922.844000", "171924.060000", "171925.290000", "171926.532000", "171927.790000", "171929.042000", "171930.288000", "171931.539000", "171932.806000", "171934.062000", "171935.312000", "171936.563000", "171937.792000", "171939.044000", "171940.267000", "171941.557000", "171942.775000", "171944.040000", "171945.310000", "171946.534000", "171947.792000", "171949.053000", "171950.290000", "171951.569000", "171952.796000", "171954.044000", "171955.288000", "171956.549000", "171957.775000", "171959.049000", "172000.306000", "172001.525000", "172002.789000", "172004.033000", "172005.289000", "172006.568000", "172007.813000", "172009.038000", "172010.319000", "172011.532000", "172012.815000", "172014.056000", "172015.303000", "172016.564000", "172017.800000", "172019.042000", "172020.285000", "172021.575000", "172022.814000", "172024.029000", "172025.286000", "172026.560000", "172027.806000", "172029.033000", "172030.276000", "172031.550000", "172032.827000", "172034.030000", "172035.308000", "172036.571000", "172037.799000", "172039.050000", "172040.291000", "172041.548000", "172042.795000", "172044.068000", "172045.314000", "172046.523000", "172047.787000", "172049.039000", "172050.300000", "172051.530000", "172052.789000", "172054.049000", "172055.366000"],
      "InstanceNumber": [1, 2, 3, 4, 5, 6, 7, 8, 9, 10, 11, 12, 13, 14, 15, 16, 17, 18, 19, 20, 21, 22, 23, 24, 25, 26, 27, 28, 29, 30, 31, 32, 33, 34, 35, 36, 37, 38, 39, 40, 41, 42, 43, 44, 45, 46, 47, 48, 49, 50, 51, 52, 53, 54, 55, 56, 57, 58, 59, 60, 61, 62, 63, 64, 65, 66, 67, 68, 69, 70, 71, 72, 73, 74, 75, 76, 77, 78, 79, 80, 81, 82, 83, 84, 85, 86, 87, 88, 89, 90, 91, 92, 93, 94, 95, 96, 97, 98, 99, 100, 101, 102, 103, 104, 105, 106, 107, 108, 109, 110, 111, 112, 113, 114, 115, 116, 117, 118, 119, 120, 121, 122, 123, 124, 125, 126, 127, 128, 129, 130, 131, 132, 133, 134, 135, 136, 137, 138, 139, 140, 141, 142, 143, 144, 145, 146, 147, 148, 149, 150, 151, 152, 153, 154, 155, 156, 157, 158, 159, 160, 161, 162, 163, 164, 165, 166, 167, 168, 169, 170, 171, 172, 173, 174, 175, 176, 177, 178, 179, 180, 181, 182, 183, 184, 185, 186, 187, 188, 189, 190, 191, 192, 193, 194, 195, 196, 197, 198, 199, 200, 201, 202, 203, 204, 205, 206, 207, 208, 209, 210, 211, 212, 213, 214, 215, 216, 217, 218, 219, 220, 221, 222, 223, 224, 225, 226, 227, 228, 229, 230, 231, 232, 233, 234, 235, 236, 237, 238, 239, 240, 241, 242, 243, 244, 245, 246, 247, 248, 249, 250, 251, 252, 253, 254, 255, 256, 257, 258, 259, 260, 261, 262, 263, 264, 265, 266, 267, 268, 269, 270, 271, 272, 273, 274, 275, 276, 277, 278, 279, 280],
      "LargestImagePixelValue": [1209, 1716, 1067, 1074, 1183, 1257, 1094, 1088, 1601, 943, 1100, 879, 1103, 1076, 977, 1131, 1098, 1419, 1101, 1132, 889, 1076, 998, 1108, 1410, 1116, 1052, 1203, 930, 890, 1668, 875, 921, 1092, 989, 1676, 1479, 1043, 960, 1215, 847, 1012, 1133, 848, 1140, 1137, 1362, 1144, 834, 980, 1031, 1166, 1014, 1108, 1296, 1322, 992, 886, 1157, 886, 944, 1358, 912, 1038, 861, 1621, 937, 933, 1248, 832, 1028, 916, 1063, 1091, 890, 981, 1067, 1128, 1584, 1177, 1290, 1040, 1685, 827, 945, 843, 886, 1018, 973, 1825, 858, 987, 1012, 901, 966, 1242, 946, 1021, 1429, 980, 1084, 904, 929, 1120, 930, 1525, 1030, 1087, 1187, 938, 1058, 948, 1119, 1117, 882, 1140, 993, 1232, 1122, 1028, 1007, 1189, 1245, 1129, 1244, 1087, 1125, 1432, 855, 984, 1253, 924, 1049, 1740, 967, 1202, 852, 1181, 912, 990, 981, 881, 1094, 1250, 1083, 863, 983, 1064, 1306, 1089, 904, 1380, 925, 1049, 857, 1075, 1099, 1030, 1553, 1435, 1059, 1095, 846, 846, 972, 1094, 1504, 1170, 1001, 1021, 908, 1357, 1064, 1033, 1120, 1061, 1042, 1068, 1583, 1060, 971, 965, 923, 1397, 1150, 943, 1040, 895, 1000, 954, 1009, 1197, 975, 1345, 1193, 988, 1020, 864, 1288, 900, 958, 945, 1025, 1083, 1644, 894, 878, 1420, 848, 949, 1052, 866, 1004, 1084, 1623, 1194, 927, 969, 1032, 897, 924, 1203, 876, 857, 1232, 981, 1008, 1002, 881, 979, 855, 1626, 1202, 968, 1378, 1058, 1456, 916, 888, 1125, 866, 930, 1005, 1295, 970, 985, 1010, 827, 950, 858, 942, 1547, 1478, 1162, 1036, 882, 1205, 899, 936, 853, 1077, 904, 928, 1387, 1303, 1577, 1014, 1036, 1265, 1008, 1009, 1049, 1129, 943, 1101, 1103, 1316, 1274, 913, 877],
      "WindowCenter": [385.0, 387.0, 383.0, 382.0, 384.0, 383.0, 382.0, 382.0, 384.0, 380.0, 381.0, 379.0, 381.0, 381.0, 381.0, 382.0, 382.0, 384.0, 382.0, 382.0, 381.0, 382.0, 382.0, 382.0, 387.0, 381.0, 381.0, 382.0, 381.0, 380.0, 385.0, 379.0, 380.0, 383.0, 382.0, 386.0, 385.0, 381.0, 380.0, 382.0, 379.0, 382.0, 383.0, 380.0, 383.0, 383.0, 383.0, 382.0, 380.0, 381.0, 382.0, 382.0, 382.0, 382.0, 383.0, 382.0, 380.0, 379.0, 382.0, 380.0, 381.0, 384.0, 380.0, 382.0, 380.0, 385.0, 380.0, 380.0, 383.0, 380.0, 381.0, 381.0, 382.0, 382.0, 380.0, 382.0, 383.0, 383.0, 386.0, 383.0, 383.0, 381.0, 384.0, 379.0, 380.0, 380.0, 381.0, 382.0, 381.0, 385.0, 380.0, 381.0, 381.0, 380.0, 381.0, 383.0, 381.0, 382.0, 384.0, 381.0, 382.0, 380.0, 380.0, 382.0, 381.0, 384.0, 382.0, 381.0, 382.0, 380.0, 381.0, 380.0, 381.0, 382.0, 381.0, 383.0, 382.0, 384.0, 383.0, 381.0, 382.0, 383.0, 383.0, 382.0, 383.0, 382.0, 383.0, 385.0, 381.0, 382.0, 383.0, 381.0, 382.0, 386.0, 381.0, 382.0, 379.0, 381.0, 379.0, 380.0, 381.0, 381.0, 382.0, 383.0, 382.0, 380.0, 381.0, 382.0, 384.0, 382.0, 381.0, 384.0, 381.0, 382.0, 381.0, 383.0, 383.0, 383.0, 385.0, 384.0, 381.0, 381.0, 380.0, 381.0, 383.0, 383.0, 385.0, 382.0, 380.0, 380.0, 379.0, 383.0, 382.0, 382.0, 382.0, 382.0, 381.0, 381.0, 384.0, 381.0, 381.0, 382.0, 381.0, 384.0, 382.0, 380.0, 380.0, 379.0, 381.0, 382.0, 381.0, 383.0, 381.0, 384.0, 382.0, 380.0, 380.0, 378.0, 382.0, 380.0, 381.0, 381.0, 381.0, 382.0, 385.0, 379.0, 379.0, 383.0, 379.0, 380.0, 382.0, 380.0, 382.0, 382.0, 384.0, 381.0, 379.0, 379.0, 380.0, 379.0, 380.0, 382.0, 379.0, 379.0, 382.0, 380.0, 381.0, 381.0, 380.0, 382.0, 381.0, 386.0, 384.0, 381.0, 383.0, 380.0, 382.0, 378.0, 378.0, 380.0, 378.0, 380.0, 381.0, 382.0, 380.0, 380.0, 380.0, 379.0, 381.0, 380.0, 381.0, 385.0, 384.0, 381.0, 379.0, 378.0, 381.0, 379.0, 380.0, 381.0, 383.0, 381.0, 381.0, 384.0, 383.0, 384.0, 380.0, 381.0, 382.0, 379.0, 380.0, 380.0, 381.0, 379.0, 380.0, 380.0, 381.0, 380.0, 378.0, 377.0],
      "WindowWidth": [819.0, 820.0, 814.0, 813.0, 815.0, 814.0, 812.0, 812.0, 815.0, 809.0, 811.0, 808.0, 811.0, 811.0, 811.0, 813.0, 813.0, 815.0, 813.0, 812.0, 812.0, 813.0, 812.0, 813.0, 821.0, 811.0, 810.0, 813.0, 810.0, 810.0, 816.0, 808.0, 810.0, 814.0, 814.0, 819.0, 816.0, 812.0, 810.0, 813.0, 809.0, 812.0, 814.0, 810.0, 814.0, 814.0, 813.0, 812.0, 810.0, 811.0, 812.0, 812.0, 812.0, 812.0, 814.0, 813.0, 809.0, 808.0, 812.0, 809.0, 810.0, 815.0, 810.0, 812.0, 810.0, 816.0, 810.0, 810.0, 815.0, 810.0, 811.0, 811.0, 812.0, 812.0, 810.0, 813.0, 814.0, 814.0, 818.0, 814.0, 813.0, 810.0, 815.0, 807.0, 810.0, 810.0, 811.0, 812.0, 812.0, 817.0, 809.0, 811.0, 811.0, 810.0, 811.0, 814.0, 811.0, 812.0, 815.0, 811.0, 812.0, 809.0, 810.0, 812.0, 811.0, 816.0, 812.0, 811.0, 812.0, 809.0, 810.0, 809.0, 811.0, 813.0, 811.0, 814.0, 813.0, 815.0, 814.0, 812.0, 813.0, 814.0, 814.0, 813.0, 814.0, 813.0, 814.0, 818.0, 812.0, 813.0, 815.0, 811.0, 812.0, 818.0, 811.0, 812.0, 807.0, 811.0, 808.0, 809.0, 811.0, 811.0, 813.0, 814.0, 812.0, 810.0, 812.0, 813.0, 816.0, 813.0, 811.0, 815.0, 811.0, 813.0, 812.0, 815.0, 815.0, 814.0, 817.0, 815.0, 811.0, 811.0, 810.0, 811.0, 814.0, 815.0, 817.0, 812.0, 809.0, 809.0, 808.0, 814.0, 812.0, 812.0, 813.0, 812.0, 811.0, 811.0, 814.0, 811.0, 811.0, 812.0, 811.0, 815.0, 812.0, 809.0, 810.0, 808.0, 810.0, 813.0, 811.0, 814.0, 811.0, 815.0, 812.0, 809.0, 809.0, 806.0, 812.0, 809.0, 811.0, 812.0, 812.0, 812.0, 816.0, 808.0, 807.0, 814.0, 808.0, 810.0, 813.0, 811.0, 812.0, 812.0, 815.0, 811.0, 807.0, 808.0, 810.0, 809.0, 809.0, 812.0, 809.0, 809.0, 812.0, 809.0, 810.0, 811.0, 810.0, 813.0, 812.0, 819.0, 816.0, 812.0, 813.0, 808.0, 810.0, 805.0, 805.0, 808.0, 806.0, 809.0, 810.0, 812.0, 808.0, 808.0, 809.0, 808.0, 812.0, 810.0, 812.0, 816.0, 814.0, 810.0, 807.0, 805.0, 810.0, 807.0, 809.0, 811.0, 815.0, 812.0, 812.0, 816.0, 814.0, 815.0, 810.0, 810.0, 812.0, 808.0, 808.0, 809.0, 811.0, 808.0, 809.0, 808.0, 810.0, 809.0, 805.0, 805.0]
    },
    "slices": {}
  }
}