{
  "AcquisitionMatrixPE": 96,
  "AcquisitionNumber": 1,
  "AcquisitionTime": "17:27:49.365000",
  "BandwidthPerPixelPhaseEncode": 18.939,
  "BaseResolution": 96,
  "BodyPartExamined": "BRAIN",
  "ConsistencyInfo": "N4_VE11C_LATEST_20160120",
  "ConversionSoftware": "dcm2niix",
  "ConversionSoftwareVersion": "v1.0.20170923 (OpenJPEG build) GCC6.3.0",
  "DerivedVendorReportedEchoSpacing": 0.000550011,
  "DeviceSerialNumber": "66112",
  "DwellTime": 2.3e-06,
  "EchoTime": 0.033,
  "EchoTrainLength": 96,
  "EffectiveEchoSpacing": 0.000550011,
  "FlipAngle": 64,
  "ImageType": [
    "ORIGINAL",
    "PRIMARY",
    "FMRI",
    "NONE",
    "ND",
    "NORM",
    "MOSAIC"
],
  "InstitutionAddress": "Maynard_3_Hanover_NH_US_03755",
  "InstitutionName": "Dartmouth_College_-_PBS",
  "MagneticFieldStrength": 3,
  "Manufacturer": "Siemens",
  "ManufacturersModelName": "Prisma",
  "Modality": "MR",
  "MultibandAccelerationFactor": 4,
  "PartialFourier": 1,
  "PercentPhaseFOV": 100,
  "PhaseEncodingDirection": "j-",
  "PhaseEncodingSteps": 96,
  "PhaseResolution": 1,
  "ProcedureStepDescription": "Gobbini_Matteo_1017_famface-angles",
  "ProtocolName": "func_run-03_task-str1back",
  "PulseSequenceDetails": "%SiemensSeq%_ep2d_bold",
  "ReceiveCoilActiveElements": "HEA;HEP",
  "ReceiveCoilName": "Head_32",
  "ReconMatrixPE": 96,
  "RepetitionTime": 1.25,
  "ScanOptions": "FS",
  "ScanningSequence": "EP",
  "SequenceName": "_epfid2d1_96",
  "SequenceVariant": "SK",
  "SeriesDescription": "func_run-03_task-str1back",
  "SliceTiming": [0.8775, 0, 0.615, 0.0875, 0.7025, 0.175, 0.79, 0.35, 0.965, 0.4375, 1.0525, 0.525, 1.14, 0.2625, 0.8775, 0, 0.615, 0.0875, 0.7025, 0.175, 0.79, 0.35, 0.965, 0.4375, 1.0525, 0.525, 1.14, 0.2625, 0.8775, 0, 0.615, 0.0875, 0.7025, 0.175, 0.79, 0.35, 0.965, 0.4375, 1.0525, 0.525, 1.14, 0.2625, 0.8775, 0, 0.615, 0.0875, 0.7025, 0.175, 0.79, 0.35, 0.965, 0.4375, 1.0525, 0.525, 1.14, 0.2625],
  "SoftwareVersions": "syngo_MR_E11",
  "StationName": "AWP66112",
  "TaskName": "str1back",
  "TotalReadoutTime": 0.0522511,
  "dcmmeta_affine": [
    [-2.4995944499969482, -0.04275773838162422, -0.014108624309301376, 124.7601318359375],
    [-0.0443987213075161, 2.470911741256714, 0.3776552081108093, -94.64942932128906],
    [-0.007485393900424242, -0.37784454226493835, 2.4712703227996826, -55.4096565246582],
    [0.0, 0.0, 0.0, 1.0]
],
  "dcmmeta_reorient_transform": [
    [0.0, -1.0, 0.0, 95.0],
    [1.0, 0.0, 0.0, 0.0],
    [0.0, 0.0, 1.0, 0.0],
    [0.0, 0.0, 0.0, 1.0]
],
  "dcmmeta_shape": [96, 96, 56, 280],
  "dcmmeta_slice_dim": 2,
  "dcmmeta_version": 0.6,
  "global": {
    "const": {
      "AccessionNumber": "A000295",
      "AcquisitionMatrix": [96, 0, 0, 96],
      "AngioFlag": "N",
      "BitsAllocated": 16,
      "BitsStored": 12,
      "BodyPartExamined": "BRAIN",
      "Columns": 768,
      "EchoNumbers": 1,
      "EchoTime": 33.0,
      "EchoTrainLength": 96,
      "FlipAngle": 64.0,
      "HighBit": 11,
      "ImageOrientationPatient": [0.99983780463524, 0.01775948880109, -0.002994157597, -0.0171030960153, 0.98836473294099, 0.15113781388247],
      "ImagePositionPatient": [-946.19530356674, -985.23154016488, -215.74555895985],
      "ImageType": [
        "ORIGINAL",
        "PRIMARY",
        "FMRI",
        "NONE",
        "ND",
        "NORM",
        "MOSAIC"
],
      "ImagedNucleus": "1H",
      "ImagingFrequency": 123.252367,
      "InPlanePhaseEncodingDirection": "COL",
      "MRAcquisitionType": "2D",
      "MagneticFieldStrength": 3.0,
      "Manufacturer": "SIEMENS",
      "ManufacturerModelName": "Prisma",
      "Modality": "MR",
      "NumberOfAverages": 1.0,
      "NumberOfPhaseEncodingSteps": 96,
      "PercentPhaseFieldOfView": 100.0,
      "PercentSampling": 100.0,
      "PerformedProcedureStepStartTime": "165333.439000",
      "PhotometricInterpretation": "MONOCHROME2",
      "PixelBandwidth": 2265.0,
      "PixelRepresentation": 0,
      "PixelSpacing": [2.5, 2.5],
      "PositionReferenceIndicator": "",
      "ProtocolName": "func_run-03_task-str1back",
      "RepetitionTime": 1250.0,
      "Rows": 768,
      "SAR": 0.05259224264587,
      "SamplesPerPixel": 1,
      "ScanOptions": "FS",
      "ScanningSequence": "EP",
      "SequenceName": "*epfid2d1_96",
      "SequenceVariant": "SK",
      "SeriesDescription": "func_run-03_task-str1back",
      "SeriesNumber": 22,
      "SeriesTime": "172751.288000",
      "SliceLocation": -69.774916748694,
      "SliceThickness": 2.5,
      "SmallestImagePixelValue": 0,
      "SoftwareVersions": "syngo MR E11",
      "SpacingBetweenSlices": 2.4999999103724,
      "SpecificCharacterSet": "ISO_IR 100",
      "StudyID": "4",
      "StudyTime": "165333.388000",
      "TransmitCoilName": "Body",
      "VariableFlipAngleFlag": "N",
      "WindowCenterWidthExplanation": "Algo1",
      "dBdt": 0.0},
    "slices": {}
  },
  "time": {
    "samples": {
      "AcquisitionNumber": [1, 2, 3, 4, 5, 6, 7, 8, 9, 10, 11, 12, 13, 14, 15, 16, 17, 18, 19, 20, 21, 22, 23, 24, 25, 26, 27, 28, 29, 30, 31, 32, 33, 34, 35, 36, 37, 38, 39, 40, 41, 42, 43, 44, 45, 46, 47, 48, 49, 50, 51, 52, 53, 54, 55, 56, 57, 58, 59, 60, 61, 62, 63, 64, 65, 66, 67, 68, 69, 70, 71, 72, 73, 74, 75, 76, 77, 78, 79, 80, 81, 82, 83, 84, 85, 86, 87, 88, 89, 90, 91, 92, 93, 94, 95, 96, 97, 98, 99, 100, 101, 102, 103, 104, 105, 106, 107, 108, 109, 110, 111, 112, 113, 114, 115, 116, 117, 118, 119, 120, 121, 122, 123, 124, 125, 126, 127, 128, 129, 130, 131, 132, 133, 134, 135, 136, 137, 138, 139, 140, 141, 142, 143, 144, 145, 146, 147, 148, 149, 150, 151, 152, 153, 154, 155, 156, 157, 158, 159, 160, 161, 162, 163, 164, 165, 166, 167, 168, 169, 170, 171, 172, 173, 174, 175, 176, 177, 178, 179, 180, 181, 182, 183, 184, 185, 186, 187, 188, 189, 190, 191, 192, 193, 194, 195, 196, 197, 198, 199, 200, 201, 202, 203, 204, 205, 206, 207, 208, 209, 210, 211, 212, 213, 214, 215, 216, 217, 218, 219, 220, 221, 222, 223, 224, 225, 226, 227, 228, 229, 230, 231, 232, 233, 234, 235, 236, 237, 238, 239, 240, 241, 242, 243, 244, 245, 246, 247, 248, 249, 250, 251, 252, 253, 254, 255, 256, 257, 258, 259, 260, 261, 262, 263, 264, 265, 266, 267, 268, 269, 270, 271, 272, 273, 274, 275, 276, 277, 278, 279, 280],
      "AcquisitionTime": ["172749.365000", "172750.615000", "172751.865000", "172753.115000", "172754.365000", "172755.615000", "172756.865000", "172758.115000", "172759.365000", "172800.615000", "172801.865000", "172803.115000", "172804.365000", "172805.615000", "172806.865000", "172808.115000", "172809.365000", "172810.615000", "172811.865000", "172813.115000", "172814.365000", "172815.615000", "172816.865000", "172818.115000", "172819.365000", "172820.615000", "172821.865000", "172823.115000", "172824.365000", "172825.615000", "172826.865000", "172828.115000", "172829.365000", "172830.615000", "172831.865000", "172833.115000", "172834.365000", "172835.615000", "172836.865000", "172838.115000", "172839.365000", "172840.615000", "172841.865000", "172843.115000", "172844.365000", "172845.615000", "172846.865000", "172848.115000", "172849.365000", "172850.615000", "172851.865000", "172853.115000", "172854.365000", "172855.615000", "172856.865000", "172858.115000", "172859.365000", "172900.615000", "172901.865000", "172903.115000", "172904.365000", "172905.615000", "172906.865000", "172908.115000", "172909.365000", "172910.615000", "172911.865000", "172913.115000", "172914.365000", "172915.615000", "172916.865000", "172918.115000", "172919.365000", "172920.615000", "172921.865000", "172923.115000", "172924.365000", "172925.615000", "172926.865000", "172928.115000", "172929.365000", "172930.615000", "172931.865000", "172933.115000", "172934.365000", "172935.615000", "172936.865000", "172938.115000", "172939.365000", "172940.615000", "172941.865000", "172943.115000", "172944.365000", "172945.615000", "172946.865000", "172948.115000", "172949.365000", "172950.615000", "172951.865000", "172953.115000", "172954.365000", "172955.615000", "172956.865000", "172958.115000", "172959.365000", "173000.615000", "173001.865000", "173003.115000", "173004.365000", "173005.615000", "173006.865000", "173008.115000", "173009.365000", "173010.615000", "173011.865000", "173013.115000", "173014.365000", "173015.615000", "173016.865000", "173018.115000", "173019.365000", "173020.615000", "173021.865000", "173023.115000", "173024.365000", "173025.615000", "173026.865000", "173028.115000", "173029.365000", "173030.615000", "173031.865000", "173033.115000", "173034.365000", "173035.615000", "173036.865000", "173038.115000", "173039.365000", "173040.615000", "173041.865000", "173043.115000", "173044.365000", "173045.615000", "173046.865000", "173048.115000", "173049.365000", "173050.615000", "173051.865000", "173053.115000", "173054.365000", "173055.615000", "173056.865000", "173058.115000", "173059.365000", "173100.615000", "173101.865000", "173103.115000", "173104.365000", "173105.615000", "173106.865000", "173108.115000", "173109.365000", "173110.615000", "173111.865000", "173113.115000", "173114.365000", "173115.615000", "173116.865000", "173118.115000", "173119.365000", "173120.615000", "173121.865000", "173123.115000", "173124.365000", "173125.615000", "173126.865000", "173128.115000", "173129.365000", "173130.615000", "173131.865000", "173133.115000", "173134.365000", "173135.615000", "173136.865000", "173138.115000", "173139.365000", "173140.615000", "173141.865000", "173143.115000", "173144.365000", "173145.615000", "173146.865000", "173148.115000", "173149.365000", "173150.615000", "173151.865000", "173153.115000", "173154.365000", "173155.615000", "173156.865000", "173158.115000", "173159.365000", "173200.615000", "173201.865000", "173203.115000", "173204.365000", "173205.615000", "173206.865000", "173208.115000", "173209.365000", "173210.615000", "173211.865000", "173213.115000", "173214.365000", "173215.615000", "173216.865000", "173218.115000", "173219.365000", "173220.615000", "173221.865000", "173223.115000", "173224.365000", "173225.615000", "173226.865000", "173228.115000", "173229.365000", "173230.615000", "173231.865000", "173233.115000", "173234.365000", "173235.615000", "173236.865000", "173238.115000", "173239.365000", "173240.615000", "173241.865000", "173243.115000", "173244.365000", "173245.615000", "173246.865000", "173248.115000", "173249.365000", "173250.615000", "173251.865000", "173253.115000", "173254.365000", "173255.615000", "173256.865000", "173258.115000", "173259.365000", "173300.615000", "173301.865000", "173303.115000", "173304.365000", "173305.615000", "173306.865000", "173308.115000", "173309.365000", "173310.615000", "173311.865000", "173313.115000", "173314.365000", "173315.615000", "173316.865000", "173318.115000", "173319.365000", "173320.615000", "173321.865000", "173323.115000", "173324.365000", "173325.615000", "173326.865000", "173328.115000", "173329.365000", "173330.615000", "173331.865000", "173333.115000", "173334.365000", "173335.615000", "173336.865000", "173338.115000"],
      "ContentTime": ["172751.292000", "172752.376000", "172753.610000", "172754.902000", "172756.139000", "172757.396000", "172758.603000", "172759.852000", "172801.123000", "172802.349000", "172803.593000", "172804.839000", "172806.105000", "172807.374000", "172808.606000", "172809.874000", "172811.120000", "172812.377000", "172813.616000", "172814.920000", "172816.109000", "172817.363000", "172818.649000", "172819.887000", "172821.107000", "172822.354000", "172823.631000", "172824.933000", "172826.144000", "172827.377000", "172828.638000", "172829.896000", "172831.143000", "172832.338000", "172833.606000", "172834.851000", "172836.113000", "172837.369000", "172838.625000", "172839.876000", "172841.128000", "172842.362000", "172843.625000", "172844.890000", "172846.189000", "172847.339000", "172848.598000", "172849.899000", "172851.128000", "172852.348000", "172853.607000", "172854.818000", "172856.154000", "172857.403000", "172858.717000", "172859.873000", "172901.098000", "172902.357000", "172903.590000", "172904.879000", "172906.136000", "172907.342000", "172908.611000", "172909.874000", "172911.116000", "172912.344000", "172913.612000", "172914.843000", "172916.088000", "172917.359000", "172918.604000", "172919.894000", "172921.124000", "172922.372000", "172923.604000", "172924.853000", "172926.126000", "172927.366000", "172928.627000", "172929.874000", "172931.075000", "172932.366000", "172933.618000", "172934.847000", "172936.118000", "172937.399000", "172938.607000", "172939.836000", "172941.116000", "172942.355000", "172943.623000", "172944.857000", "172946.124000", "172947.382000", "172948.639000", "172949.909000", "172951.099000", "172952.354000", "172953.615000", "172954.856000", "172956.141000", "172957.375000", "172958.665000", "172959.890000", "173001.120000", "173002.362000", "173003.652000", "173004.877000", "173006.139000", "173007.364000", "173008.615000", "173009.869000", "173011.117000", "173012.361000", "173013.592000", "173014.847000", "173016.118000", "173017.427000", "173018.630000", "173019.889000", "173021.144000", "173022.378000", "173023.617000", "173024.887000", "173026.126000", "173027.370000", "173028.621000", "173029.882000", "173031.094000", "173032.365000", "173033.619000", "173034.866000", "173036.099000", "173037.379000", "173038.621000", "173039.856000", "173041.176000", "173042.362000", "173043.626000", "173044.871000", "173046.103000", "173047.364000", "173048.592000", "173049.854000", "173051.128000", "173052.328000", "173053.616000", "173054.877000", "173056.106000", "173057.374000", "173058.625000", "173059.861000", "173101.159000", "173102.342000", "173103.584000", "173104.881000", "173106.121000", "173107.370000", "173108.574000", "173109.898000", "173111.127000", "173112.383000", "173113.613000", "173114.855000", "173116.109000", "173117.336000", "173118.603000", "173119.855000", "173121.124000", "173122.362000", "173123.617000", "173124.869000", "173126.126000", "173127.388000", "173128.596000", "173129.861000", "173131.147000", "173132.343000", "173133.611000", "173134.885000", "173136.133000", "173137.310000", "173138.587000", "173139.871000", "173141.106000", "173142.344000", "173143.620000", "173144.891000", "173146.091000", "173147.393000", "173148.617000", "173149.890000", "173151.116000", "173152.389000", "173153.664000", "173154.885000", "173156.126000", "173157.373000", "173158.648000", "173159.885000", "173201.100000", "173202.335000", "173203.621000", "173204.843000", "173206.126000", "173207.385000", "173208.594000", "173209.882000", "173211.122000", "173212.356000", "173213.629000", "173214.853000", "173216.090000", "173217.391000", "173218.650000", "173219.830000", "173221.096000", "173222.379000", "173223.644000", "173224.852000", "173226.124000", "173227.328000", "173228.624000", "173229.863000", "173231.159000", "173232.356000", "173233.625000", "173234.858000", "173236.108000", "173237.376000", "173238.611000", "173239.846000", "173241.167000", "173242.381000", "173243.604000", "173244.893000", "173246.128000", "173247.373000", "173248.606000", "173249.874000", "173251.123000", "173252.328000", "173253.679000", "173254.880000", "173256.077000", "173257.392000", "173258.631000", "173259.873000", "173301.119000", "173302.383000", "173303.621000", "173304.884000", "173306.120000", "173307.360000", "173308.593000", "173309.881000", "173311.148000", "173312.366000", "173313.608000", "173314.887000", "173316.111000", "173317.394000", "173318.621000", "173319.910000", "173321.150000", "173322.384000", "173323.630000", "173324.871000", "173326.125000", "173327.388000", "173328.615000", "173329.892000", "173331.116000", "173332.390000", "173333.623000", "173334.889000", "173336.106000", "173337.367000", "173338.651000", "173339.899000"],
      "InstanceCreationTime": ["172751.292000", "172752.376000", "172753.610000", "172754.902000", "172756.139000", "172757.396000", "172758.603000", "172759.852000", "172801.123000", "172802.349000", "172803.593000", "172804.839000", "172806.105000", "172807.374000", "172808.606000", "172809.874000", "172811.120000", "172812.377000", "172813.616000", "172814.920000", "172816.109000", "172817.363000", "172818.649000", "172819.887000", "172821.107000", "172822.354000", "172823.631000", "172824.933000", "172826.144000", "172827.377000", "172828.638000", "172829.896000", "172831.143000", "172832.338000", "172833.606000", "172834.851000", "172836.113000", "172837.369000", "172838.625000", "172839.876000", "172841.128000", "172842.362000", "172843.625000", "172844.890000", "172846.189000", "172847.339000", "172848.598000", "172849.899000", "172851.128000", "172852.348000", "172853.607000", "172854.818000", "172856.154000", "172857.403000", "172858.717000", "172859.873000", "172901.098000", "172902.357000", "172903.590000", "172904.879000", "172906.136000", "172907.342000", "172908.611000", "172909.874000", "172911.116000", "172912.344000", "172913.612000", "172914.843000", "172916.088000", "172917.359000", "172918.604000", "172919.894000", "172921.124000", "172922.372000", "172923.604000", "172924.853000", "172926.126000", "172927.366000", "172928.627000", "172929.874000", "172931.075000", "172932.366000", "172933.618000", "172934.847000", "172936.118000", "172937.399000", "172938.607000", "172939.836000", "172941.116000", "172942.355000", "172943.623000", "172944.857000", "172946.124000", "172947.382000", "172948.639000", "172949.909000", "172951.099000", "172952.354000", "172953.615000", "172954.856000", "172956.141000", "172957.375000", "172958.665000", "172959.890000", "173001.120000", "173002.362000", "173003.652000", "173004.877000", "173006.139000", "173007.364000", "173008.615000", "173009.869000", "173011.117000", "173012.361000", "173013.592000", "173014.847000", "173016.118000", "173017.427000", "173018.630000", "173019.889000", "173021.144000", "173022.378000", "173023.617000", "173024.887000", "173026.126000", "173027.370000", "173028.621000", "173029.882000", "173031.094000", "173032.365000", "173033.619000", "173034.866000", "173036.099000", "173037.379000", "173038.621000", "173039.856000", "173041.176000", "173042.362000", "173043.626000", "173044.871000", "173046.103000", "173047.364000", "173048.592000", "173049.854000", "173051.128000", "173052.328000", "173053.616000", "173054.877000", "173056.106000", "173057.374000", "173058.625000", "173059.861000", "173101.159000", "173102.342000", "173103.584000", "173104.881000", "173106.121000", "173107.370000", "173108.574000", "173109.898000", "173111.127000", "173112.383000", "173113.613000", "173114.855000", "173116.109000", "173117.336000", "173118.603000", "173119.855000", "173121.124000", "173122.362000", "173123.617000", "173124.869000", "173126.126000", "173127.388000", "173128.596000", "173129.861000", "173131.147000", "173132.343000", "173133.611000", "173134.885000", "173136.133000", "173137.310000", "173138.587000", "173139.871000", "173141.106000", "173142.344000", "173143.620000", "173144.891000", "173146.091000", "173147.393000", "173148.617000", "173149.890000", "173151.116000", "173152.389000", "173153.664000", "173154.885000", "173156.126000", "173157.373000", "173158.648000", "173159.885000", "173201.100000", "173202.335000", "173203.621000", "173204.843000", "173206.126000", "173207.385000", "173208.594000", "173209.882000", "173211.122000", "173212.356000", "173213.629000", "173214.853000", "173216.090000", "173217.391000", "173218.650000", "173219.830000", "173221.096000", "173222.379000", "173223.644000", "173224.852000", "173226.124000", "173227.328000", "173228.624000", "173229.863000", "173231.159000", "173232.356000", "173233.625000", "173234.858000", "173236.108000", "173237.376000", "173238.611000", "173239.846000", "173241.167000", "173242.381000", "173243.604000", "173244.893000", "173246.128000", "173247.373000", "173248.606000", "173249.874000", "173251.123000", "173252.328000", "173253.679000", "173254.880000", "173256.077000", "173257.392000", "173258.631000", "173259.873000", "173301.119000", "173302.383000", "173303.621000", "173304.884000", "173306.120000", "173307.360000", "173308.593000", "173309.881000", "173311.148000", "173312.366000", "173313.608000", "173314.887000", "173316.111000", "173317.394000", "173318.621000", "173319.910000", "173321.150000", "173322.384000", "173323.630000", "173324.871000", "173326.125000", "173327.388000", "173328.615000", "173329.892000", "173331.116000", "173332.390000", "173333.623000", "173334.889000", "173336.106000", "173337.367000", "173338.651000", "173339.899000"],
      "InstanceNumber": [1, 2, 3, 4, 5, 6, 7, 8, 9, 10, 11, 12, 13, 14, 15, 16, 17, 18, 19, 20, 21, 22, 23, 24, 25, 26, 27, 28, 29, 30, 31, 32, 33, 34, 35, 36, 37, 38, 39, 40, 41, 42, 43, 44, 45, 46, 47, 48, 49, 50, 51, 52, 53, 54, 55, 56, 57, 58, 59, 60, 61, 62, 63, 64, 65, 66, 67, 68, 69, 70, 71, 72, 73, 74, 75, 76, 77, 78, 79, 80, 81, 82, 83, 84, 85, 86, 87, 88, 89, 90, 91, 92, 93, 94, 95, 96, 97, 98, 99, 100, 101, 102, 103, 104, 105, 106, 107, 108, 109, 110, 111, 112, 113, 114, 115, 116, 117, 118, 119, 120, 121, 122, 123, 124, 125, 126, 127, 128, 129, 130, 131, 132, 133, 134, 135, 136, 137, 138, 139, 140, 141, 142, 143, 144, 145, 146, 147, 148, 149, 150, 151, 152, 153, 154, 155, 156, 157, 158, 159, 160, 161, 162, 163, 164, 165, 166, 167, 168, 169, 170, 171, 172, 173, 174, 175, 176, 177, 178, 179, 180, 181, 182, 183, 184, 185, 186, 187, 188, 189, 190, 191, 192, 193, 194, 195, 196, 197, 198, 199, 200, 201, 202, 203, 204, 205, 206, 207, 208, 209, 210, 211, 212, 213, 214, 215, 216, 217, 218, 219, 220, 221, 222, 223, 224, 225, 226, 227, 228, 229, 230, 231, 232, 233, 234, 235, 236, 237, 238, 239, 240, 241, 242, 243, 244, 245, 246, 247, 248, 249, 250, 251, 252, 253, 254, 255, 256, 257, 258, 259, 260, 261, 262, 263, 264, 265, 266, 267, 268, 269, 270, 271, 272, 273, 274, 275, 276, 277, 278, 279, 280],
      "LargestImagePixelValue": [1287, 1704, 1071, 1132, 1360, 949, 1081, 1236, 980, 1297, 923, 858, 1363, 1313, 1500, 966, 937, 1035, 915, 978, 1113, 1041, 981, 1458, 1408, 957, 991, 1237, 905, 876, 1592, 960, 901, 1221, 1030, 971, 962, 1383, 908, 869, 1205, 1038, 1406, 1043, 995, 937, 962, 1173, 921, 941, 1080, 1116, 878, 971, 924, 1202, 1204, 1123, 1483, 1252, 926, 940, 844, 1149, 972, 1165, 1147, 1004, 1159, 1639, 991, 1024, 1658, 1160, 972, 1101, 972, 972, 972, 953, 843, 870, 811, 1363, 1702, 1098, 1038, 935, 1046, 1113, 1148, 956, 888, 1046, 1202, 954, 920, 1281, 1189, 985, 982, 980, 1184, 962, 1044, 869, 984, 1552, 1258, 1003, 1288, 1127, 1569, 1065, 947, 1085, 971, 1271, 1478, 930, 1040, 943, 1229, 888, 764, 812, 1190, 989, 1563, 1835, 1183, 930, 829, 857, 990, 1200, 1324, 954, 921, 1055, 1044, 896, 893, 1082, 903, 960, 1255, 918, 920, 889, 1129, 1674, 1117, 1116, 1436, 981, 1345, 1244, 944, 1116, 1427, 1244, 952, 1091, 1237, 909, 914, 910, 890, 844, 1066, 897, 986, 1305, 943, 997, 1141, 1316, 934, 1120, 957, 1017, 1113, 1039, 1012, 980, 956, 1319, 1093, 1539, 1056, 959, 875, 899, 897, 932, 898, 1120, 1567, 1239, 962, 1290, 983, 1175, 1025, 963, 948, 1136, 966, 945, 891, 1626, 1237, 946, 1040, 1009, 1492, 986, 983, 924, 944, 898, 889, 1132, 1028, 1081, 1297, 1040, 1234, 955, 833, 984, 1014, 1411, 1226, 1061, 1029, 1197, 1316, 1030, 976, 996, 934, 899, 981, 840, 1146, 925, 935, 1005, 1001, 947, 1315, 1633, 1009, 938, 1351, 932, 858, 1126, 1223, 1368, 1048, 973, 1182, 1514, 1091, 1091, 892, 1023, 909, 863, 915, 1020, 987, 963, 873, 999, 1104, 975],
      "WindowCenter": [384.0, 385.0, 380.0, 381.0, 382.0, 378.0, 380.0, 381.0, 380.0, 384.0, 382.0, 381.0, 384.0, 382.0, 383.0, 379.0, 379.0, 380.0, 379.0, 380.0, 382.0, 381.0, 380.0, 383.0, 383.0, 379.0, 379.0, 381.0, 378.0, 379.0, 384.0, 380.0, 381.0, 383.0, 380.0, 380.0, 379.0, 382.0, 379.0, 380.0, 382.0, 380.0, 382.0, 380.0, 379.0, 378.0, 378.0, 380.0, 379.0, 379.0, 379.0, 380.0, 379.0, 381.0, 381.0, 382.0, 381.0, 380.0, 382.0, 381.0, 378.0, 378.0, 378.0, 381.0, 380.0, 382.0, 382.0, 380.0, 380.0, 383.0, 380.0, 380.0, 383.0, 380.0, 378.0, 379.0, 378.0, 380.0, 379.0, 379.0, 379.0, 379.0, 380.0, 385.0, 386.0, 381.0, 380.0, 379.0, 379.0, 380.0, 380.0, 379.0, 378.0, 380.0, 381.0, 380.0, 379.0, 382.0, 381.0, 379.0, 379.0, 380.0, 381.0, 381.0, 382.0, 381.0, 383.0, 385.0, 383.0, 380.0, 381.0, 380.0, 381.0, 378.0, 378.0, 380.0, 380.0, 382.0, 382.0, 378.0, 379.0, 377.0, 380.0, 379.0, 379.0, 382.0, 385.0, 381.0, 384.0, 385.0, 382.0, 380.0, 378.0, 378.0, 379.0, 380.0, 380.0, 376.0, 377.0, 378.0, 378.0, 377.0, 378.0, 380.0, 379.0, 380.0, 383.0, 380.0, 381.0, 381.0, 384.0, 386.0, 383.0, 383.0, 384.0, 381.0, 383.0, 381.0, 379.0, 380.0, 381.0, 380.0, 378.0, 379.0, 380.0, 378.0, 378.0, 379.0, 379.0, 379.0, 382.0, 381.0, 382.0, 383.0, 380.0, 381.0, 381.0, 383.0, 381.0, 382.0, 381.0, 381.0, 382.0, 381.0, 381.0, 382.0, 380.0, 383.0, 380.0, 382.0, 379.0, 378.0, 378.0, 378.0, 379.0, 381.0, 382.0, 384.0, 385.0, 382.0, 379.0, 381.0, 378.0, 380.0, 379.0, 378.0, 379.0, 382.0, 381.0, 380.0, 381.0, 385.0, 382.0, 378.0, 380.0, 379.0, 382.0, 378.0, 378.0, 378.0, 379.0, 380.0, 381.0, 382.0, 381.0, 381.0, 382.0, 379.0, 381.0, 380.0, 379.0, 381.0, 382.0, 384.0, 382.0, 380.0, 379.0, 381.0, 381.0, 379.0, 378.0, 379.0, 378.0, 378.0, 380.0, 379.0, 382.0, 380.0, 380.0, 381.0, 381.0, 380.0, 383.0, 384.0, 381.0, 380.0, 383.0, 380.0, 379.0, 383.0, 384.0, 385.0, 381.0, 380.0, 381.0, 382.0, 379.0, 379.0, 376.0, 377.0, 377.0, 378.0, 379.0, 380.0, 378.0, 378.0, 379.0, 379.0, 380.0, 380.0],
      "WindowWidth": [816.0, 817.0, 809.0, 809.0, 811.0, 806.0, 808.0, 810.0, 808.0, 816.0, 814.0, 812.0, 815.0, 813.0, 813.0, 807.0, 807.0, 808.0, 808.0, 810.0, 812.0, 811.0, 810.0, 813.0, 812.0, 807.0, 807.0, 810.0, 806.0, 807.0, 814.0, 810.0, 811.0, 813.0, 809.0, 808.0, 807.0, 812.0, 808.0, 810.0, 813.0, 809.0, 811.0, 808.0, 807.0, 804.0, 806.0, 809.0, 807.0, 807.0, 806.0, 808.0, 807.0, 810.0, 811.0, 813.0, 810.0, 808.0, 811.0, 809.0, 805.0, 806.0, 806.0, 811.0, 810.0, 813.0, 812.0, 809.0, 809.0, 813.0, 809.0, 808.0, 813.0, 808.0, 806.0, 806.0, 806.0, 808.0, 807.0, 807.0, 807.0, 808.0, 810.0, 818.0, 819.0, 811.0, 808.0, 807.0, 807.0, 808.0, 808.0, 807.0, 805.0, 809.0, 811.0, 809.0, 808.0, 811.0, 811.0, 807.0, 807.0, 809.0, 811.0, 810.0, 813.0, 812.0, 815.0, 817.0, 813.0, 808.0, 810.0, 809.0, 810.0, 805.0, 806.0, 808.0, 810.0, 811.0, 812.0, 806.0, 807.0, 804.0, 808.0, 807.0, 808.0, 813.0, 818.0, 812.0, 814.0, 816.0, 812.0, 809.0, 806.0, 805.0, 806.0, 807.0, 808.0, 802.0, 803.0, 805.0, 805.0, 804.0, 806.0, 808.0, 808.0, 808.0, 813.0, 810.0, 811.0, 812.0, 816.0, 819.0, 814.0, 813.0, 815.0, 811.0, 814.0, 811.0, 807.0, 808.0, 810.0, 808.0, 805.0, 807.0, 808.0, 805.0, 805.0, 806.0, 808.0, 808.0, 813.0, 812.0, 813.0, 814.0, 810.0, 810.0, 811.0, 813.0, 810.0, 813.0, 811.0, 811.0, 811.0, 810.0, 811.0, 812.0, 810.0, 813.0, 809.0, 812.0, 807.0, 806.0, 805.0, 806.0, 807.0, 812.0, 813.0, 815.0, 816.0, 812.0, 807.0, 810.0, 805.0, 808.0, 806.0, 806.0, 807.0, 812.0, 810.0, 810.0, 811.0, 816.0, 812.0, 806.0, 808.0, 807.0, 811.0, 805.0, 806.0, 806.0, 807.0, 809.0, 811.0, 813.0, 810.0, 810.0, 811.0, 808.0, 810.0, 809.0, 808.0, 811.0, 812.0, 815.0, 812.0, 809.0, 808.0, 809.0, 810.0, 808.0, 806.0, 806.0, 805.0, 806.0, 808.0, 807.0, 813.0, 810.0, 809.0, 811.0, 811.0, 810.0, 814.0, 815.0, 810.0, 809.0, 813.0, 810.0, 809.0, 814.0, 816.0, 817.0, 811.0, 810.0, 811.0, 812.0, 807.0, 806.0, 802.0, 804.0, 804.0, 806.0, 808.0, 808.0, 806.0, 806.0, 807.0, 807.0, 809.0, 808.0]
    },
    "slices": {}
  }
}