{
  "AcquisitionMatrixPE": 96,
  "AcquisitionNumber": 1,
  "AcquisitionTime": "17:40:42.540000",
  "BandwidthPerPixelPhaseEncode": 18.939,
  "BaseResolution": 96,
  "BodyPartExamined": "BRAIN",
  "ConsistencyInfo": "N4_VE11C_LATEST_20160120",
  "ConversionSoftware": "dcm2niix",
  "ConversionSoftwareVersion": "v1.0.20170923 (OpenJPEG build) GCC6.3.0",
  "DerivedVendorReportedEchoSpacing": 0.000550011,
  "DeviceSerialNumber": "66112",
  "DwellTime": 2.3e-06,
  "EchoTime": 0.033,
  "EchoTrainLength": 96,
  "EffectiveEchoSpacing": 0.000550011,
  "FlipAngle": 64,
  "ImageType": [
    "ORIGINAL",
    "PRIMARY",
    "FMRI",
    "NONE",
    "ND",
    "NORM",
    "MOSAIC"
],
  "InstitutionAddress": "Maynard_3_Hanover_NH_US_03755",
  "InstitutionName": "Dartmouth_College_-_PBS",
  "MagneticFieldStrength": 3,
  "Manufacturer": "Siemens",
  "ManufacturersModelName": "Prisma",
  "Modality": "MR",
  "MultibandAccelerationFactor": 4,
  "PartialFourier": 1,
  "PercentPhaseFOV": 100,
  "PhaseEncodingDirection": "j-",
  "PhaseEncodingSteps": 96,
  "PhaseResolution": 1,
  "ProcedureStepDescription": "Gobbini_Matteo_1017_famface-angles",
  "ProtocolName": "func_run-05_task-str1back",
  "PulseSequenceDetails": "%SiemensSeq%_ep2d_bold",
  "ReceiveCoilActiveElements": "HEA;HEP",
  "ReceiveCoilName": "Head_32",
  "ReconMatrixPE": 96,
  "RepetitionTime": 1.25,
  "ScanOptions": "FS",
  "ScanningSequence": "EP",
  "SequenceName": "_epfid2d1_96",
  "SequenceVariant": "SK",
  "SeriesDescription": "func_run-05_task-str1back",
  "SliceTiming": [0.8775, 0, 0.615, 0.0875, 0.7025, 0.175, 0.79, 0.35, 0.965, 0.44, 1.0525, 0.5275, 1.1425, 0.2625, 0.8775, 0, 0.615, 0.0875, 0.7025, 0.175, 0.79, 0.35, 0.965, 0.44, 1.0525, 0.5275, 1.1425, 0.2625, 0.8775, 0, 0.615, 0.0875, 0.7025, 0.175, 0.79, 0.35, 0.965, 0.44, 1.0525, 0.5275, 1.1425, 0.2625, 0.8775, 0, 0.615, 0.0875, 0.7025, 0.175, 0.79, 0.35, 0.965, 0.44, 1.0525, 0.5275, 1.1425, 0.2625],
  "SoftwareVersions": "syngo_MR_E11",
  "StationName": "AWP66112",
  "TaskName": "str1back",
  "TotalReadoutTime": 0.0522511,
  "dcmmeta_affine": [
    [-2.4995944499969482, -0.04275773838162422, -0.014108624309301376, 124.7601318359375],
    [-0.0443987213075161, 2.470911741256714, 0.3776552081108093, -94.64942932128906],
    [-0.007485393900424242, -0.37784454226493835, 2.4712703227996826, -55.4096565246582],
    [0.0, 0.0, 0.0, 1.0]
],
  "dcmmeta_reorient_transform": [
    [0.0, -1.0, 0.0, 95.0],
    [1.0, 0.0, 0.0, 0.0],
    [0.0, 0.0, 1.0, 0.0],
    [0.0, 0.0, 0.0, 1.0]
],
  "dcmmeta_shape": [96, 96, 56, 280],
  "dcmmeta_slice_dim": 2,
  "dcmmeta_version": 0.6,
  "global": {
    "const": {
      "AccessionNumber": "A000295",
      "AcquisitionMatrix": [96, 0, 0, 96],
      "AngioFlag": "N",
      "BitsAllocated": 16,
      "BitsStored": 12,
      "BodyPartExamined": "BRAIN",
      "Columns": 768,
      "EchoNumbers": 1,
      "EchoTime": 33.0,
      "EchoTrainLength": 96,
      "FlipAngle": 64.0,
      "HighBit": 11,
      "ImageOrientationPatient": [0.99983780463524, 0.01775948880109, -0.002994157597, -0.0171030960153, 0.98836473294099, 0.15113781388247],
      "ImagePositionPatient": [-946.19530356674, -985.23154016488, -215.74555895985],
      "ImageType": [
        "ORIGINAL",
        "PRIMARY",
        "FMRI",
        "NONE",
        "ND",
        "NORM",
        "MOSAIC"
],
      "ImagedNucleus": "1H",
      "ImagingFrequency": 123.25237,
      "InPlanePhaseEncodingDirection": "COL",
      "MRAcquisitionType": "2D",
      "MagneticFieldStrength": 3.0,
      "Manufacturer": "SIEMENS",
      "ManufacturerModelName": "Prisma",
      "Modality": "MR",
      "NumberOfAverages": 1.0,
      "NumberOfPhaseEncodingSteps": 96,
      "PercentPhaseFieldOfView": 100.0,
      "PercentSampling": 100.0,
      "PerformedProcedureStepStartTime": "165333.439000",
      "PhotometricInterpretation": "MONOCHROME2",
      "PixelBandwidth": 2265.0,
      "PixelRepresentation": 0,
      "PixelSpacing": [2.5, 2.5],
      "PositionReferenceIndicator": "",
      "ProtocolName": "func_run-05_task-str1back",
      "RepetitionTime": 1250.0,
      "Rows": 768,
      "SAR": 0.05259224264587,
      "SamplesPerPixel": 1,
      "ScanOptions": "FS",
      "ScanningSequence": "EP",
      "SequenceName": "*epfid2d1_96",
      "SequenceVariant": "SK",
      "SeriesDescription": "func_run-05_task-str1back",
      "SeriesNumber": 36,
      "SeriesTime": "174043.875000",
      "SliceLocation": -69.774916748694,
      "SliceThickness": 2.5,
      "SmallestImagePixelValue": 0,
      "SoftwareVersions": "syngo MR E11",
      "SpacingBetweenSlices": 2.4999999103724,
      "SpecificCharacterSet": "ISO_IR 100",
      "StudyID": "4",
      "StudyTime": "165333.388000",
      "TransmitCoilName": "Body",
      "VariableFlipAngleFlag": "N",
      "WindowCenterWidthExplanation": "Algo1",
      "dBdt": 0.0},
    "slices": {}
  },
  "time": {
    "samples": {
      "AcquisitionNumber": [1, 2, 3, 4, 5, 6, 7, 8, 9, 10, 11, 12, 13, 14, 15, 16, 17, 18, 19, 20, 21, 22, 23, 24, 25, 26, 27, 28, 29, 30, 31, 32, 33, 34, 35, 36, 37, 38, 39, 40, 41, 42, 43, 44, 45, 46, 47, 48, 49, 50, 51, 52, 53, 54, 55, 56, 57, 58, 59, 60, 61, 62, 63, 64, 65, 66, 67, 68, 69, 70, 71, 72, 73, 74, 75, 76, 77, 78, 79, 80, 81, 82, 83, 84, 85, 86, 87, 88, 89, 90, 91, 92, 93, 94, 95, 96, 97, 98, 99, 100, 101, 102, 103, 104, 105, 106, 107, 108, 109, 110, 111, 112, 113, 114, 115, 116, 117, 118, 119, 120, 121, 122, 123, 124, 125, 126, 127, 128, 129, 130, 131, 132, 133, 134, 135, 136, 137, 138, 139, 140, 141, 142, 143, 144, 145, 146, 147, 148, 149, 150, 151, 152, 153, 154, 155, 156, 157, 158, 159, 160, 161, 162, 163, 164, 165, 166, 167, 168, 169, 170, 171, 172, 173, 174, 175, 176, 177, 178, 179, 180, 181, 182, 183, 184, 185, 186, 187, 188, 189, 190, 191, 192, 193, 194, 195, 196, 197, 198, 199, 200, 201, 202, 203, 204, 205, 206, 207, 208, 209, 210, 211, 212, 213, 214, 215, 216, 217, 218, 219, 220, 221, 222, 223, 224, 225, 226, 227, 228, 229, 230, 231, 232, 233, 234, 235, 236, 237, 238, 239, 240, 241, 242, 243, 244, 245, 246, 247, 248, 249, 250, 251, 252, 253, 254, 255, 256, 257, 258, 259, 260, 261, 262, 263, 264, 265, 266, 267, 268, 269, 270, 271, 272, 273, 274, 275, 276, 277, 278, 279, 280],
      "AcquisitionTime": ["174042.540000", "174043.790000", "174045.040000", "174046.290000", "174047.540000", "174048.790000", "174050.040000", "174051.290000", "174052.540000", "174053.790000", "174055.040000", "174056.290000", "174057.540000", "174058.790000", "174100.040000", "174101.290000", "174102.540000", "174103.790000", "174105.040000", "174106.290000", "174107.540000", "174108.790000", "174110.040000", "174111.290000", "174112.540000", "174113.790000", "174115.040000", "174116.290000", "174117.540000", "174118.790000", "174120.040000", "174121.290000", "174122.540000", "174123.790000", "174125.040000", "174126.290000", "174127.540000", "174128.790000", "174130.040000", "174131.290000", "174132.540000", "174133.790000", "174135.040000", "174136.290000", "174137.540000", "174138.790000", "174140.040000", "174141.290000", "174142.540000", "174143.790000", "174145.040000", "174146.290000", "174147.540000", "174148.790000", "174150.040000", "174151.290000", "174152.540000", "174153.790000", "174155.040000", "174156.290000", "174157.540000", "174158.790000", "174200.040000", "174201.290000", "174202.540000", "174203.790000", "174205.040000", "174206.290000", "174207.540000", "174208.790000", "174210.040000", "174211.290000", "174212.540000", "174213.790000", "174215.040000", "174216.290000", "174217.540000", "174218.790000", "174220.040000", "174221.290000", "174222.540000", "174223.790000", "174225.040000", "174226.290000", "174227.540000", "174228.790000", "174230.040000", "174231.290000", "174232.540000", "174233.790000", "174235.040000", "174236.290000", "174237.540000", "174238.790000", "174240.040000", "174241.290000", "174242.540000", "174243.790000", "174245.040000", "174246.290000", "174247.540000", "174248.790000", "174250.040000", "174251.290000", "174252.540000", "174253.790000", "174255.040000", "174256.290000", "174257.540000", "174258.790000", "174300.040000", "174301.290000", "174302.540000", "174303.790000", "174305.040000", "174306.290000", "174307.540000", "174308.790000", "174310.040000", "174311.290000", "174312.540000", "174313.790000", "174315.040000", "174316.290000", "174317.540000", "174318.790000", "174320.040000", "174321.290000", "174322.540000", "174323.790000", "174325.040000", "174326.290000", "174327.540000", "174328.790000", "174330.040000", "174331.290000", "174332.540000", "174333.790000", "174335.040000", "174336.290000", "174337.540000", "174338.790000", "174340.040000", "174341.290000", "174342.540000", "174343.790000", "174345.040000", "174346.290000", "174347.540000", "174348.790000", "174350.040000", "174351.290000", "174352.540000", "174353.790000", "174355.040000", "174356.290000", "174357.540000", "174358.790000", "174400.040000", "174401.290000", "174402.540000", "174403.790000", "174405.040000", "174406.290000", "174407.540000", "174408.790000", "174410.040000", "174411.290000", "174412.540000", "174413.790000", "174415.040000", "174416.290000", "174417.540000", "174418.790000", "174420.040000", "174421.290000", "174422.540000", "174423.790000", "174425.040000", "174426.290000", "174427.540000", "174428.790000", "174430.040000", "174431.290000", "174432.540000", "174433.790000", "174435.040000", "174436.290000", "174437.540000", "174438.790000", "174440.040000", "174441.290000", "174442.540000", "174443.790000", "174445.040000", "174446.290000", "174447.540000", "174448.790000", "174450.040000", "174451.290000", "174452.540000", "174453.790000", "174455.040000", "174456.290000", "174457.540000", "174458.790000", "174500.040000", "174501.290000", "174502.540000", "174503.790000", "174505.040000", "174506.290000", "174507.540000", "174508.790000", "174510.040000", "174511.290000", "174512.540000", "174513.790000", "174515.040000", "174516.290000", "174517.540000", "174518.790000", "174520.040000", "174521.290000", "174522.540000", "174523.790000", "174525.040000", "174526.290000", "174527.540000", "174528.790000", "174530.040000", "174531.290000", "174532.540000", "174533.790000", "174535.040000", "174536.290000", "174537.540000", "174538.790000", "174540.040000", "174541.290000", "174542.540000", "174543.790000", "174545.040000", "174546.290000", "174547.540000", "174548.790000", "174550.040000", "174551.290000", "174552.540000", "174553.790000", "174555.040000", "174556.290000", "174557.540000", "174558.790000", "174600.040000", "174601.290000", "174602.540000", "174603.790000", "174605.040000", "174606.290000", "174607.540000", "174608.790000", "174610.040000", "174611.290000", "174612.540000", "174613.790000", "174615.040000", "174616.290000", "174617.540000", "174618.790000", "174620.040000", "174621.290000", "174622.540000", "174623.790000", "174625.040000", "174626.290000", "174627.540000", "174628.790000", "174630.040000", "174631.290000"],
      "ContentTime": ["174043.878000", "174044.935000", "174046.199000", "174047.437000", "174048.688000", "174049.944000", "174051.172000", "174052.463000", "174053.680000", "174054.931000", "174056.202000", "174057.446000", "174058.688000", "174059.929000", "174101.173000", "174102.465000", "174103.690000", "174104.947000", "174106.198000", "174107.457000", "174108.672000", "174109.933000", "174111.214000", "174112.432000", "174113.689000", "174114.889000", "174116.209000", "174117.462000", "174118.686000", "174119.931000", "174121.204000", "174122.476000", "174123.702000", "174124.931000", "174126.189000", "174127.390000", "174128.681000", "174129.993000", "174131.195000", "174132.455000", "174133.685000", "174134.899000", "174136.187000", "174137.482000", "174138.700000", "174139.951000", "174141.165000", "174142.439000", "174143.688000", "174144.907000", "174146.164000", "174147.451000", "174148.678000", "174149.930000", "174151.251000", "174152.508000", "174153.704000", "174154.996000", "174156.180000", "174157.431000", "174158.674000", "174159.981000", "174201.206000", "174202.444000", "174203.677000", "174204.944000", "174206.198000", "174207.444000", "174208.694000", "174210.000000", "174211.217000", "174212.412000", "174213.711000", "174214.948000", "174216.187000", "174217.469000", "174218.705000", "174219.947000", "174221.185000", "174222.444000", "174223.658000", "174224.973000", "174226.182000", "174227.435000", "174228.692000", "174229.937000", "174231.172000", "174232.438000", "174233.701000", "174234.921000", "174236.193000", "174237.438000", "174238.687000", "174239.940000", "174241.224000", "174242.430000", "174243.690000", "174244.972000", "174246.204000", "174247.434000", "174248.782000", "174249.928000", "174251.309000", "174252.442000", "174253.696000", "174254.932000", "174256.233000", "174257.462000", "174258.714000", "174259.949000", "174301.187000", "174302.428000", "174303.710000", "174304.947000", "174306.177000", "174307.441000", "174308.714000", "174309.946000", "174311.203000", "174312.464000", "174313.685000", "174314.920000", "174316.205000", "174317.517000", "174318.668000", "174319.917000", "174321.231000", "174322.452000", "174323.718000", "174324.958000", "174326.167000", "174327.456000", "174328.706000", "174329.946000", "174331.203000", "174332.461000", "174333.686000", "174334.951000", "174336.180000", "174337.449000", "174338.729000", "174339.940000", "174341.262000", "174342.420000", "174343.695000", "174344.942000", "174346.190000", "174347.478000", "174348.706000", "174349.955000", "174351.212000", "174352.465000", "174353.729000", "174355.050000", "174356.265000", "174357.444000", "174358.687000", "174400.022000", "174401.223000", "174402.464000", "174403.705000", "174404.953000", "174406.185000", "174407.451000", "174408.700000", "174409.942000", "174411.214000", "174412.451000", "174413.692000", "174414.930000", "174416.201000", "174417.457000", "174418.721000", "174419.965000", "174421.197000", "174422.451000", "174423.711000", "174424.962000", "174426.222000", "174427.479000", "174428.674000", "174429.952000", "174431.235000", "174432.459000", "174433.729000", "174434.957000", "174436.231000", "174437.444000", "174438.697000", "174439.950000", "174441.209000", "174442.469000", "174443.689000", "174444.959000", "174446.229000", "174447.452000", "174448.689000", "174449.963000", "174451.223000", "174452.434000", "174453.712000", "174454.934000", "174456.195000", "174457.485000", "174458.699000", "174459.967000", "174501.238000", "174502.491000", "174503.675000", "174504.952000", "174506.244000", "174507.451000", "174508.713000", "174509.961000", "174511.234000", "174512.441000", "174513.694000", "174514.938000", "174516.222000", "174517.440000", "174518.711000", "174519.950000", "174521.175000", "174522.413000", "174523.689000", "174524.958000", "174526.193000", "174527.445000", "174528.709000", "174529.974000", "174531.252000", "174532.446000", "174533.699000", "174534.975000", "174536.195000", "174537.445000", "174538.694000", "174539.928000", "174541.175000", "174542.469000", "174543.708000", "174544.947000", "174546.199000", "174547.420000", "174548.695000", "174549.961000", "174551.179000", "174552.418000", "174553.680000", "174554.921000", "174556.203000", "174557.427000", "174558.716000", "174559.915000", "174601.241000", "174602.457000", "174603.705000", "174604.939000", "174606.201000", "174607.436000", "174608.713000", "174609.942000", "174611.191000", "174612.448000", "174613.734000", "174614.973000", "174616.200000", "174617.460000", "174618.705000", "174619.988000", "174621.208000", "174622.497000", "174623.696000", "174624.955000", "174626.212000", "174627.471000", "174628.673000", "174629.955000", "174631.230000", "174632.536000"],
      "InstanceCreationTime": ["174043.878000", "174044.935000", "174046.199000", "174047.437000", "174048.688000", "174049.944000", "174051.172000", "174052.463000", "174053.680000", "174054.931000", "174056.202000", "174057.446000", "174058.688000", "174059.929000", "174101.173000", "174102.465000", "174103.690000", "174104.947000", "174106.198000", "174107.457000", "174108.672000", "174109.933000", "174111.214000", "174112.432000", "174113.689000", "174114.889000", "174116.209000", "174117.462000", "174118.686000", "174119.931000", "174121.204000", "174122.476000", "174123.702000", "174124.931000", "174126.189000", "174127.390000", "174128.681000", "174129.993000", "174131.195000", "174132.455000", "174133.685000", "174134.899000", "174136.187000", "174137.482000", "174138.700000", "174139.951000", "174141.165000", "174142.439000", "174143.688000", "174144.907000", "174146.164000", "174147.451000", "174148.678000", "174149.930000", "174151.251000", "174152.508000", "174153.704000", "174154.996000", "174156.180000", "174157.431000", "174158.674000", "174159.981000", "174201.206000", "174202.444000", "174203.677000", "174204.944000", "174206.198000", "174207.444000", "174208.694000", "174210.000000", "174211.217000", "174212.412000", "174213.711000", "174214.948000", "174216.187000", "174217.469000", "174218.705000", "174219.947000", "174221.185000", "174222.444000", "174223.658000", "174224.973000", "174226.182000", "174227.435000", "174228.692000", "174229.937000", "174231.172000", "174232.438000", "174233.701000", "174234.921000", "174236.193000", "174237.438000", "174238.687000", "174239.940000", "174241.224000", "174242.430000", "174243.690000", "174244.972000", "174246.204000", "174247.434000", "174248.782000", "174249.928000", "174251.309000", "174252.442000", "174253.696000", "174254.932000", "174256.233000", "174257.462000", "174258.714000", "174259.949000", "174301.187000", "174302.428000", "174303.710000", "174304.947000", "174306.177000", "174307.441000", "174308.714000", "174309.946000", "174311.203000", "174312.464000", "174313.685000", "174314.920000", "174316.205000", "174317.517000", "174318.668000", "174319.917000", "174321.231000", "174322.452000", "174323.718000", "174324.958000", "174326.167000", "174327.456000", "174328.706000", "174329.946000", "174331.203000", "174332.461000", "174333.686000", "174334.951000", "174336.180000", "174337.449000", "174338.729000", "174339.940000", "174341.262000", "174342.420000", "174343.695000", "174344.942000", "174346.190000", "174347.478000", "174348.706000", "174349.955000", "174351.212000", "174352.465000", "174353.729000", "174355.050000", "174356.265000", "174357.444000", "174358.687000", "174400.022000", "174401.223000", "174402.464000", "174403.705000", "174404.953000", "174406.185000", "174407.451000", "174408.700000", "174409.942000", "174411.214000", "174412.451000", "174413.692000", "174414.930000", "174416.201000", "174417.457000", "174418.721000", "174419.965000", "174421.197000", "174422.451000", "174423.711000", "174424.962000", "174426.222000", "174427.479000", "174428.674000", "174429.952000", "174431.235000", "174432.459000", "174433.729000", "174434.957000", "174436.231000", "174437.444000", "174438.697000", "174439.950000", "174441.209000", "174442.469000", "174443.689000", "174444.959000", "174446.229000", "174447.452000", "174448.689000", "174449.963000", "174451.223000", "174452.434000", "174453.712000", "174454.934000", "174456.195000", "174457.485000", "174458.699000", "174459.967000", "174501.238000", "174502.491000", "174503.675000", "174504.952000", "174506.244000", "174507.451000", "174508.713000", "174509.961000", "174511.234000", "174512.441000", "174513.694000", "174514.938000", "174516.222000", "174517.440000", "174518.711000", "174519.950000", "174521.175000", "174522.413000", "174523.689000", "174524.958000", "174526.193000", "174527.445000", "174528.709000", "174529.974000", "174531.252000", "174532.446000", "174533.699000", "174534.975000", "174536.195000", "174537.445000", "174538.694000", "174539.928000", "174541.175000", "174542.469000", "174543.708000", "174544.947000", "174546.199000", "174547.420000", "174548.695000", "174549.961000", "174551.179000", "174552.418000", "174553.680000", "174554.921000", "174556.203000", "174557.427000", "174558.716000", "174559.915000", "174601.241000", "174602.457000", "174603.705000", "174604.939000", "174606.201000", "174607.436000", "174608.713000", "174609.942000", "174611.191000", "174612.448000", "174613.734000", "174614.973000", "174616.200000", "174617.460000", "174618.705000", "174619.988000", "174621.208000", "174622.497000", "174623.696000", "174624.955000", "174626.212000", "174627.471000", "174628.673000", "174629.955000", "174631.230000", "174632.536000"],
      "InstanceNumber": [1, 2, 3, 4, 5, 6, 7, 8, 9, 10, 11, 12, 13, 14, 15, 16, 17, 18, 19, 20, 21, 22, 23, 24, 25, 26, 27, 28, 29, 30, 31, 32, 33, 34, 35, 36, 37, 38, 39, 40, 41, 42, 43, 44, 45, 46, 47, 48, 49, 50, 51, 52, 53, 54, 55, 56, 57, 58, 59, 60, 61, 62, 63, 64, 65, 66, 67, 68, 69, 70, 71, 72, 73, 74, 75, 76, 77, 78, 79, 80, 81, 82, 83, 84, 85, 86, 87, 88, 89, 90, 91, 92, 93, 94, 95, 96, 97, 98, 99, 100, 101, 102, 103, 104, 105, 106, 107, 108, 109, 110, 111, 112, 113, 114, 115, 116, 117, 118, 119, 120, 121, 122, 123, 124, 125, 126, 127, 128, 129, 130, 131, 132, 133, 134, 135, 136, 137, 138, 139, 140, 141, 142, 143, 144, 145, 146, 147, 148, 149, 150, 151, 152, 153, 154, 155, 156, 157, 158, 159, 160, 161, 162, 163, 164, 165, 166, 167, 168, 169, 170, 171, 172, 173, 174, 175, 176, 177, 178, 179, 180, 181, 182, 183, 184, 185, 186, 187, 188, 189, 190, 191, 192, 193, 194, 195, 196, 197, 198, 199, 200, 201, 202, 203, 204, 205, 206, 207, 208, 209, 210, 211, 212, 213, 214, 215, 216, 217, 218, 219, 220, 221, 222, 223, 224, 225, 226, 227, 228, 229, 230, 231, 232, 233, 234, 235, 236, 237, 238, 239, 240, 241, 242, 243, 244, 245, 246, 247, 248, 249, 250, 251, 252, 253, 254, 255, 256, 257, 258, 259, 260, 261, 262, 263, 264, 265, 266, 267, 268, 269, 270, 271, 272, 273, 274, 275, 276, 277, 278, 279, 280],
      "LargestImagePixelValue": [893, 1092, 837, 1294, 1390, 994, 1238, 1077, 1096, 1021, 1028, 863, 931, 997, 1465, 1372, 1146, 1074, 1015, 861, 1138, 1009, 1373, 1493, 1109, 976, 948, 1069, 942, 945, 903, 906, 1072, 930, 1023, 811, 959, 889, 936, 1197, 1030, 1096, 1133, 1376, 1508, 1110, 993, 875, 1108, 1080, 1213, 1207, 1040, 918, 1265, 882, 980, 947, 806, 1057, 926, 985, 811, 1253, 881, 900, 1299, 866, 1228, 1262, 1457, 1250, 956, 1086, 1323, 1368, 944, 966, 788, 874, 843, 925, 1057, 1372, 1225, 1299, 942, 1208, 1285, 1124, 993, 1006, 1111, 1260, 925, 954, 897, 947, 914, 805, 1230, 970, 984, 1522, 1073, 984, 988, 1043, 1281, 1063, 787, 1175, 953, 935, 952, 824, 1237, 911, 1034, 1336, 1208, 1470, 865, 832, 1117, 979, 948, 915, 1119, 974, 1007, 1048, 960, 1023, 1070, 1332, 905, 941, 834, 992, 1145, 951, 850, 1036, 900, 924, 823, 1121, 935, 1207, 1736, 1218, 1015, 1107, 1070, 1574, 954, 1024, 882, 1107, 899, 901, 1040, 1275, 912, 912, 833, 1194, 940, 808, 1421, 995, 1475, 1720, 1297, 887, 903, 1044, 1220, 1023, 1007, 1057, 1165, 938, 860, 1084, 927, 927, 996, 798, 1333, 896, 941, 949, 1097, 1375, 1042, 1218, 1005, 1203, 990, 1131, 901, 919, 784, 1081, 930, 958, 935, 884, 1575, 1620, 1297, 975, 994, 973, 1140, 1617, 1195, 1141, 1186, 996, 868, 1089, 846, 873, 937, 855, 869, 1497, 1118, 1017, 1024, 783, 1132, 921, 942, 884, 1027, 1244, 975, 1281, 1246, 1248, 1024, 943, 856, 938, 940, 966, 1060, 1292, 953, 852, 841, 1093, 1294, 1036, 1472, 982, 1108, 1307, 961, 954, 908, 870, 1230, 910, 885, 984, 1145, 943, 967, 835, 1328, 1105, 936, 1178, 1004, 1497],
      "WindowCenter": [382.0, 383.0, 381.0, 384.0, 385.0, 381.0, 383.0, 382.0, 382.0, 381.0, 382.0, 381.0, 382.0, 383.0, 386.0, 385.0, 383.0, 382.0, 381.0, 380.0, 382.0, 381.0, 384.0, 384.0, 381.0, 380.0, 379.0, 380.0, 379.0, 380.0, 379.0, 379.0, 381.0, 380.0, 381.0, 380.0, 381.0, 382.0, 382.0, 385.0, 384.0, 383.0, 382.0, 384.0, 384.0, 381.0, 380.0, 379.0, 381.0, 382.0, 383.0, 382.0, 381.0, 379.0, 381.0, 378.0, 379.0, 378.0, 377.0, 380.0, 379.0, 380.0, 380.0, 384.0, 382.0, 383.0, 384.0, 381.0, 383.0, 383.0, 383.0, 381.0, 379.0, 380.0, 381.0, 381.0, 378.0, 378.0, 377.0, 380.0, 381.0, 383.0, 383.0, 384.0, 383.0, 383.0, 379.0, 381.0, 382.0, 381.0, 379.0, 379.0, 380.0, 381.0, 378.0, 379.0, 379.0, 380.0, 380.0, 379.0, 383.0, 381.0, 381.0, 384.0, 381.0, 379.0, 379.0, 379.0, 381.0, 381.0, 379.0, 384.0, 381.0, 380.0, 380.0, 378.0, 382.0, 380.0, 381.0, 383.0, 381.0, 382.0, 377.0, 377.0, 379.0, 379.0, 379.0, 379.0, 381.0, 379.0, 380.0, 380.0, 380.0, 379.0, 380.0, 382.0, 378.0, 380.0, 379.0, 381.0, 381.0, 380.0, 378.0, 381.0, 380.0, 381.0, 381.0, 384.0, 382.0, 384.0, 386.0, 382.0, 380.0, 380.0, 379.0, 383.0, 379.0, 380.0, 378.0, 380.0, 378.0, 378.0, 380.0, 382.0, 378.0, 379.0, 379.0, 382.0, 380.0, 380.0, 384.0, 381.0, 384.0, 385.0, 383.0, 379.0, 379.0, 380.0, 381.0, 379.0, 379.0, 380.0, 380.0, 378.0, 377.0, 379.0, 378.0, 378.0, 380.0, 379.0, 384.0, 381.0, 381.0, 381.0, 382.0, 383.0, 380.0, 381.0, 380.0, 381.0, 379.0, 381.0, 378.0, 378.0, 377.0, 381.0, 380.0, 380.0, 381.0, 382.0, 387.0, 387.0, 384.0, 381.0, 380.0, 379.0, 382.0, 383.0, 380.0, 378.0, 378.0, 377.0, 376.0, 379.0, 377.0, 378.0, 380.0, 379.0, 380.0, 385.0, 381.0, 380.0, 379.0, 377.0, 380.0, 379.0, 380.0, 380.0, 381.0, 383.0, 381.0, 383.0, 382.0, 381.0, 380.0, 379.0, 379.0, 381.0, 381.0, 381.0, 381.0, 382.0, 380.0, 379.0, 380.0, 385.0, 385.0, 382.0, 383.0, 379.0, 380.0, 381.0, 377.0, 378.0, 378.0, 378.0, 381.0, 379.0, 378.0, 381.0, 381.0, 380.0, 380.0, 379.0, 383.0, 381.0, 380.0, 381.0, 380.0, 383.0],
      "WindowWidth": [813.0, 815.0, 811.0, 816.0, 817.0, 812.0, 813.0, 812.0, 812.0, 812.0, 812.0, 812.0, 814.0, 814.0, 818.0, 817.0, 815.0, 813.0, 811.0, 811.0, 813.0, 810.0, 816.0, 815.0, 811.0, 809.0, 808.0, 810.0, 808.0, 808.0, 808.0, 808.0, 810.0, 809.0, 811.0, 809.0, 812.0, 813.0, 814.0, 818.0, 816.0, 815.0, 813.0, 815.0, 816.0, 811.0, 809.0, 807.0, 811.0, 812.0, 814.0, 813.0, 810.0, 808.0, 811.0, 806.0, 808.0, 806.0, 804.0, 809.0, 808.0, 810.0, 809.0, 816.0, 813.0, 815.0, 817.0, 811.0, 814.0, 813.0, 813.0, 811.0, 807.0, 808.0, 810.0, 810.0, 805.0, 806.0, 805.0, 810.0, 812.0, 815.0, 815.0, 816.0, 814.0, 813.0, 808.0, 810.0, 812.0, 810.0, 808.0, 807.0, 808.0, 810.0, 806.0, 807.0, 808.0, 809.0, 809.0, 808.0, 814.0, 811.0, 810.0, 815.0, 810.0, 807.0, 807.0, 808.0, 810.0, 810.0, 809.0, 815.0, 812.0, 809.0, 809.0, 806.0, 812.0, 809.0, 810.0, 814.0, 811.0, 812.0, 804.0, 805.0, 807.0, 807.0, 807.0, 807.0, 810.0, 808.0, 809.0, 809.0, 809.0, 807.0, 808.0, 811.0, 806.0, 809.0, 808.0, 811.0, 811.0, 808.0, 807.0, 810.0, 810.0, 812.0, 812.0, 816.0, 814.0, 815.0, 818.0, 812.0, 808.0, 809.0, 808.0, 812.0, 808.0, 808.0, 806.0, 809.0, 806.0, 806.0, 808.0, 811.0, 807.0, 807.0, 808.0, 812.0, 810.0, 809.0, 816.0, 811.0, 815.0, 817.0, 813.0, 809.0, 807.0, 808.0, 809.0, 807.0, 807.0, 808.0, 809.0, 806.0, 804.0, 807.0, 805.0, 806.0, 808.0, 808.0, 815.0, 811.0, 811.0, 811.0, 812.0, 814.0, 810.0, 811.0, 809.0, 809.0, 807.0, 810.0, 807.0, 806.0, 805.0, 810.0, 809.0, 810.0, 812.0, 813.0, 820.0, 821.0, 816.0, 811.0, 809.0, 808.0, 811.0, 813.0, 808.0, 806.0, 806.0, 803.0, 802.0, 806.0, 804.0, 806.0, 810.0, 809.0, 810.0, 816.0, 811.0, 808.0, 806.0, 804.0, 809.0, 808.0, 809.0, 809.0, 811.0, 814.0, 810.0, 813.0, 812.0, 810.0, 808.0, 808.0, 808.0, 812.0, 812.0, 810.0, 810.0, 812.0, 809.0, 808.0, 810.0, 817.0, 818.0, 813.0, 814.0, 808.0, 808.0, 810.0, 804.0, 806.0, 805.0, 805.0, 810.0, 807.0, 807.0, 810.0, 810.0, 808.0, 809.0, 808.0, 814.0, 811.0, 809.0, 811.0, 809.0, 813.0]
    },
    "slices": {}
  }
}