{
  "AcquisitionMatrixPE": 96,
  "AcquisitionNumber": 1,
  "AcquisitionTime": "18:14:44.285000",
  "BandwidthPerPixelPhaseEncode": 18.939,
  "BaseResolution": 96,
  "BodyPartExamined": "BRAIN",
  "ConsistencyInfo": "N4_VE11C_LATEST_20160120",
  "ConversionSoftware": "dcm2niix",
  "ConversionSoftwareVersion": "v1.0.20170923 (OpenJPEG build) GCC6.3.0",
  "DerivedVendorReportedEchoSpacing": 0.000550011,
  "DeviceSerialNumber": "66112",
  "DwellTime": 2.3e-06,
  "EchoTime": 0.033,
  "EchoTrainLength": 96,
  "EffectiveEchoSpacing": 0.000550011,
  "FlipAngle": 64,
  "ImageType": [
    "ORIGINAL",
    "PRIMARY",
    "FMRI",
    "NONE",
    "ND",
    "NORM",
    "MOSAIC"
],
  "InstitutionAddress": "Maynard_3_Hanover_NH_US_03755",
  "InstitutionName": "Dartmouth_College_-_PBS",
  "MagneticFieldStrength": 3,
  "Manufacturer": "Siemens",
  "ManufacturersModelName": "Prisma",
  "Modality": "MR",
  "MultibandAccelerationFactor": 4,
  "PartialFourier": 1,
  "PercentPhaseFOV": 100,
  "PhaseEncodingDirection": "j-",
  "PhaseEncodingSteps": 96,
  "PhaseResolution": 1,
  "ProcedureStepDescription": "Gobbini_Matteo_1017_famface-angles",
  "ProtocolName": "func_run-10_task-str1back",
  "PulseSequenceDetails": "%SiemensSeq%_ep2d_bold",
  "ReceiveCoilActiveElements": "HEA;HEP",
  "ReceiveCoilName": "Head_32",
  "ReconMatrixPE": 96,
  "RepetitionTime": 1.25,
  "ScanOptions": "FS",
  "ScanningSequence": "EP",
  "SequenceName": "_epfid2d1_96",
  "SequenceVariant": "SK",
  "SeriesDescription": "func_run-10_task-str1back",
  "SliceTiming": [0.88, 0, 0.615, 0.09, 0.705, 0.1775, 0.7925, 0.3525, 0.9675, 0.44, 1.055, 0.5275, 1.1425, 0.265, 0.88, 0, 0.615, 0.09, 0.705, 0.1775, 0.7925, 0.3525, 0.9675, 0.44, 1.055, 0.5275, 1.1425, 0.265, 0.88, 0, 0.615, 0.09, 0.705, 0.1775, 0.7925, 0.3525, 0.9675, 0.44, 1.055, 0.5275, 1.1425, 0.265, 0.88, 0, 0.615, 0.09, 0.705, 0.1775, 0.7925, 0.3525, 0.9675, 0.44, 1.055, 0.5275, 1.1425, 0.265],
  "SoftwareVersions": "syngo_MR_E11",
  "StationName": "AWP66112",
  "TaskName": "str1back",
  "TotalReadoutTime": 0.0522511,
  "dcmmeta_affine": [
    [-2.4995944499969482, -0.04275773838162422, -0.014108624309301376, 124.7601318359375],
    [-0.0443987213075161, 2.470911741256714, 0.3776552081108093, -94.64942932128906],
    [-0.007485393900424242, -0.37784454226493835, 2.4712703227996826, -55.4096565246582],
    [0.0, 0.0, 0.0, 1.0]
],
  "dcmmeta_reorient_transform": [
    [0.0, -1.0, 0.0, 95.0],
    [1.0, 0.0, 0.0, 0.0],
    [0.0, 0.0, 1.0, 0.0],
    [0.0, 0.0, 0.0, 1.0]
],
  "dcmmeta_shape": [96, 96, 56, 280],
  "dcmmeta_slice_dim": 2,
  "dcmmeta_version": 0.6,
  "global": {
    "const": {
      "AccessionNumber": "A000295",
      "AcquisitionMatrix": [96, 0, 0, 96],
      "AngioFlag": "N",
      "BitsAllocated": 16,
      "BitsStored": 12,
      "BodyPartExamined": "BRAIN",
      "Columns": 768,
      "EchoNumbers": 1,
      "EchoTime": 33.0,
      "EchoTrainLength": 96,
      "FlipAngle": 64.0,
      "HighBit": 11,
      "ImageOrientationPatient": [0.99983780463524, 0.01775948880109, -0.002994157597, -0.0171030960153, 0.98836473294099, 0.15113781388247],
      "ImagePositionPatient": [-946.19530356674, -985.23154016488, -215.74555895985],
      "ImageType": [
        "ORIGINAL",
        "PRIMARY",
        "FMRI",
        "NONE",
        "ND",
        "NORM",
        "MOSAIC"
],
      "ImagedNucleus": "1H",
      "ImagingFrequency": 123.252376,
      "InPlanePhaseEncodingDirection": "COL",
      "MRAcquisitionType": "2D",
      "MagneticFieldStrength": 3.0,
      "Manufacturer": "SIEMENS",
      "ManufacturerModelName": "Prisma",
      "Modality": "MR",
      "NumberOfAverages": 1.0,
      "NumberOfPhaseEncodingSteps": 96,
      "PercentPhaseFieldOfView": 100.0,
      "PercentSampling": 100.0,
      "PerformedProcedureStepStartTime": "165333.439000",
      "PhotometricInterpretation": "MONOCHROME2",
      "PixelBandwidth": 2265.0,
      "PixelRepresentation": 0,
      "PixelSpacing": [2.5, 2.5],
      "PositionReferenceIndicator": "",
      "ProtocolName": "func_run-10_task-str1back",
      "RepetitionTime": 1250.0,
      "Rows": 768,
      "SAR": 0.05259224264587,
      "SamplesPerPixel": 1,
      "ScanOptions": "FS",
      "ScanningSequence": "EP",
      "SequenceName": "*epfid2d1_96",
      "SequenceVariant": "SK",
      "SeriesDescription": "func_run-10_task-str1back",
      "SeriesNumber": 71,
      "SeriesTime": "181445.695000",
      "SliceLocation": -69.774916748694,
      "SliceThickness": 2.5,
      "SmallestImagePixelValue": 0,
      "SoftwareVersions": "syngo MR E11",
      "SpacingBetweenSlices": 2.4999999103724,
      "SpecificCharacterSet": "ISO_IR 100",
      "StudyID": "4",
      "StudyTime": "165333.388000",
      "TransmitCoilName": "Body",
      "VariableFlipAngleFlag": "N",
      "WindowCenterWidthExplanation": "Algo1",
      "dBdt": 0.0},
    "slices": {}
  },
  "time": {
    "samples": {
      "AcquisitionNumber": [1, 2, 3, 4, 5, 6, 7, 8, 9, 10, 11, 12, 13, 14, 15, 16, 17, 18, 19, 20, 21, 22, 23, 24, 25, 26, 27, 28, 29, 30, 31, 32, 33, 34, 35, 36, 37, 38, 39, 40, 41, 42, 43, 44, 45, 46, 47, 48, 49, 50, 51, 52, 53, 54, 55, 56, 57, 58, 59, 60, 61, 62, 63, 64, 65, 66, 67, 68, 69, 70, 71, 72, 73, 74, 75, 76, 77, 78, 79, 80, 81, 82, 83, 84, 85, 86, 87, 88, 89, 90, 91, 92, 93, 94, 95, 96, 97, 98, 99, 100, 101, 102, 103, 104, 105, 106, 107, 108, 109, 110, 111, 112, 113, 114, 115, 116, 117, 118, 119, 120, 121, 122, 123, 124, 125, 126, 127, 128, 129, 130, 131, 132, 133, 134, 135, 136, 137, 138, 139, 140, 141, 142, 143, 144, 145, 146, 147, 148, 149, 150, 151, 152, 153, 154, 155, 156, 157, 158, 159, 160, 161, 162, 163, 164, 165, 166, 167, 168, 169, 170, 171, 172, 173, 174, 175, 176, 177, 178, 179, 180, 181, 182, 183, 184, 185, 186, 187, 188, 189, 190, 191, 192, 193, 194, 195, 196, 197, 198, 199, 200, 201, 202, 203, 204, 205, 206, 207, 208, 209, 210, 211, 212, 213, 214, 215, 216, 217, 218, 219, 220, 221, 222, 223, 224, 225, 226, 227, 228, 229, 230, 231, 232, 233, 234, 235, 236, 237, 238, 239, 240, 241, 242, 243, 244, 245, 246, 247, 248, 249, 250, 251, 252, 253, 254, 255, 256, 257, 258, 259, 260, 261, 262, 263, 264, 265, 266, 267, 268, 269, 270, 271, 272, 273, 274, 275, 276, 277, 278, 279, 280],
      "AcquisitionTime": ["181444.285000", "181445.535000", "181446.785000", "181448.035000", "181449.285000", "181450.535000", "181451.785000", "181453.035000", "181454.285000", "181455.535000", "181456.785000", "181458.035000", "181459.285000", "181500.535000", "181501.785000", "181503.035000", "181504.285000", "181505.535000", "181506.785000", "181508.035000", "181509.285000", "181510.535000", "181511.785000", "181513.035000", "181514.285000", "181515.535000", "181516.785000", "181518.035000", "181519.285000", "181520.535000", "181521.785000", "181523.035000", "181524.285000", "181525.535000", "181526.785000", "181528.035000", "181529.285000", "181530.535000", "181531.785000", "181533.035000", "181534.285000", "181535.535000", "181536.785000", "181538.035000", "181539.285000", "181540.535000", "181541.785000", "181543.035000", "181544.285000", "181545.535000", "181546.785000", "181548.035000", "181549.285000", "181550.535000", "181551.785000", "181553.035000", "181554.285000", "181555.535000", "181556.785000", "181558.035000", "181559.285000", "181600.535000", "181601.785000", "181603.035000", "181604.285000", "181605.535000", "181606.785000", "181608.035000", "181609.285000", "181610.535000", "181611.785000", "181613.035000", "181614.285000", "181615.535000", "181616.785000", "181618.035000", "181619.285000", "181620.535000", "181621.785000", "181623.035000", "181624.285000", "181625.535000", "181626.785000", "181628.035000", "181629.285000", "181630.535000", "181631.785000", "181633.035000", "181634.285000", "181635.535000", "181636.785000", "181638.035000", "181639.285000", "181640.535000", "181641.785000", "181643.035000", "181644.285000", "181645.535000", "181646.785000", "181648.035000", "181649.285000", "181650.535000", "181651.785000", "181653.035000", "181654.285000", "181655.535000", "181656.785000", "181658.035000", "181659.285000", "181700.535000", "181701.785000", "181703.035000", "181704.285000", "181705.535000", "181706.785000", "181708.035000", "181709.285000", "181710.535000", "181711.785000", "181713.035000", "181714.285000", "181715.535000", "181716.785000", "181718.035000", "181719.285000", "181720.535000", "181721.785000", "181723.035000", "181724.285000", "181725.535000", "181726.785000", "181728.035000", "181729.285000", "181730.535000", "181731.785000", "181733.035000", "181734.285000", "181735.535000", "181736.785000", "181738.035000", "181739.285000", "181740.535000", "181741.785000", "181743.035000", "181744.285000", "181745.535000", "181746.785000", "181748.035000", "181749.285000", "181750.535000", "181751.785000", "181753.035000", "181754.285000", "181755.535000", "181756.785000", "181758.035000", "181759.285000", "181800.535000", "181801.785000", "181803.035000", "181804.285000", "181805.535000", "181806.785000", "181808.035000", "181809.285000", "181810.535000", "181811.785000", "181813.035000", "181814.285000", "181815.535000", "181816.785000", "181818.035000", "181819.285000", "181820.535000", "181821.785000", "181823.035000", "181824.285000", "181825.535000", "181826.785000", "181828.035000", "181829.285000", "181830.535000", "181831.785000", "181833.035000", "181834.285000", "181835.535000", "181836.785000", "181838.035000", "181839.285000", "181840.535000", "181841.785000", "181843.035000", "181844.285000", "181845.535000", "181846.785000", "181848.035000", "181849.285000", "181850.535000", "181851.785000", "181853.035000", "181854.285000", "181855.535000", "181856.785000", "181858.035000", "181859.285000", "181900.535000", "181901.785000", "181903.035000", "181904.285000", "181905.535000", "181906.785000", "181908.035000", "181909.285000", "181910.535000", "181911.785000", "181913.035000", "181914.285000", "181915.535000", "181916.785000", "181918.035000", "181919.285000", "181920.535000", "181921.785000", "181923.035000", "181924.285000", "181925.535000", "181926.785000", "181928.035000", "181929.285000", "181930.535000", "181931.785000", "181933.035000", "181934.285000", "181935.535000", "181936.785000", "181938.035000", "181939.285000", "181940.535000", "181941.785000", "181943.035000", "181944.285000", "181945.535000", "181946.785000", "181948.035000", "181949.285000", "181950.535000", "181951.785000", "181953.035000", "181954.285000", "181955.535000", "181956.785000", "181958.035000", "181959.285000", "182000.535000", "182001.785000", "182003.035000", "182004.285000", "182005.535000", "182006.785000", "182008.035000", "182009.285000", "182010.535000", "182011.785000", "182013.035000", "182014.285000", "182015.535000", "182016.785000", "182018.035000", "182019.285000", "182020.535000", "182021.785000", "182023.035000", "182024.285000", "182025.535000", "182026.785000", "182028.035000", "182029.285000", "182030.535000", "182031.785000", "182033.035000"],
      "ContentTime": ["181445.699000", "181446.706000", "181447.996000", "181449.249000", "181450.527000", "181451.781000", "181452.997000", "181454.302000", "181455.496000", "181456.747000", "181458.027000", "181459.272000", "181500.512000", "181501.747000", "181502.953000", "181504.236000", "181505.513000", "181506.738000", "181507.979000", "181509.266000", "181510.488000", "181511.727000", "181512.986000", "181514.237000", "181515.486000", "181516.792000", "181518.009000", "181519.211000", "181520.479000", "181521.723000", "181522.994000", "181524.297000", "181525.515000", "181526.747000", "181528.014000", "181529.258000", "181530.522000", "181531.745000", "181532.998000", "181534.255000", "181535.506000", "181536.718000", "181538.013000", "181539.251000", "181540.533000", "181541.746000", "181542.964000", "181544.251000", "181545.481000", "181546.707000", "181547.988000", "181549.226000", "181550.476000", "181551.726000", "181552.992000", "181554.239000", "181555.488000", "181556.793000", "181557.993000", "181559.221000", "181600.469000", "181601.828000", "181602.987000", "181604.240000", "181605.473000", "181606.764000", "181608.001000", "181609.267000", "181610.485000", "181611.723000", "181613.049000", "181614.266000", "181615.508000", "181616.763000", "181618.038000", "181619.230000", "181620.511000", "181621.768000", "181622.961000", "181624.240000", "181625.474000", "181626.737000", "181627.965000", "181629.222000", "181630.486000", "181631.728000", "181632.967000", "181634.228000", "181635.502000", "181636.754000", "181637.987000", "181639.227000", "181640.460000", "181641.750000", "181643.027000", "181644.253000", "181645.464000", "181646.761000", "181648.024000", "181649.231000", "181650.538000", "181651.775000", "181652.997000", "181654.271000", "181655.515000", "181656.784000", "181658.010000", "181659.263000", "181700.492000", "181701.786000", "181703.000000", "181704.292000", "181705.472000", "181706.790000", "181708.053000", "181709.264000", "181710.494000", "181711.726000", "181713.021000", "181714.251000", "181715.568000", "181716.766000", "181717.979000", "181719.254000", "181720.541000", "181721.729000", "181723.003000", "181724.266000", "181725.512000", "181726.819000", "181727.996000", "181729.230000", "181730.519000", "181731.753000", "181732.990000", "181734.268000", "181735.494000", "181736.756000", "181738.005000", "181739.270000", "181740.515000", "181741.766000", "181743.020000", "181744.249000", "181745.535000", "181746.780000", "181748.022000", "181749.258000", "181750.476000", "181751.751000", "181752.970000", "181754.233000", "181755.511000", "181756.738000", "181758.001000", "181759.248000", "181800.491000", "181801.771000", "181803.007000", "181804.267000", "181805.495000", "181806.748000", "181808.067000", "181809.257000", "181810.470000", "181811.781000", "181812.982000", "181814.205000", "181815.477000", "181816.715000", "181818.001000", "181819.254000", "181820.519000", "181821.735000", "181823.048000", "181824.246000", "181825.526000", "181826.760000", "181827.989000", "181829.270000", "181830.498000", "181831.752000", "181833.005000", "181834.225000", "181835.510000", "181836.723000", "181838.056000", "181839.281000", "181840.514000", "181841.759000", "181843.018000", "181844.259000", "181845.520000", "181846.800000", "181848.035000", "181849.281000", "181850.517000", "181851.753000", "181852.967000", "181854.251000", "181855.534000", "181856.747000", "181858.003000", "181859.257000", "181900.476000", "181901.791000", "181902.996000", "181904.245000", "181905.459000", "181906.755000", "181907.975000", "181909.255000", "181910.500000", "181911.738000", "181913.012000", "181914.250000", "181915.499000", "181916.739000", "181917.973000", "181919.252000", "181920.489000", "181921.746000", "181923.037000", "181924.276000", "181925.490000", "181926.761000", "181928.036000", "181929.285000", "181930.531000", "181931.747000", "181932.986000", "181934.290000", "181935.497000", "181936.753000", "181938.023000", "181939.254000", "181940.482000", "181941.782000", "181943.001000", "181944.248000", "181945.515000", "181946.779000", "181947.978000", "181949.249000", "181950.492000", "181951.733000", "181952.989000", "181954.246000", "181955.481000", "181956.704000", "181958.018000", "181959.238000", "182000.502000", "182001.732000", "182002.982000", "182004.267000", "182005.481000", "182006.758000", "182008.001000", "182009.254000", "182010.501000", "182011.709000", "182012.981000", "182014.247000", "182015.480000", "182016.780000", "182017.990000", "182019.238000", "182020.530000", "182021.727000", "182022.991000", "182024.219000", "182025.511000", "182026.733000", "182027.987000", "182029.231000", "182030.557000", "182031.729000", "182032.929000", "182034.309000"],
      "InstanceCreationTime": ["181445.699000", "181446.706000", "181447.996000", "181449.249000", "181450.527000", "181451.781000", "181452.997000", "181454.302000", "181455.496000", "181456.747000", "181458.027000", "181459.272000", "181500.512000", "181501.747000", "181502.953000", "181504.236000", "181505.513000", "181506.738000", "181507.979000", "181509.266000", "181510.488000", "181511.727000", "181512.986000", "181514.237000", "181515.486000", "181516.792000", "181518.009000", "181519.211000", "181520.479000", "181521.723000", "181522.994000", "181524.297000", "181525.515000", "181526.747000", "181528.014000", "181529.258000", "181530.522000", "181531.745000", "181532.998000", "181534.255000", "181535.506000", "181536.718000", "181538.013000", "181539.251000", "181540.533000", "181541.746000", "181542.964000", "181544.251000", "181545.481000", "181546.707000", "181547.988000", "181549.226000", "181550.476000", "181551.726000", "181552.992000", "181554.239000", "181555.488000", "181556.793000", "181557.993000", "181559.221000", "181600.469000", "181601.828000", "181602.987000", "181604.240000", "181605.473000", "181606.764000", "181608.001000", "181609.267000", "181610.485000", "181611.723000", "181613.049000", "181614.266000", "181615.508000", "181616.763000", "181618.038000", "181619.230000", "181620.511000", "181621.768000", "181622.961000", "181624.240000", "181625.474000", "181626.737000", "181627.965000", "181629.222000", "181630.486000", "181631.728000", "181632.967000", "181634.228000", "181635.502000", "181636.754000", "181637.987000", "181639.227000", "181640.460000", "181641.750000", "181643.027000", "181644.253000", "181645.464000", "181646.761000", "181648.024000", "181649.231000", "181650.538000", "181651.775000", "181652.997000", "181654.271000", "181655.515000", "181656.784000", "181658.010000", "181659.263000", "181700.492000", "181701.786000", "181703.000000", "181704.292000", "181705.472000", "181706.790000", "181708.053000", "181709.264000", "181710.494000", "181711.726000", "181713.021000", "181714.251000", "181715.568000", "181716.766000", "181717.979000", "181719.254000", "181720.541000", "181721.729000", "181723.003000", "181724.266000", "181725.512000", "181726.819000", "181727.996000", "181729.230000", "181730.519000", "181731.753000", "181732.990000", "181734.268000", "181735.494000", "181736.756000", "181738.005000", "181739.270000", "181740.515000", "181741.766000", "181743.020000", "181744.249000", "181745.535000", "181746.780000", "181748.022000", "181749.258000", "181750.476000", "181751.751000", "181752.970000", "181754.233000", "181755.511000", "181756.738000", "181758.001000", "181759.248000", "181800.491000", "181801.771000", "181803.007000", "181804.267000", "181805.495000", "181806.748000", "181808.067000", "181809.257000", "181810.470000", "181811.781000", "181812.982000", "181814.205000", "181815.477000", "181816.715000", "181818.001000", "181819.254000", "181820.519000", "181821.735000", "181823.048000", "181824.246000", "181825.526000", "181826.760000", "181827.989000", "181829.270000", "181830.498000", "181831.752000", "181833.005000", "181834.225000", "181835.510000", "181836.723000", "181838.056000", "181839.281000", "181840.514000", "181841.759000", "181843.018000", "181844.259000", "181845.520000", "181846.800000", "181848.035000", "181849.281000", "181850.517000", "181851.753000", "181852.967000", "181854.251000", "181855.534000", "181856.747000", "181858.003000", "181859.257000", "181900.476000", "181901.791000", "181902.996000", "181904.245000", "181905.459000", "181906.755000", "181907.975000", "181909.255000", "181910.500000", "181911.738000", "181913.012000", "181914.250000", "181915.499000", "181916.739000", "181917.973000", "181919.252000", "181920.489000", "181921.746000", "181923.037000", "181924.276000", "181925.490000", "181926.761000", "181928.036000", "181929.285000", "181930.531000", "181931.747000", "181932.986000", "181934.290000", "181935.497000", "181936.753000", "181938.023000", "181939.254000", "181940.482000", "181941.782000", "181943.001000", "181944.248000", "181945.515000", "181946.779000", "181947.978000", "181949.249000", "181950.492000", "181951.733000", "181952.989000", "181954.246000", "181955.481000", "181956.704000", "181958.018000", "181959.238000", "182000.502000", "182001.732000", "182002.982000", "182004.267000", "182005.481000", "182006.758000", "182008.001000", "182009.254000", "182010.501000", "182011.709000", "182012.981000", "182014.247000", "182015.480000", "182016.780000", "182017.990000", "182019.238000", "182020.530000", "182021.727000", "182022.991000", "182024.219000", "182025.511000", "182026.733000", "182027.987000", "182029.231000", "182030.557000", "182031.729000", "182032.929000", "182034.309000"],
      "InstanceNumber": [1, 2, 3, 4, 5, 6, 7, 8, 9, 10, 11, 12, 13, 14, 15, 16, 17, 18, 19, 20, 21, 22, 23, 24, 25, 26, 27, 28, 29, 30, 31, 32, 33, 34, 35, 36, 37, 38, 39, 40, 41, 42, 43, 44, 45, 46, 47, 48, 49, 50, 51, 52, 53, 54, 55, 56, 57, 58, 59, 60, 61, 62, 63, 64, 65, 66, 67, 68, 69, 70, 71, 72, 73, 74, 75, 76, 77, 78, 79, 80, 81, 82, 83, 84, 85, 86, 87, 88, 89, 90, 91, 92, 93, 94, 95, 96, 97, 98, 99, 100, 101, 102, 103, 104, 105, 106, 107, 108, 109, 110, 111, 112, 113, 114, 115, 116, 117, 118, 119, 120, 121, 122, 123, 124, 125, 126, 127, 128, 129, 130, 131, 132, 133, 134, 135, 136, 137, 138, 139, 140, 141, 142, 143, 144, 145, 146, 147, 148, 149, 150, 151, 152, 153, 154, 155, 156, 157, 158, 159, 160, 161, 162, 163, 164, 165, 166, 167, 168, 169, 170, 171, 172, 173, 174, 175, 176, 177, 178, 179, 180, 181, 182, 183, 184, 185, 186, 187, 188, 189, 190, 191, 192, 193, 194, 195, 196, 197, 198, 199, 200, 201, 202, 203, 204, 205, 206, 207, 208, 209, 210, 211, 212, 213, 214, 215, 216, 217, 218, 219, 220, 221, 222, 223, 224, 225, 226, 227, 228, 229, 230, 231, 232, 233, 234, 235, 236, 237, 238, 239, 240, 241, 242, 243, 244, 245, 246, 247, 248, 249, 250, 251, 252, 253, 254, 255, 256, 257, 258, 259, 260, 261, 262, 263, 264, 265, 266, 267, 268, 269, 270, 271, 272, 273, 274, 275, 276, 277, 278, 279, 280],
      "LargestImagePixelValue": [1551, 1198, 1573, 1246, 1178, 1028, 841, 1254, 1148, 978, 1014, 1193, 1429, 1034, 951, 879, 1572, 975, 989, 828, 1513, 991, 948, 1037, 1521, 929, 946, 1146, 1120, 915, 803, 900, 1326, 969, 1113, 1063, 1018, 963, 807, 1033, 899, 860, 1216, 1349, 899, 1153, 788, 891, 1009, 1067, 845, 1057, 1698, 1020, 925, 874, 1165, 924, 884, 1193, 907, 989, 982, 1117, 1447, 976, 934, 1081, 1477, 993, 991, 1090, 872, 1245, 909, 924, 939, 1047, 1128, 971, 917, 857, 1068, 996, 924, 947, 762, 957, 884, 928, 1035, 1029, 1352, 1028, 1245, 1429, 1085, 1319, 1153, 1340, 1412, 962, 965, 784, 852, 910, 933, 879, 996, 891, 1305, 913, 872, 1006, 955, 905, 943, 884, 1311, 964, 1047, 1158, 1307, 983, 973, 962, 1035, 886, 883, 843, 1092, 1016, 987, 957, 842, 1226, 862, 897, 1328, 1182, 1202, 1037, 1319, 939, 927, 843, 1149, 976, 960, 1247, 1195, 994, 838, 1280, 956, 1004, 949, 1119, 1298, 936, 980, 840, 1175, 947, 818, 1208, 1335, 931, 923, 838, 851, 963, 941, 835, 958, 903, 1076, 1023, 1388, 1100, 1025, 1176, 1277, 937, 1016, 1311, 1109, 1008, 1054, 1415, 950, 936, 1246, 1114, 956, 829, 1118, 956, 927, 1117, 1260, 941, 957, 1125, 915, 918, 836, 1393, 999, 1020, 1192, 1196, 1035, 1004, 818, 1311, 972, 1004, 987, 1048, 1301, 926, 856, 873, 1012, 909, 945, 1030, 881, 1062, 1174, 1375, 1334, 1064, 945, 1270, 1253, 954, 993, 827, 1193, 940, 1020, 1038, 1308, 942, 834, 1009, 992, 953, 1036, 804, 1158, 916, 820, 1215, 927, 1005, 1197, 1220, 956, 844, 1434, 920, 825, 1467, 862, 935, 1121, 944, 893, 1160, 962, 891, 1256, 917, 981, 1015, 948, 921],
      "WindowCenter": [388.0, 384.0, 385.0, 382.0, 381.0, 380.0, 378.0, 382.0, 381.0, 379.0, 380.0, 381.0, 383.0, 380.0, 379.0, 378.0, 384.0, 379.0, 380.0, 378.0, 383.0, 380.0, 379.0, 380.0, 383.0, 378.0, 378.0, 380.0, 380.0, 378.0, 377.0, 379.0, 382.0, 379.0, 381.0, 380.0, 380.0, 378.0, 377.0, 380.0, 379.0, 378.0, 381.0, 381.0, 378.0, 380.0, 377.0, 378.0, 380.0, 380.0, 379.0, 381.0, 384.0, 380.0, 378.0, 379.0, 381.0, 379.0, 379.0, 382.0, 379.0, 380.0, 380.0, 380.0, 382.0, 379.0, 379.0, 380.0, 382.0, 379.0, 378.0, 379.0, 377.0, 380.0, 377.0, 378.0, 379.0, 379.0, 380.0, 378.0, 378.0, 378.0, 380.0, 380.0, 378.0, 378.0, 377.0, 380.0, 380.0, 380.0, 381.0, 381.0, 383.0, 381.0, 382.0, 383.0, 380.0, 381.0, 379.0, 380.0, 381.0, 377.0, 377.0, 375.0, 377.0, 378.0, 379.0, 378.0, 379.0, 378.0, 381.0, 378.0, 378.0, 379.0, 378.0, 378.0, 379.0, 379.0, 383.0, 380.0, 380.0, 381.0, 382.0, 379.0, 378.0, 379.0, 380.0, 379.0, 379.0, 378.0, 380.0, 380.0, 380.0, 380.0, 379.0, 381.0, 379.0, 380.0, 383.0, 382.0, 381.0, 379.0, 381.0, 378.0, 378.0, 378.0, 381.0, 379.0, 379.0, 381.0, 380.0, 378.0, 377.0, 381.0, 378.0, 378.0, 377.0, 379.0, 380.0, 377.0, 378.0, 376.0, 380.0, 378.0, 376.0, 380.0, 381.0, 378.0, 377.0, 377.0, 378.0, 379.0, 379.0, 378.0, 381.0, 380.0, 382.0, 381.0, 383.0, 381.0, 379.0, 381.0, 382.0, 379.0, 379.0, 381.0, 380.0, 379.0, 379.0, 382.0, 379.0, 378.0, 380.0, 380.0, 378.0, 377.0, 381.0, 380.0, 379.0, 380.0, 381.0, 378.0, 379.0, 381.0, 380.0, 380.0, 379.0, 383.0, 380.0, 380.0, 381.0, 381.0, 380.0, 379.0, 377.0, 381.0, 379.0, 379.0, 378.0, 379.0, 380.0, 378.0, 377.0, 378.0, 380.0, 378.0, 380.0, 381.0, 380.0, 382.0, 383.0, 383.0, 382.0, 380.0, 378.0, 381.0, 380.0, 378.0, 378.0, 377.0, 381.0, 379.0, 379.0, 379.0, 381.0, 378.0, 377.0, 380.0, 380.0, 379.0, 379.0, 377.0, 381.0, 379.0, 379.0, 382.0, 380.0, 380.0, 381.0, 381.0, 379.0, 377.0, 382.0, 379.0, 378.0, 383.0, 378.0, 379.0, 381.0, 379.0, 378.0, 381.0, 378.0, 378.0, 381.0, 379.0, 379.0, 379.0, 378.0, 378.0],
      "WindowWidth": [823.0, 816.0, 816.0, 812.0, 811.0, 809.0, 806.0, 811.0, 810.0, 807.0, 809.0, 811.0, 813.0, 809.0, 807.0, 807.0, 814.0, 808.0, 808.0, 806.0, 813.0, 809.0, 807.0, 809.0, 812.0, 807.0, 806.0, 809.0, 808.0, 806.0, 805.0, 808.0, 812.0, 807.0, 809.0, 808.0, 808.0, 806.0, 804.0, 809.0, 808.0, 806.0, 810.0, 810.0, 805.0, 808.0, 804.0, 806.0, 808.0, 809.0, 808.0, 811.0, 815.0, 809.0, 807.0, 807.0, 811.0, 808.0, 808.0, 812.0, 808.0, 808.0, 809.0, 808.0, 811.0, 807.0, 807.0, 809.0, 811.0, 806.0, 805.0, 807.0, 804.0, 808.0, 804.0, 806.0, 807.0, 808.0, 808.0, 805.0, 805.0, 805.0, 809.0, 809.0, 806.0, 806.0, 805.0, 809.0, 809.0, 810.0, 811.0, 811.0, 814.0, 810.0, 812.0, 814.0, 809.0, 810.0, 807.0, 809.0, 809.0, 803.0, 803.0, 801.0, 804.0, 806.0, 807.0, 806.0, 807.0, 805.0, 810.0, 806.0, 805.0, 806.0, 806.0, 807.0, 808.0, 808.0, 813.0, 810.0, 809.0, 810.0, 812.0, 806.0, 806.0, 807.0, 809.0, 808.0, 807.0, 806.0, 809.0, 808.0, 808.0, 808.0, 808.0, 811.0, 808.0, 810.0, 814.0, 811.0, 810.0, 807.0, 809.0, 805.0, 805.0, 806.0, 810.0, 808.0, 807.0, 810.0, 808.0, 806.0, 804.0, 810.0, 806.0, 805.0, 805.0, 807.0, 808.0, 804.0, 805.0, 803.0, 808.0, 805.0, 803.0, 807.0, 810.0, 805.0, 804.0, 804.0, 806.0, 807.0, 807.0, 806.0, 810.0, 810.0, 812.0, 811.0, 813.0, 810.0, 807.0, 811.0, 812.0, 808.0, 808.0, 810.0, 809.0, 807.0, 808.0, 812.0, 808.0, 806.0, 809.0, 808.0, 806.0, 805.0, 809.0, 809.0, 808.0, 809.0, 810.0, 806.0, 807.0, 810.0, 809.0, 809.0, 808.0, 813.0, 809.0, 809.0, 811.0, 810.0, 808.0, 807.0, 804.0, 810.0, 807.0, 806.0, 806.0, 807.0, 808.0, 805.0, 804.0, 805.0, 808.0, 807.0, 809.0, 810.0, 809.0, 812.0, 813.0, 814.0, 813.0, 810.0, 807.0, 811.0, 809.0, 806.0, 806.0, 804.0, 810.0, 806.0, 807.0, 807.0, 810.0, 806.0, 805.0, 808.0, 808.0, 807.0, 808.0, 804.0, 809.0, 807.0, 807.0, 812.0, 810.0, 810.0, 810.0, 811.0, 807.0, 805.0, 812.0, 807.0, 806.0, 813.0, 806.0, 808.0, 810.0, 807.0, 806.0, 809.0, 806.0, 805.0, 810.0, 807.0, 807.0, 807.0, 805.0, 805.0]
    },
    "slices": {}
  }
}