{
  "AcquisitionMatrixPE": 96,
  "AcquisitionNumber": 1,
  "AcquisitionTime": "17:57:59.097500",
  "BandwidthPerPixelPhaseEncode": 18.939,
  "BaseResolution": 96,
  "BodyPartExamined": "BRAIN",
  "ConsistencyInfo": "N4_VE11C_LATEST_20160120",
  "ConversionSoftware": "dcm2niix",
  "ConversionSoftwareVersion": "v1.0.20170923 (OpenJPEG build) GCC6.3.0",
  "DerivedVendorReportedEchoSpacing": 0.000550011,
  "DeviceSerialNumber": "66112",
  "DwellTime": 2.3e-06,
  "EchoTime": 0.033,
  "EchoTrainLength": 96,
  "EffectiveEchoSpacing": 0.000550011,
  "FlipAngle": 64,
  "ImageType": [
    "ORIGINAL",
    "PRIMARY",
    "FMRI",
    "NONE",
    "ND",
    "NORM",
    "MOSAIC"
],
  "InstitutionAddress": "Maynard_3_Hanover_NH_US_03755",
  "InstitutionName": "Dartmouth_College_-_PBS",
  "MagneticFieldStrength": 3,
  "Manufacturer": "Siemens",
  "ManufacturersModelName": "Prisma",
  "Modality": "MR",
  "MultibandAccelerationFactor": 4,
  "PartialFourier": 1,
  "PercentPhaseFOV": 100,
  "PhaseEncodingDirection": "j-",
  "PhaseEncodingSteps": 96,
  "PhaseResolution": 1,
  "ProcedureStepDescription": "Gobbini_Matteo_1017_famface-angles",
  "ProtocolName": "func_run-07_task-str1back",
  "PulseSequenceDetails": "%SiemensSeq%_ep2d_bold",
  "ReceiveCoilActiveElements": "HEA;HEP",
  "ReceiveCoilName": "Head_32",
  "ReconMatrixPE": 96,
  "RepetitionTime": 1.25,
  "ScanOptions": "FS",
  "ScanningSequence": "EP",
  "SequenceName": "_epfid2d1_96",
  "SequenceVariant": "SK",
  "SeriesDescription": "func_run-07_task-str1back",
  "SliceTiming": [0.8775, 0, 0.615, 0.0875, 0.7025, 0.175, 0.79, 0.35, 0.965, 0.44, 1.0525, 0.5275, 1.1425, 0.2625, 0.8775, 0, 0.615, 0.0875, 0.7025, 0.175, 0.79, 0.35, 0.965, 0.44, 1.0525, 0.5275, 1.1425, 0.2625, 0.8775, 0, 0.615, 0.0875, 0.7025, 0.175, 0.79, 0.35, 0.965, 0.44, 1.0525, 0.5275, 1.1425, 0.2625, 0.8775, 0, 0.615, 0.0875, 0.7025, 0.175, 0.79, 0.35, 0.965, 0.44, 1.0525, 0.5275, 1.1425, 0.2625],
  "SoftwareVersions": "syngo_MR_E11",
  "StationName": "AWP66112",
  "TaskName": "str1back",
  "TotalReadoutTime": 0.0522511,
  "dcmmeta_affine": [
    [-2.4995503425598145, -0.042320720851421356, -0.0213693305850029, 119.49958038330078],
    [-0.04386705160140991, 2.491920232772827, 0.19598422944545746, -101.56809997558594],
    [-0.017982587218284607, -0.1963239461183548, 2.4922146797180176, -50.92919158935547],
    [0.0, 0.0, 0.0, 1.0]
],
  "dcmmeta_reorient_transform": [
    [0.0, -1.0, 0.0, 95.0],
    [1.0, 0.0, 0.0, 0.0],
    [0.0, 0.0, 1.0, 0.0],
    [0.0, 0.0, 0.0, 1.0]
],
  "dcmmeta_shape": [96, 96, 56, 280],
  "dcmmeta_slice_dim": 2,
  "dcmmeta_version": 0.6,
  "global": {
    "const": {
      "AccessionNumber": "A000489",
      "AcquisitionMatrix": [96, 0, 0, 96],
      "AngioFlag": "N",
      "BitsAllocated": 16,
      "BitsStored": 12,
      "BodyPartExamined": "BRAIN",
      "Columns": 768,
      "EchoNumbers": 1,
      "EchoTime": 33.0,
      "EchoTrainLength": 96,
      "FlipAngle": 64.0,
      "HighBit": 11,
      "ImageOrientationPatient": [0.99982016850186, 0.01754682031476, -0.007193035086, -0.0169282880447, 0.99676804653708, 0.07852957701737],
      "ImagePositionPatient": [-941.10829375702, -987.18879679782, -129.50266109514],
      "ImageType": [
        "ORIGINAL",
        "PRIMARY",
        "FMRI",
        "NONE",
        "ND",
        "NORM",
        "MOSAIC"
],
      "ImagedNucleus": "1H",
      "ImagingFrequency": 123.252549,
      "InPlanePhaseEncodingDirection": "COL",
      "MRAcquisitionType": "2D",
      "MagneticFieldStrength": 3.0,
      "Manufacturer": "SIEMENS",
      "ManufacturerModelName": "Prisma",
      "Modality": "MR",
      "NumberOfAverages": 1.0,
      "NumberOfPhaseEncodingSteps": 96,
      "PercentPhaseFieldOfView": 100.0,
      "PercentSampling": 100.0,
      "PerformedProcedureStepStartTime": "170720.360000",
      "PhotometricInterpretation": "MONOCHROME2",
      "PixelBandwidth": 2265.0,
      "PixelRepresentation": 0,
      "PixelSpacing": [2.5, 2.5],
      "PositionReferenceIndicator": "",
      "ProtocolName": "func_run-07_task-str1back",
      "RepetitionTime": 1250.0,
      "Rows": 768,
      "SAR": 0.04777419041936,
      "SamplesPerPixel": 1,
      "ScanOptions": "FS",
      "ScanningSequence": "EP",
      "SequenceName": "*epfid2d1_96",
      "SequenceVariant": "SK",
      "SeriesDescription": "func_run-07_task-str1back",
      "SeriesNumber": 50,
      "SeriesTime": "175800.628000",
      "SliceLocation": -59.754338012404,
      "SliceThickness": 2.5,
      "SmallestImagePixelValue": 0,
      "SoftwareVersions": "syngo MR E11",
      "SpacingBetweenSlices": 2.5000000336875,
      "SpecificCharacterSet": "ISO_IR 100",
      "StudyID": "1",
      "StudyTime": "170720.301000",
      "TransmitCoilName": "Body",
      "VariableFlipAngleFlag": "N",
      "WindowCenterWidthExplanation": "Algo1",
      "dBdt": 0.0},
    "slices": {}
  },
  "time": {
    "samples": {
      "AcquisitionNumber": [1, 2, 3, 4, 5, 6, 7, 8, 9, 10, 11, 12, 13, 14, 15, 16, 17, 18, 19, 20, 21, 22, 23, 24, 25, 26, 27, 28, 29, 30, 31, 32, 33, 34, 35, 36, 37, 38, 39, 40, 41, 42, 43, 44, 45, 46, 47, 48, 49, 50, 51, 52, 53, 54, 55, 56, 57, 58, 59, 60, 61, 62, 63, 64, 65, 66, 67, 68, 69, 70, 71, 72, 73, 74, 75, 76, 77, 78, 79, 80, 81, 82, 83, 84, 85, 86, 87, 88, 89, 90, 91, 92, 93, 94, 95, 96, 97, 98, 99, 100, 101, 102, 103, 104, 105, 106, 107, 108, 109, 110, 111, 112, 113, 114, 115, 116, 117, 118, 119, 120, 121, 122, 123, 124, 125, 126, 127, 128, 129, 130, 131, 132, 133, 134, 135, 136, 137, 138, 139, 140, 141, 142, 143, 144, 145, 146, 147, 148, 149, 150, 151, 152, 153, 154, 155, 156, 157, 158, 159, 160, 161, 162, 163, 164, 165, 166, 167, 168, 169, 170, 171, 172, 173, 174, 175, 176, 177, 178, 179, 180, 181, 182, 183, 184, 185, 186, 187, 188, 189, 190, 191, 192, 193, 194, 195, 196, 197, 198, 199, 200, 201, 202, 203, 204, 205, 206, 207, 208, 209, 210, 211, 212, 213, 214, 215, 216, 217, 218, 219, 220, 221, 222, 223, 224, 225, 226, 227, 228, 229, 230, 231, 232, 233, 234, 235, 236, 237, 238, 239, 240, 241, 242, 243, 244, 245, 246, 247, 248, 249, 250, 251, 252, 253, 254, 255, 256, 257, 258, 259, 260, 261, 262, 263, 264, 265, 266, 267, 268, 269, 270, 271, 272, 273, 274, 275, 276, 277, 278, 279, 280],
      "AcquisitionTime": ["175759.097500", "175800.347500", "175801.597500", "175802.847500", "175804.097500", "175805.347500", "175806.597500", "175807.847500", "175809.097500", "175810.347500", "175811.597500", "175812.847500", "175814.097500", "175815.347500", "175816.597500", "175817.847500", "175819.097500", "175820.347500", "175821.597500", "175822.847500", "175824.097500", "175825.347500", "175826.597500", "175827.847500", "175829.097500", "175830.347500", "175831.597500", "175832.847500", "175834.097500", "175835.347500", "175836.597500", "175837.847500", "175839.097500", "175840.347500", "175841.597500", "175842.847500", "175844.097500", "175845.347500", "175846.597500", "175847.847500", "175849.097500", "175850.347500", "175851.597500", "175852.847500", "175854.097500", "175855.347500", "175856.597500", "175857.847500", "175859.097500", "175900.347500", "175901.597500", "175902.847500", "175904.097500", "175905.347500", "175906.597500", "175907.847500", "175909.097500", "175910.347500", "175911.597500", "175912.847500", "175914.097500", "175915.347500", "175916.597500", "175917.847500", "175919.097500", "175920.347500", "175921.597500", "175922.847500", "175924.097500", "175925.347500", "175926.597500", "175927.847500", "175929.097500", "175930.347500", "175931.597500", "175932.847500", "175934.097500", "175935.347500", "175936.597500", "175937.847500", "175939.097500", "175940.347500", "175941.597500", "175942.847500", "175944.097500", "175945.347500", "175946.597500", "175947.847500", "175949.097500", "175950.347500", "175951.597500", "175952.847500", "175954.097500", "175955.347500", "175956.597500", "175957.847500", "175959.097500", "180000.347500", "180001.597500", "180002.847500", "180004.097500", "180005.347500", "180006.597500", "180007.847500", "180009.097500", "180010.347500", "180011.597500", "180012.847500", "180014.097500", "180015.347500", "180016.597500", "180017.847500", "180019.097500", "180020.347500", "180021.597500", "180022.847500", "180024.097500", "180025.347500", "180026.597500", "180027.847500", "180029.097500", "180030.347500", "180031.597500", "180032.847500", "180034.097500", "180035.347500", "180036.597500", "180037.847500", "180039.097500", "180040.347500", "180041.597500", "180042.847500", "180044.097500", "180045.347500", "180046.597500", "180047.847500", "180049.097500", "180050.347500", "180051.597500", "180052.847500", "180054.097500", "180055.347500", "180056.597500", "180057.847500", "180059.097500", "180100.347500", "180101.597500", "180102.847500", "180104.097500", "180105.347500", "180106.597500", "180107.847500", "180109.097500", "180110.347500", "180111.597500", "180112.847500", "180114.097500", "180115.347500", "180116.597500", "180117.847500", "180119.097500", "180120.347500", "180121.597500", "180122.847500", "180124.097500", "180125.347500", "180126.597500", "180127.847500", "180129.097500", "180130.347500", "180131.597500", "180132.847500", "180134.097500", "180135.347500", "180136.597500", "180137.847500", "180139.097500", "180140.347500", "180141.597500", "180142.847500", "180144.097500", "180145.347500", "180146.597500", "180147.847500", "180149.097500", "180150.347500", "180151.597500", "180152.847500", "180154.097500", "180155.347500", "180156.597500", "180157.847500", "180159.097500", "180200.347500", "180201.597500", "180202.847500", "180204.097500", "180205.347500", "180206.597500", "180207.847500", "180209.097500", "180210.347500", "180211.597500", "180212.847500", "180214.097500", "180215.347500", "180216.597500", "180217.847500", "180219.097500", "180220.347500", "180221.597500", "180222.847500", "180224.097500", "180225.347500", "180226.597500", "180227.847500", "180229.097500", "180230.347500", "180231.597500", "180232.847500", "180234.097500", "180235.347500", "180236.597500", "180237.847500", "180239.097500", "180240.347500", "180241.597500", "180242.847500", "180244.097500", "180245.347500", "180246.597500", "180247.847500", "180249.097500", "180250.347500", "180251.597500", "180252.847500", "180254.097500", "180255.347500", "180256.597500", "180257.847500", "180259.097500", "180300.347500", "180301.597500", "180302.847500", "180304.097500", "180305.347500", "180306.597500", "180307.847500", "180309.097500", "180310.347500", "180311.597500", "180312.847500", "180314.097500", "180315.347500", "180316.597500", "180317.847500", "180319.097500", "180320.347500", "180321.597500", "180322.847500", "180324.097500", "180325.347500", "180326.597500", "180327.847500", "180329.097500", "180330.347500", "180331.597500", "180332.847500", "180334.097500", "180335.347500", "180336.597500", "180337.847500", "180339.097500", "180340.347500", "180341.597500", "180342.847500", "180344.097500", "180345.347500", "180346.597500", "180347.847500"],
      "ContentTime": ["175800.634000", "175801.732000", "175802.975000", "175804.258000", "175805.456000", "175806.708000", "175807.948000", "175809.217000", "175810.486000", "175811.707000", "175812.939000", "175814.213000", "175815.460000", "175816.733000", "175817.987000", "175819.219000", "175820.452000", "175821.700000", "175823.021000", "175824.194000", "175825.448000", "175826.713000", "175827.971000", "175829.196000", "175830.434000", "175831.728000", "175832.998000", "175834.218000", "175835.469000", "175836.721000", "175838.011000", "175839.207000", "175840.486000", "175841.729000", "175842.946000", "175844.204000", "175845.475000", "175846.708000", "175847.941000", "175849.240000", "175850.465000", "175851.744000", "175852.972000", "175854.212000", "175855.467000", "175856.745000", "175857.959000", "175859.188000", "175900.473000", "175901.748000", "175903.028000", "175904.206000", "175905.462000", "175906.718000", "175907.979000", "175909.200000", "175910.479000", "175911.712000", "175912.951000", "175914.220000", "175915.465000", "175916.712000", "175918.036000", "175919.180000", "175920.460000", "175921.708000", "175922.970000", "175924.226000", "175925.470000", "175926.794000", "175927.944000", "175929.281000", "175930.447000", "175931.717000", "175932.968000", "175934.230000", "175935.466000", "175936.725000", "175938.004000", "175939.207000", "175940.479000", "175941.690000", "175942.960000", "175944.254000", "175945.498000", "175946.706000", "175948.012000", "175949.229000", "175950.454000", "175951.693000", "175953.010000", "175954.203000", "175955.468000", "175956.705000", "175957.962000", "175959.228000", "180000.455000", "180001.708000", "180002.959000", "180004.225000", "180005.483000", "180006.714000", "180007.967000", "180009.246000", "180010.464000", "180011.712000", "180012.987000", "180014.226000", "180015.453000", "180016.734000", "180017.971000", "180019.294000", "180020.502000", "180021.693000", "180022.986000", "180024.250000", "180025.494000", "180026.713000", "180027.973000", "180029.192000", "180030.486000", "180031.745000", "180033.011000", "180034.246000", "180035.470000", "180036.712000", "180038.042000", "180039.233000", "180040.457000", "180041.723000", "180042.988000", "180044.227000", "180045.483000", "180046.707000", "180047.979000", "180049.267000", "180050.478000", "180051.722000", "180052.974000", "180054.219000", "180055.478000", "180056.725000", "180057.961000", "180059.250000", "180100.473000", "180101.682000", "180102.997000", "180104.267000", "180105.461000", "180106.771000", "180107.992000", "180109.220000", "180110.481000", "180111.708000", "180112.989000", "180114.243000", "180115.506000", "180116.728000", "180117.978000", "180119.201000", "180120.485000", "180121.720000", "180122.964000", "180124.187000", "180125.495000", "180126.720000", "180127.984000", "180129.223000", "180130.493000", "180131.737000", "180132.931000", "180134.220000", "180135.504000", "180136.709000", "180137.956000", "180139.223000", "180140.485000", "180141.746000", "180143.032000", "180144.261000", "180145.463000", "180146.717000", "180148.007000", "180149.245000", "180150.511000", "180151.736000", "180152.992000", "180154.209000", "180155.494000", "180156.752000", "180157.957000", "180159.202000", "180200.469000", "180201.689000", "180202.980000", "180204.227000", "180205.458000", "180206.734000", "180207.962000", "180209.227000", "180210.466000", "180211.714000", "180213.033000", "180214.242000", "180215.484000", "180216.751000", "180217.981000", "180219.209000", "180220.480000", "180221.748000", "180222.966000", "180224.207000", "180225.477000", "180226.735000", "180227.943000", "180229.221000", "180230.479000", "180231.729000", "180232.970000", "180234.221000", "180235.479000", "180236.715000", "180238.001000", "180239.279000", "180240.516000", "180241.732000", "180242.963000", "180244.224000", "180245.485000", "180246.712000", "180247.982000", "180249.225000", "180250.508000", "180251.727000", "180252.953000", "180254.210000", "180255.477000", "180256.704000", "180257.994000", "180259.245000", "180300.458000", "180301.721000", "180303.003000", "180304.221000", "180305.485000", "180306.751000", "180307.963000", "180309.214000", "180310.482000", "180311.733000", "180312.956000", "180314.210000", "180315.456000", "180316.744000", "180317.957000", "180319.219000", "180320.485000", "180321.772000", "180322.958000", "180324.224000", "180325.466000", "180326.762000", "180327.972000", "180329.246000", "180330.437000", "180331.710000", "180332.980000", "180334.221000", "180335.481000", "180336.705000", "180337.987000", "180339.218000", "180340.479000", "180341.703000", "180342.931000", "180344.222000", "180345.486000", "180346.745000", "180348.003000", "180349.285000"],
      "InstanceCreationTime": ["175800.634000", "175801.732000", "175802.975000", "175804.258000", "175805.456000", "175806.708000", "175807.948000", "175809.217000", "175810.486000", "175811.707000", "175812.939000", "175814.213000", "175815.460000", "175816.733000", "175817.987000", "175819.219000", "175820.452000", "175821.700000", "175823.021000", "175824.194000", "175825.448000", "175826.713000", "175827.971000", "175829.196000", "175830.434000", "175831.728000", "175832.998000", "175834.218000", "175835.469000", "175836.721000", "175838.011000", "175839.207000", "175840.486000", "175841.729000", "175842.946000", "175844.204000", "175845.475000", "175846.708000", "175847.941000", "175849.240000", "175850.465000", "175851.744000", "175852.972000", "175854.212000", "175855.467000", "175856.745000", "175857.959000", "175859.188000", "175900.473000", "175901.748000", "175903.028000", "175904.206000", "175905.462000", "175906.718000", "175907.979000", "175909.200000", "175910.479000", "175911.712000", "175912.951000", "175914.220000", "175915.465000", "175916.712000", "175918.036000", "175919.180000", "175920.460000", "175921.708000", "175922.970000", "175924.226000", "175925.470000", "175926.794000", "175927.944000", "175929.281000", "175930.447000", "175931.717000", "175932.968000", "175934.230000", "175935.466000", "175936.725000", "175938.004000", "175939.207000", "175940.479000", "175941.690000", "175942.960000", "175944.254000", "175945.498000", "175946.706000", "175948.012000", "175949.229000", "175950.454000", "175951.693000", "175953.010000", "175954.203000", "175955.468000", "175956.705000", "175957.962000", "175959.228000", "180000.455000", "180001.708000", "180002.959000", "180004.225000", "180005.483000", "180006.714000", "180007.967000", "180009.246000", "180010.464000", "180011.712000", "180012.987000", "180014.226000", "180015.453000", "180016.734000", "180017.971000", "180019.294000", "180020.502000", "180021.693000", "180022.986000", "180024.250000", "180025.494000", "180026.713000", "180027.973000", "180029.192000", "180030.486000", "180031.745000", "180033.011000", "180034.246000", "180035.470000", "180036.712000", "180038.042000", "180039.233000", "180040.457000", "180041.723000", "180042.988000", "180044.227000", "180045.483000", "180046.707000", "180047.979000", "180049.267000", "180050.478000", "180051.722000", "180052.974000", "180054.219000", "180055.478000", "180056.725000", "180057.961000", "180059.250000", "180100.473000", "180101.682000", "180102.997000", "180104.267000", "180105.461000", "180106.771000", "180107.992000", "180109.220000", "180110.481000", "180111.708000", "180112.989000", "180114.243000", "180115.506000", "180116.728000", "180117.978000", "180119.201000", "180120.485000", "180121.720000", "180122.964000", "180124.187000", "180125.495000", "180126.720000", "180127.984000", "180129.223000", "180130.493000", "180131.737000", "180132.931000", "180134.220000", "180135.504000", "180136.709000", "180137.956000", "180139.223000", "180140.485000", "180141.746000", "180143.032000", "180144.261000", "180145.463000", "180146.717000", "180148.007000", "180149.245000", "180150.511000", "180151.736000", "180152.992000", "180154.209000", "180155.494000", "180156.752000", "180157.957000", "180159.202000", "180200.469000", "180201.689000", "180202.980000", "180204.227000", "180205.458000", "180206.734000", "180207.962000", "180209.227000", "180210.466000", "180211.714000", "180213.033000", "180214.242000", "180215.484000", "180216.751000", "180217.981000", "180219.209000", "180220.480000", "180221.748000", "180222.966000", "180224.207000", "180225.477000", "180226.735000", "180227.943000", "180229.221000", "180230.479000", "180231.729000", "180232.970000", "180234.221000", "180235.479000", "180236.715000", "180238.001000", "180239.279000", "180240.516000", "180241.732000", "180242.963000", "180244.224000", "180245.485000", "180246.712000", "180247.982000", "180249.225000", "180250.508000", "180251.727000", "180252.953000", "180254.210000", "180255.477000", "180256.704000", "180257.994000", "180259.245000", "180300.458000", "180301.721000", "180303.003000", "180304.221000", "180305.485000", "180306.751000", "180307.963000", "180309.214000", "180310.482000", "180311.733000", "180312.956000", "180314.210000", "180315.456000", "180316.744000", "180317.957000", "180319.219000", "180320.485000", "180321.772000", "180322.958000", "180324.224000", "180325.466000", "180326.762000", "180327.972000", "180329.246000", "180330.437000", "180331.710000", "180332.980000", "180334.221000", "180335.481000", "180336.705000", "180337.987000", "180339.218000", "180340.479000", "180341.703000", "180342.931000", "180344.222000", "180345.486000", "180346.745000", "180348.003000", "180349.285000"],
      "InstanceNumber": [1, 2, 3, 4, 5, 6, 7, 8, 9, 10, 11, 12, 13, 14, 15, 16, 17, 18, 19, 20, 21, 22, 23, 24, 25, 26, 27, 28, 29, 30, 31, 32, 33, 34, 35, 36, 37, 38, 39, 40, 41, 42, 43, 44, 45, 46, 47, 48, 49, 50, 51, 52, 53, 54, 55, 56, 57, 58, 59, 60, 61, 62, 63, 64, 65, 66, 67, 68, 69, 70, 71, 72, 73, 74, 75, 76, 77, 78, 79, 80, 81, 82, 83, 84, 85, 86, 87, 88, 89, 90, 91, 92, 93, 94, 95, 96, 97, 98, 99, 100, 101, 102, 103, 104, 105, 106, 107, 108, 109, 110, 111, 112, 113, 114, 115, 116, 117, 118, 119, 120, 121, 122, 123, 124, 125, 126, 127, 128, 129, 130, 131, 132, 133, 134, 135, 136, 137, 138, 139, 140, 141, 142, 143, 144, 145, 146, 147, 148, 149, 150, 151, 152, 153, 154, 155, 156, 157, 158, 159, 160, 161, 162, 163, 164, 165, 166, 167, 168, 169, 170, 171, 172, 173, 174, 175, 176, 177, 178, 179, 180, 181, 182, 183, 184, 185, 186, 187, 188, 189, 190, 191, 192, 193, 194, 195, 196, 197, 198, 199, 200, 201, 202, 203, 204, 205, 206, 207, 208, 209, 210, 211, 212, 213, 214, 215, 216, 217, 218, 219, 220, 221, 222, 223, 224, 225, 226, 227, 228, 229, 230, 231, 232, 233, 234, 235, 236, 237, 238, 239, 240, 241, 242, 243, 244, 245, 246, 247, 248, 249, 250, 251, 252, 253, 254, 255, 256, 257, 258, 259, 260, 261, 262, 263, 264, 265, 266, 267, 268, 269, 270, 271, 272, 273, 274, 275, 276, 277, 278, 279, 280],
      "LargestImagePixelValue": [912, 1110, 877, 1070, 1187, 1028, 1135, 1188, 989, 1043, 1169, 838, 1036, 1153, 771, 1040, 1198, 851, 1065, 935, 1031, 1205, 855, 1065, 1221, 816, 1100, 935, 1011, 1190, 943, 986, 1195, 782, 1093, 1209, 1046, 1043, 1191, 1206, 876, 975, 1159, 817, 1050, 1167, 904, 1051, 1140, 1198, 939, 1154, 830, 989, 1177, 811, 1056, 1247, 977, 1170, 909, 1059, 1168, 875, 1079, 1175, 804, 1067, 885, 1007, 1214, 805, 1071, 1190, 935, 1009, 1200, 821, 1096, 1265, 951, 1204, 833, 1058, 821, 1158, 887, 1115, 1205, 879, 1101, 871, 1020, 1213, 905, 1021, 1178, 945, 1025, 1230, 886, 1175, 887, 1025, 1121, 1201, 836, 1085, 1204, 854, 1085, 1018, 1026, 1184, 817, 1036, 1249, 834, 1058, 1219, 929, 1010, 1233, 1016, 935, 1070, 1208, 781, 1012, 1193, 777, 1078, 1187, 899, 1016, 1190, 919, 980, 1234, 785, 1134, 1208, 990, 1215, 816, 1136, 927, 1011, 1260, 988, 1052, 1185, 870, 990, 955, 988, 1199, 897, 1063, 1178, 1017, 986, 1226, 903, 1025, 1192, 828, 1064, 1154, 1030, 954, 1203, 755, 1157, 889, 1066, 1208, 1008, 1055, 1184, 915, 983, 1203, 805, 1073, 999, 972, 1157, 799, 1048, 899, 965, 1233, 944, 1227, 853, 1110, 976, 1019, 1213, 930, 1074, 914, 1020, 1156, 792, 1176, 795, 1133, 970, 1061, 1209, 994, 1030, 1187, 861, 1140, 816, 1048, 1200, 957, 1205, 1015, 1181, 990, 1163, 952, 1041, 1207, 929, 1148, 857, 1087, 955, 971, 1247, 938, 1088, 1205, 877, 1090, 1228, 811, 998, 1216, 784, 1118, 1244, 963, 1127, 908, 995, 1198, 906, 1060, 1209, 1131, 937, 1038, 1241, 856, 1075, 946, 850, 1077, 1237, 975, 1136, 953, 988, 1011, 1132, 964, 1046, 1119, 999, 1064, 1185, 954, 1126],
      "WindowCenter": [384.0, 383.0, 381.0, 383.0, 383.0, 380.0, 381.0, 380.0, 378.0, 379.0, 380.0, 376.0, 378.0, 380.0, 377.0, 380.0, 382.0, 379.0, 381.0, 381.0, 380.0, 382.0, 380.0, 381.0, 384.0, 379.0, 383.0, 382.0, 382.0, 383.0, 381.0, 381.0, 384.0, 379.0, 383.0, 384.0, 382.0, 381.0, 381.0, 382.0, 380.0, 380.0, 382.0, 380.0, 382.0, 382.0, 379.0, 382.0, 381.0, 381.0, 380.0, 381.0, 380.0, 381.0, 383.0, 379.0, 382.0, 382.0, 381.0, 383.0, 379.0, 380.0, 382.0, 379.0, 381.0, 381.0, 377.0, 381.0, 379.0, 382.0, 384.0, 380.0, 381.0, 382.0, 381.0, 381.0, 383.0, 379.0, 381.0, 382.0, 380.0, 383.0, 381.0, 382.0, 380.0, 382.0, 381.0, 383.0, 381.0, 379.0, 380.0, 380.0, 381.0, 383.0, 379.0, 381.0, 382.0, 379.0, 380.0, 382.0, 380.0, 383.0, 381.0, 381.0, 381.0, 382.0, 378.0, 381.0, 381.0, 379.0, 381.0, 380.0, 381.0, 383.0, 378.0, 382.0, 383.0, 380.0, 382.0, 383.0, 381.0, 380.0, 382.0, 380.0, 380.0, 380.0, 382.0, 377.0, 381.0, 383.0, 379.0, 382.0, 383.0, 380.0, 381.0, 383.0, 380.0, 381.0, 382.0, 379.0, 383.0, 382.0, 380.0, 384.0, 380.0, 383.0, 381.0, 382.0, 384.0, 380.0, 381.0, 382.0, 380.0, 379.0, 381.0, 380.0, 382.0, 380.0, 382.0, 383.0, 380.0, 379.0, 381.0, 380.0, 381.0, 382.0, 379.0, 382.0, 382.0, 380.0, 379.0, 383.0, 379.0, 384.0, 381.0, 384.0, 383.0, 381.0, 381.0, 382.0, 380.0, 381.0, 382.0, 379.0, 382.0, 382.0, 380.0, 383.0, 380.0, 382.0, 381.0, 382.0, 384.0, 381.0, 383.0, 379.0, 382.0, 381.0, 380.0, 382.0, 380.0, 381.0, 379.0, 381.0, 382.0, 379.0, 383.0, 379.0, 383.0, 382.0, 381.0, 382.0, 381.0, 379.0, 381.0, 378.0, 382.0, 379.0, 382.0, 381.0, 381.0, 383.0, 382.0, 383.0, 381.0, 381.0, 380.0, 380.0, 382.0, 379.0, 382.0, 380.0, 382.0, 380.0, 381.0, 383.0, 379.0, 381.0, 381.0, 380.0, 380.0, 381.0, 378.0, 381.0, 382.0, 379.0, 382.0, 383.0, 381.0, 381.0, 380.0, 381.0, 382.0, 380.0, 381.0, 381.0, 380.0, 379.0, 381.0, 382.0, 379.0, 383.0, 381.0, 379.0, 382.0, 383.0, 381.0, 383.0, 383.0, 384.0, 383.0, 383.0, 381.0, 382.0, 381.0, 379.0, 379.0, 380.0, 378.0, 380.0],
      "WindowWidth": [816.0, 813.0, 810.0, 813.0, 812.0, 807.0, 810.0, 808.0, 805.0, 805.0, 807.0, 801.0, 804.0, 807.0, 804.0, 808.0, 811.0, 807.0, 810.0, 810.0, 808.0, 812.0, 809.0, 810.0, 814.0, 806.0, 813.0, 812.0, 810.0, 813.0, 809.0, 810.0, 814.0, 807.0, 813.0, 814.0, 811.0, 811.0, 809.0, 811.0, 808.0, 808.0, 811.0, 808.0, 810.0, 811.0, 807.0, 811.0, 808.0, 809.0, 808.0, 809.0, 808.0, 810.0, 813.0, 808.0, 811.0, 810.0, 811.0, 813.0, 807.0, 808.0, 812.0, 806.0, 810.0, 808.0, 803.0, 809.0, 807.0, 812.0, 814.0, 809.0, 810.0, 811.0, 810.0, 811.0, 812.0, 808.0, 809.0, 811.0, 808.0, 813.0, 810.0, 812.0, 809.0, 812.0, 810.0, 814.0, 810.0, 806.0, 807.0, 809.0, 809.0, 813.0, 807.0, 809.0, 811.0, 807.0, 807.0, 810.0, 809.0, 812.0, 810.0, 809.0, 810.0, 812.0, 804.0, 810.0, 809.0, 807.0, 810.0, 808.0, 810.0, 813.0, 805.0, 812.0, 813.0, 809.0, 811.0, 813.0, 810.0, 809.0, 811.0, 808.0, 809.0, 807.0, 811.0, 804.0, 810.0, 813.0, 808.0, 811.0, 813.0, 808.0, 810.0, 813.0, 809.0, 809.0, 810.0, 808.0, 813.0, 811.0, 808.0, 814.0, 809.0, 814.0, 809.0, 812.0, 814.0, 808.0, 810.0, 812.0, 808.0, 807.0, 809.0, 808.0, 811.0, 809.0, 811.0, 812.0, 807.0, 806.0, 809.0, 809.0, 810.0, 811.0, 807.0, 811.0, 812.0, 808.0, 806.0, 813.0, 807.0, 815.0, 811.0, 814.0, 813.0, 810.0, 810.0, 811.0, 808.0, 810.0, 812.0, 808.0, 811.0, 811.0, 809.0, 813.0, 809.0, 812.0, 811.0, 812.0, 815.0, 809.0, 814.0, 806.0, 812.0, 810.0, 807.0, 812.0, 809.0, 810.0, 806.0, 809.0, 811.0, 806.0, 812.0, 808.0, 813.0, 811.0, 810.0, 812.0, 809.0, 806.0, 808.0, 804.0, 811.0, 807.0, 812.0, 810.0, 810.0, 813.0, 811.0, 813.0, 810.0, 809.0, 809.0, 808.0, 812.0, 806.0, 811.0, 808.0, 812.0, 808.0, 810.0, 813.0, 807.0, 810.0, 808.0, 808.0, 808.0, 809.0, 806.0, 809.0, 811.0, 806.0, 811.0, 813.0, 810.0, 809.0, 808.0, 810.0, 810.0, 809.0, 810.0, 809.0, 807.0, 807.0, 809.0, 810.0, 806.0, 812.0, 810.0, 806.0, 811.0, 813.0, 810.0, 813.0, 813.0, 815.0, 813.0, 814.0, 810.0, 811.0, 810.0, 807.0, 806.0, 807.0, 804.0, 807.0]
    },
    "slices": {}
  }
}