{
  "AcquisitionMatrixPE": 96,
  "AcquisitionNumber": 1,
  "AcquisitionTime": "17:17:42.032500",
  "BandwidthPerPixelPhaseEncode": 18.939,
  "BaseResolution": 96,
  "BodyPartExamined": "BRAIN",
  "ConsistencyInfo": "N4_VE11C_LATEST_20160120",
  "ConversionSoftware": "dcm2niix",
  "ConversionSoftwareVersion": "v1.0.20170923 (OpenJPEG build) GCC6.3.0",
  "DerivedVendorReportedEchoSpacing": 0.000550011,
  "DeviceSerialNumber": "66112",
  "DwellTime": 2.3e-06,
  "EchoTime": 0.033,
  "EchoTrainLength": 96,
  "EffectiveEchoSpacing": 0.000550011,
  "FlipAngle": 64,
  "ImageType": [
    "ORIGINAL",
    "PRIMARY",
    "FMRI",
    "NONE",
    "ND",
    "NORM",
    "MOSAIC"
],
  "InstitutionAddress": "Maynard_3_Hanover_NH_US_03755",
  "InstitutionName": "Dartmouth_College_-_PBS",
  "MagneticFieldStrength": 3,
  "Manufacturer": "Siemens",
  "ManufacturersModelName": "Prisma",
  "Modality": "MR",
  "MultibandAccelerationFactor": 4,
  "PartialFourier": 1,
  "PercentPhaseFOV": 100,
  "PhaseEncodingDirection": "j-",
  "PhaseEncodingSteps": 96,
  "PhaseResolution": 1,
  "ProcedureStepDescription": "Gobbini_Matteo_1017_famface-angles",
  "ProtocolName": "func_run-01_task-fam1back",
  "PulseSequenceDetails": "%SiemensSeq%_ep2d_bold",
  "ReceiveCoilActiveElements": "HEA;HEP",
  "ReceiveCoilName": "Head_32",
  "ReconMatrixPE": 96,
  "RepetitionTime": 1.25,
  "ScanOptions": "FS",
  "ScanningSequence": "EP",
  "SequenceName": "_epfid2d1_96",
  "SequenceVariant": "SK",
  "SeriesDescription": "func_run-01_task-fam1back",
  "SliceTiming": [0.88, 0, 0.615, 0.0875, 0.7025, 0.175, 0.79, 0.3525, 0.9675, 0.44, 1.055, 0.5275, 1.1425, 0.265, 0.88, 0, 0.615, 0.0875, 0.7025, 0.175, 0.79, 0.3525, 0.9675, 0.44, 1.055, 0.5275, 1.1425, 0.265, 0.88, 0, 0.615, 0.0875, 0.7025, 0.175, 0.79, 0.3525, 0.9675, 0.44, 1.055, 0.5275, 1.1425, 0.265, 0.88, 0, 0.615, 0.0875, 0.7025, 0.175, 0.79, 0.3525, 0.9675, 0.44, 1.055, 0.5275, 1.1425, 0.265],
  "SoftwareVersions": "syngo_MR_E11",
  "StationName": "AWP66112",
  "TaskName": "fam1back",
  "TotalReadoutTime": 0.0522511,
  "dcmmeta_affine": [
    [-2.4995503425598145, -0.042320720851421356, -0.0213693305850029, 119.49958038330078],
    [-0.04386705160140991, 2.491920232772827, 0.19598422944545746, -101.56809997558594],
    [-0.017982587218284607, -0.1963239461183548, 2.4922146797180176, -50.92919158935547],
    [0.0, 0.0, 0.0, 1.0]
],
  "dcmmeta_reorient_transform": [
    [0.0, -1.0, 0.0, 95.0],
    [1.0, 0.0, 0.0, 0.0],
    [0.0, 0.0, 1.0, 0.0],
    [0.0, 0.0, 0.0, 1.0]
],
  "dcmmeta_shape": [96, 96, 56, 280],
  "dcmmeta_slice_dim": 2,
  "dcmmeta_version": 0.6,
  "global": {
    "const": {
      "AccessionNumber": "A000489",
      "AcquisitionMatrix": [96, 0, 0, 96],
      "AngioFlag": "N",
      "BitsAllocated": 16,
      "BitsStored": 12,
      "BodyPartExamined": "BRAIN",
      "Columns": 768,
      "EchoNumbers": 1,
      "EchoTime": 33.0,
      "EchoTrainLength": 96,
      "FlipAngle": 64.0,
      "HighBit": 11,
      "ImageOrientationPatient": [0.99982016850186, 0.01754682031476, -0.007193035086, -0.0169282880447, 0.99676804653708, 0.07852957701737],
      "ImagePositionPatient": [-941.10829375702, -987.18879679782, -129.50266109514],
      "ImageType": [
        "ORIGINAL",
        "PRIMARY",
        "FMRI",
        "NONE",
        "ND",
        "NORM",
        "MOSAIC"
],
      "ImagedNucleus": "1H",
      "ImagingFrequency": 123.252538,
      "InPlanePhaseEncodingDirection": "COL",
      "MRAcquisitionType": "2D",
      "MagneticFieldStrength": 3.0,
      "Manufacturer": "SIEMENS",
      "ManufacturerModelName": "Prisma",
      "Modality": "MR",
      "NumberOfAverages": 1.0,
      "NumberOfPhaseEncodingSteps": 96,
      "PercentPhaseFieldOfView": 100.0,
      "PercentSampling": 100.0,
      "PerformedProcedureStepStartTime": "170720.360000",
      "PhotometricInterpretation": "MONOCHROME2",
      "PixelBandwidth": 2265.0,
      "PixelRepresentation": 0,
      "PixelSpacing": [2.5, 2.5],
      "PositionReferenceIndicator": "",
      "ProtocolName": "func_run-01_task-fam1back",
      "RepetitionTime": 1250.0,
      "Rows": 768,
      "SAR": 0.04777419041936,
      "SamplesPerPixel": 1,
      "ScanOptions": "FS",
      "ScanningSequence": "EP",
      "SequenceName": "*epfid2d1_96",
      "SequenceVariant": "SK",
      "SeriesDescription": "func_run-01_task-fam1back",
      "SeriesNumber": 8,
      "SeriesTime": "171743.931000",
      "SliceLocation": -59.754338012404,
      "SliceThickness": 2.5,
      "SmallestImagePixelValue": 0,
      "SoftwareVersions": "syngo MR E11",
      "SpacingBetweenSlices": 2.5000000336875,
      "SpecificCharacterSet": "ISO_IR 100",
      "StudyID": "1",
      "StudyTime": "170720.301000",
      "TransmitCoilName": "Body",
      "VariableFlipAngleFlag": "N",
      "WindowCenterWidthExplanation": "Algo1",
      "dBdt": 0.0},
    "slices": {}
  },
  "time": {
    "samples": {
      "AcquisitionNumber": [1, 2, 3, 4, 5, 6, 7, 8, 9, 10, 11, 12, 13, 14, 15, 16, 17, 18, 19, 20, 21, 22, 23, 24, 25, 26, 27, 28, 29, 30, 31, 32, 33, 34, 35, 36, 37, 38, 39, 40, 41, 42, 43, 44, 45, 46, 47, 48, 49, 50, 51, 52, 53, 54, 55, 56, 57, 58, 59, 60, 61, 62, 63, 64, 65, 66, 67, 68, 69, 70, 71, 72, 73, 74, 75, 76, 77, 78, 79, 80, 81, 82, 83, 84, 85, 86, 87, 88, 89, 90, 91, 92, 93, 94, 95, 96, 97, 98, 99, 100, 101, 102, 103, 104, 105, 106, 107, 108, 109, 110, 111, 112, 113, 114, 115, 116, 117, 118, 119, 120, 121, 122, 123, 124, 125, 126, 127, 128, 129, 130, 131, 132, 133, 134, 135, 136, 137, 138, 139, 140, 141, 142, 143, 144, 145, 146, 147, 148, 149, 150, 151, 152, 153, 154, 155, 156, 157, 158, 159, 160, 161, 162, 163, 164, 165, 166, 167, 168, 169, 170, 171, 172, 173, 174, 175, 176, 177, 178, 179, 180, 181, 182, 183, 184, 185, 186, 187, 188, 189, 190, 191, 192, 193, 194, 195, 196, 197, 198, 199, 200, 201, 202, 203, 204, 205, 206, 207, 208, 209, 210, 211, 212, 213, 214, 215, 216, 217, 218, 219, 220, 221, 222, 223, 224, 225, 226, 227, 228, 229, 230, 231, 232, 233, 234, 235, 236, 237, 238, 239, 240, 241, 242, 243, 244, 245, 246, 247, 248, 249, 250, 251, 252, 253, 254, 255, 256, 257, 258, 259, 260, 261, 262, 263, 264, 265, 266, 267, 268, 269, 270, 271, 272, 273, 274, 275, 276, 277, 278, 279, 280],
      "AcquisitionTime": ["171742.032500", "171743.282500", "171744.532500", "171745.782500", "171747.032500", "171748.282500", "171749.532500", "171750.782500", "171752.032500", "171753.282500", "171754.532500", "171755.782500", "171757.032500", "171758.282500", "171759.532500", "171800.782500", "171802.032500", "171803.282500", "171804.532500", "171805.782500", "171807.032500", "171808.282500", "171809.532500", "171810.782500", "171812.032500", "171813.282500", "171814.532500", "171815.782500", "171817.032500", "171818.282500", "171819.532500", "171820.782500", "171822.032500", "171823.282500", "171824.532500", "171825.782500", "171827.032500", "171828.282500", "171829.532500", "171830.782500", "171832.032500", "171833.282500", "171834.532500", "171835.782500", "171837.032500", "171838.282500", "171839.532500", "171840.782500", "171842.032500", "171843.282500", "171844.532500", "171845.782500", "171847.032500", "171848.282500", "171849.532500", "171850.782500", "171852.032500", "171853.282500", "171854.532500", "171855.782500", "171857.032500", "171858.282500", "171859.532500", "171900.782500", "171902.032500", "171903.282500", "171904.532500", "171905.782500", "171907.032500", "171908.282500", "171909.532500", "171910.782500", "171912.032500", "171913.282500", "171914.532500", "171915.782500", "171917.032500", "171918.282500", "171919.532500", "171920.782500", "171922.032500", "171923.282500", "171924.532500", "171925.782500", "171927.032500", "171928.282500", "171929.532500", "171930.782500", "171932.032500", "171933.282500", "171934.532500", "171935.782500", "171937.032500", "171938.282500", "171939.532500", "171940.782500", "171942.032500", "171943.282500", "171944.532500", "171945.782500", "171947.032500", "171948.282500", "171949.532500", "171950.782500", "171952.032500", "171953.282500", "171954.532500", "171955.782500", "171957.032500", "171958.282500", "171959.532500", "172000.782500", "172002.032500", "172003.282500", "172004.532500", "172005.782500", "172007.032500", "172008.282500", "172009.532500", "172010.782500", "172012.032500", "172013.282500", "172014.532500", "172015.782500", "172017.032500", "172018.282500", "172019.532500", "172020.782500", "172022.032500", "172023.282500", "172024.532500", "172025.782500", "172027.032500", "172028.282500", "172029.532500", "172030.782500", "172032.032500", "172033.282500", "172034.532500", "172035.782500", "172037.032500", "172038.282500", "172039.532500", "172040.782500", "172042.032500", "172043.282500", "172044.532500", "172045.782500", "172047.032500", "172048.282500", "172049.532500", "172050.782500", "172052.032500", "172053.282500", "172054.532500", "172055.782500", "172057.032500", "172058.282500", "172059.532500", "172100.782500", "172102.032500", "172103.282500", "172104.532500", "172105.782500", "172107.032500", "172108.282500", "172109.532500", "172110.782500", "172112.032500", "172113.282500", "172114.532500", "172115.782500", "172117.032500", "172118.282500", "172119.532500", "172120.782500", "172122.032500", "172123.282500", "172124.532500", "172125.782500", "172127.032500", "172128.282500", "172129.532500", "172130.782500", "172132.032500", "172133.282500", "172134.532500", "172135.782500", "172137.032500", "172138.282500", "172139.532500", "172140.782500", "172142.032500", "172143.282500", "172144.532500", "172145.782500", "172147.032500", "172148.282500", "172149.532500", "172150.782500", "172152.032500", "172153.282500", "172154.532500", "172155.782500", "172157.032500", "172158.282500", "172159.532500", "172200.782500", "172202.032500", "172203.282500", "172204.532500", "172205.782500", "172207.032500", "172208.282500", "172209.532500", "172210.782500", "172212.032500", "172213.282500", "172214.532500", "172215.782500", "172217.032500", "172218.282500", "172219.532500", "172220.782500", "172222.032500", "172223.282500", "172224.532500", "172225.782500", "172227.032500", "172228.282500", "172229.532500", "172230.782500", "172232.032500", "172233.282500", "172234.532500", "172235.782500", "172237.032500", "172238.282500", "172239.532500", "172240.782500", "172242.032500", "172243.282500", "172244.532500", "172245.782500", "172247.032500", "172248.282500", "172249.532500", "172250.782500", "172252.032500", "172253.282500", "172254.532500", "172255.782500", "172257.032500", "172258.282500", "172259.532500", "172300.782500", "172302.032500", "172303.282500", "172304.532500", "172305.782500", "172307.032500", "172308.282500", "172309.532500", "172310.782500", "172312.032500", "172313.282500", "172314.532500", "172315.782500", "172317.032500", "172318.282500", "172319.532500", "172320.782500", "172322.032500", "172323.282500", "172324.532500", "172325.782500", "172327.032500", "172328.282500", "172329.532500", "172330.782500"],
      "ContentTime": ["171743.935000", "171744.939000", "171746.213000", "171747.454000", "171748.661000", "171749.977000", "171751.214000", "171752.458000", "171753.681000", "171754.964000", "171756.209000", "171757.463000", "171758.685000", "171759.938000", "171801.174000", "171802.476000", "171803.710000", "171804.940000", "171806.212000", "171807.483000", "171808.707000", "171809.939000", "171811.212000", "171812.441000", "171813.722000", "171814.938000", "171816.263000", "171817.450000", "171818.649000", "171819.944000", "171821.171000", "171822.429000", "171823.708000", "171824.936000", "171826.175000", "171827.431000", "171828.702000", "171829.984000", "171831.207000", "171832.408000", "171833.761000", "171834.951000", "171836.204000", "171837.463000", "171838.684000", "171839.929000", "171841.204000", "171842.444000", "171843.705000", "171844.959000", "171846.179000", "171847.430000", "171848.698000", "171849.943000", "171851.217000", "171852.460000", "171853.693000", "171854.937000", "171856.189000", "171857.456000", "171858.700000", "171859.929000", "171901.193000", "171902.449000", "171903.696000", "171904.936000", "171906.182000", "171907.440000", "171908.705000", "171909.936000", "171911.194000", "171912.418000", "171913.709000", "171914.973000", "171916.200000", "171917.466000", "171918.680000", "171919.937000", "171921.217000", "171922.450000", "171923.714000", "171924.929000", "171926.198000", "171927.416000", "171928.731000", "171930.004000", "171931.189000", "171932.449000", "171933.706000", "171934.943000", "171936.192000", "171937.437000", "171938.680000", "171939.933000", "171941.166000", "171942.440000", "171943.671000", "171944.940000", "171946.194000", "171947.462000", "171948.713000", "171949.946000", "171951.202000", "171952.510000", "171953.693000", "171954.936000", "171956.202000", "171957.454000", "171958.711000", "171959.947000", "172001.208000", "172002.479000", "172003.696000", "172004.966000", "172006.216000", "172007.450000", "172008.704000", "172009.952000", "172011.218000", "172012.445000", "172013.712000", "172014.929000", "172016.208000", "172017.471000", "172018.720000", "172019.964000", "172021.196000", "172022.454000", "172023.719000", "172024.978000", "172026.244000", "172027.517000", "172028.719000", "172029.980000", "172031.165000", "172032.465000", "172033.676000", "172034.955000", "172036.191000", "172037.466000", "172038.707000", "172039.976000", "172041.199000", "172042.424000", "172043.726000", "172044.943000", "172046.208000", "172047.444000", "172048.696000", "172049.974000", "172051.213000", "172052.452000", "172053.688000", "172054.958000", "172056.226000", "172057.440000", "172058.700000", "172059.990000", "172101.237000", "172102.455000", "172103.693000", "172104.954000", "172106.189000", "172107.475000", "172108.764000", "172109.958000", "172111.208000", "172112.454000", "172113.710000", "172114.958000", "172116.210000", "172117.439000", "172118.706000", "172119.950000", "172121.217000", "172122.456000", "172123.696000", "172124.963000", "172126.203000", "172127.431000", "172128.712000", "172129.941000", "172131.202000", "172132.439000", "172133.698000", "172134.957000", "172136.204000", "172137.452000", "172138.737000", "172139.958000", "172141.188000", "172142.465000", "172143.724000", "172144.963000", "172146.205000", "172147.455000", "172148.699000", "172149.966000", "172151.191000", "172152.483000", "172153.699000", "172154.950000", "172156.224000", "172157.468000", "172158.688000", "172159.952000", "172201.203000", "172202.451000", "172203.705000", "172204.980000", "172206.206000", "172207.439000", "172208.717000", "172209.942000", "172211.185000", "172212.451000", "172213.701000", "172214.949000", "172216.262000", "172217.439000", "172218.706000", "172219.960000", "172221.185000", "172222.456000", "172223.717000", "172224.946000", "172226.199000", "172227.443000", "172228.700000", "172229.952000", "172231.195000", "172232.491000", "172233.729000", "172234.964000", "172236.186000", "172237.445000", "172238.695000", "172239.985000", "172241.193000", "172242.431000", "172243.696000", "172244.953000", "172246.251000", "172247.454000", "172248.729000", "172249.960000", "172251.211000", "172252.452000", "172253.695000", "172254.988000", "172256.170000", "172257.449000", "172258.689000", "172259.911000", "172301.220000", "172302.444000", "172303.670000", "172304.934000", "172306.200000", "172307.444000", "172308.683000", "172309.960000", "172311.217000", "172312.439000", "172313.668000", "172314.956000", "172316.180000", "172317.460000", "172318.704000", "172319.939000", "172321.184000", "172322.458000", "172323.703000", "172324.983000", "172326.222000", "172327.447000", "172328.700000", "172329.929000", "172331.218000", "172332.546000"],
      "InstanceCreationTime": ["171743.935000", "171744.939000", "171746.213000", "171747.454000", "171748.661000", "171749.977000", "171751.214000", "171752.458000", "171753.681000", "171754.964000", "171756.209000", "171757.463000", "171758.685000", "171759.938000", "171801.174000", "171802.476000", "171803.710000", "171804.940000", "171806.212000", "171807.483000", "171808.707000", "171809.939000", "171811.212000", "171812.441000", "171813.722000", "171814.938000", "171816.263000", "171817.450000", "171818.649000", "171819.944000", "171821.171000", "171822.429000", "171823.708000", "171824.936000", "171826.175000", "171827.431000", "171828.702000", "171829.984000", "171831.207000", "171832.408000", "171833.761000", "171834.951000", "171836.204000", "171837.463000", "171838.684000", "171839.929000", "171841.204000", "171842.444000", "171843.705000", "171844.959000", "171846.179000", "171847.430000", "171848.698000", "171849.943000", "171851.217000", "171852.460000", "171853.693000", "171854.937000", "171856.189000", "171857.456000", "171858.700000", "171859.929000", "171901.193000", "171902.449000", "171903.696000", "171904.936000", "171906.182000", "171907.440000", "171908.705000", "171909.936000", "171911.194000", "171912.418000", "171913.709000", "171914.973000", "171916.200000", "171917.466000", "171918.680000", "171919.937000", "171921.217000", "171922.450000", "171923.714000", "171924.929000", "171926.198000", "171927.416000", "171928.731000", "171930.004000", "171931.189000", "171932.449000", "171933.706000", "171934.943000", "171936.192000", "171937.437000", "171938.680000", "171939.933000", "171941.166000", "171942.440000", "171943.671000", "171944.940000", "171946.194000", "171947.462000", "171948.713000", "171949.946000", "171951.202000", "171952.510000", "171953.693000", "171954.936000", "171956.202000", "171957.454000", "171958.711000", "171959.947000", "172001.208000", "172002.479000", "172003.696000", "172004.966000", "172006.216000", "172007.450000", "172008.704000", "172009.952000", "172011.218000", "172012.445000", "172013.712000", "172014.929000", "172016.208000", "172017.471000", "172018.720000", "172019.964000", "172021.196000", "172022.454000", "172023.719000", "172024.978000", "172026.244000", "172027.517000", "172028.719000", "172029.980000", "172031.165000", "172032.465000", "172033.676000", "172034.955000", "172036.191000", "172037.466000", "172038.707000", "172039.976000", "172041.199000", "172042.424000", "172043.726000", "172044.943000", "172046.208000", "172047.444000", "172048.696000", "172049.974000", "172051.213000", "172052.452000", "172053.688000", "172054.958000", "172056.226000", "172057.440000", "172058.700000", "172059.990000", "172101.237000", "172102.455000", "172103.693000", "172104.954000", "172106.189000", "172107.475000", "172108.764000", "172109.958000", "172111.208000", "172112.454000", "172113.710000", "172114.958000", "172116.210000", "172117.439000", "172118.706000", "172119.950000", "172121.217000", "172122.456000", "172123.696000", "172124.963000", "172126.203000", "172127.431000", "172128.712000", "172129.941000", "172131.202000", "172132.439000", "172133.698000", "172134.957000", "172136.204000", "172137.452000", "172138.737000", "172139.958000", "172141.188000", "172142.465000", "172143.724000", "172144.963000", "172146.205000", "172147.455000", "172148.699000", "172149.966000", "172151.191000", "172152.483000", "172153.699000", "172154.950000", "172156.224000", "172157.468000", "172158.688000", "172159.952000", "172201.203000", "172202.451000", "172203.705000", "172204.980000", "172206.206000", "172207.439000", "172208.717000", "172209.942000", "172211.185000", "172212.451000", "172213.701000", "172214.949000", "172216.262000", "172217.439000", "172218.706000", "172219.960000", "172221.185000", "172222.456000", "172223.717000", "172224.946000", "172226.199000", "172227.443000", "172228.700000", "172229.952000", "172231.195000", "172232.491000", "172233.729000", "172234.964000", "172236.186000", "172237.445000", "172238.695000", "172239.985000", "172241.193000", "172242.431000", "172243.696000", "172244.953000", "172246.251000", "172247.454000", "172248.729000", "172249.960000", "172251.211000", "172252.452000", "172253.695000", "172254.988000", "172256.170000", "172257.449000", "172258.689000", "172259.911000", "172301.220000", "172302.444000", "172303.670000", "172304.934000", "172306.200000", "172307.444000", "172308.683000", "172309.960000", "172311.217000", "172312.439000", "172313.668000", "172314.956000", "172316.180000", "172317.460000", "172318.704000", "172319.939000", "172321.184000", "172322.458000", "172323.703000", "172324.983000", "172326.222000", "172327.447000", "172328.700000", "172329.929000", "172331.218000", "172332.546000"],
      "InstanceNumber": [1, 2, 3, 4, 5, 6, 7, 8, 9, 10, 11, 12, 13, 14, 15, 16, 17, 18, 19, 20, 21, 22, 23, 24, 25, 26, 27, 28, 29, 30, 31, 32, 33, 34, 35, 36, 37, 38, 39, 40, 41, 42, 43, 44, 45, 46, 47, 48, 49, 50, 51, 52, 53, 54, 55, 56, 57, 58, 59, 60, 61, 62, 63, 64, 65, 66, 67, 68, 69, 70, 71, 72, 73, 74, 75, 76, 77, 78, 79, 80, 81, 82, 83, 84, 85, 86, 87, 88, 89, 90, 91, 92, 93, 94, 95, 96, 97, 98, 99, 100, 101, 102, 103, 104, 105, 106, 107, 108, 109, 110, 111, 112, 113, 114, 115, 116, 117, 118, 119, 120, 121, 122, 123, 124, 125, 126, 127, 128, 129, 130, 131, 132, 133, 134, 135, 136, 137, 138, 139, 140, 141, 142, 143, 144, 145, 146, 147, 148, 149, 150, 151, 152, 153, 154, 155, 156, 157, 158, 159, 160, 161, 162, 163, 164, 165, 166, 167, 168, 169, 170, 171, 172, 173, 174, 175, 176, 177, 178, 179, 180, 181, 182, 183, 184, 185, 186, 187, 188, 189, 190, 191, 192, 193, 194, 195, 196, 197, 198, 199, 200, 201, 202, 203, 204, 205, 206, 207, 208, 209, 210, 211, 212, 213, 214, 215, 216, 217, 218, 219, 220, 221, 222, 223, 224, 225, 226, 227, 228, 229, 230, 231, 232, 233, 234, 235, 236, 237, 238, 239, 240, 241, 242, 243, 244, 245, 246, 247, 248, 249, 250, 251, 252, 253, 254, 255, 256, 257, 258, 259, 260, 261, 262, 263, 264, 265, 266, 267, 268, 269, 270, 271, 272, 273, 274, 275, 276, 277, 278, 279, 280],
      "LargestImagePixelValue": [1147, 863, 1142, 869, 1186, 971, 1095, 954, 1110, 866, 1132, 959, 1028, 1136, 830, 1095, 821, 1106, 901, 1133, 928, 1118, 953, 1095, 1065, 1305, 1112, 806, 978, 1015, 1114, 1018, 971, 1067, 1100, 923, 1076, 912, 910, 1151, 970, 982, 1151, 885, 1088, 957, 947, 1118, 955, 985, 1114, 838, 1107, 945, 1002, 1150, 1015, 983, 1126, 837, 1097, 1059, 888, 1118, 1103, 874, 1106, 1131, 883, 1115, 979, 994, 1117, 1137, 868, 1047, 1117, 829, 1107, 1128, 895, 1087, 1190, 877, 1098, 945, 1011, 1148, 978, 1010, 1146, 882, 1108, 1140, 901, 1087, 1108, 863, 1108, 1123, 903, 1136, 1177, 861, 1083, 946, 1097, 1170, 955, 1072, 1157, 983, 1018, 1164, 934, 1055, 1171, 906, 992, 1163, 968, 1055, 1172, 963, 1052, 1171, 884, 1030, 1178, 914, 1119, 1132, 906, 1115, 1049, 944, 1123, 970, 1012, 1153, 976, 1135, 936, 1076, 1167, 933, 1143, 1153, 876, 1169, 1170, 917, 1169, 1140, 877, 1122, 1156, 941, 1067, 1186, 998, 956, 1167, 947, 1061, 1178, 898, 1070, 1178, 988, 1067, 1162, 996, 987, 1164, 930, 1071, 1185, 889, 972, 1160, 1161, 872, 1121, 1152, 960, 1115, 1050, 1010, 1117, 1040, 993, 1164, 943, 1071, 983, 984, 1172, 894, 1065, 1223, 952, 1118, 1134, 946, 1122, 902, 1061, 1181, 928, 1037, 1152, 975, 979, 1145, 987, 941, 1125, 923, 1065, 1192, 1247, 883, 1033, 1202, 912, 1047, 1220, 877, 1092, 1168, 897, 1095, 1198, 877, 1117, 1220, 986, 1008, 1153, 1002, 973, 1132, 1200, 823, 1105, 1189, 853, 1161, 1129, 1029, 1190, 1215, 872, 1146, 1217, 819, 1099, 1154, 827, 1109, 1158, 829, 1126, 1061, 1306, 1107, 1187, 855, 1127, 1162, 868, 1069, 1204, 1203, 829, 1114, 1164, 832, 1115],
      "WindowCenter": [384.0, 381.0, 382.0, 381.0, 384.0, 384.0, 384.0, 381.0, 383.0, 380.0, 382.0, 381.0, 381.0, 381.0, 379.0, 382.0, 380.0, 383.0, 381.0, 383.0, 381.0, 384.0, 381.0, 383.0, 382.0, 381.0, 380.0, 380.0, 383.0, 384.0, 384.0, 383.0, 382.0, 382.0, 381.0, 379.0, 380.0, 379.0, 379.0, 383.0, 381.0, 381.0, 383.0, 381.0, 381.0, 382.0, 381.0, 382.0, 381.0, 381.0, 382.0, 379.0, 382.0, 381.0, 380.0, 383.0, 381.0, 381.0, 383.0, 379.0, 382.0, 381.0, 380.0, 382.0, 382.0, 380.0, 382.0, 383.0, 380.0, 382.0, 382.0, 381.0, 382.0, 382.0, 379.0, 382.0, 382.0, 378.0, 381.0, 383.0, 381.0, 382.0, 383.0, 380.0, 383.0, 380.0, 381.0, 382.0, 382.0, 382.0, 383.0, 380.0, 383.0, 382.0, 381.0, 382.0, 381.0, 379.0, 382.0, 382.0, 381.0, 381.0, 382.0, 379.0, 383.0, 382.0, 383.0, 383.0, 381.0, 381.0, 383.0, 381.0, 381.0, 381.0, 378.0, 381.0, 380.0, 379.0, 380.0, 381.0, 381.0, 381.0, 382.0, 380.0, 381.0, 382.0, 380.0, 381.0, 383.0, 381.0, 381.0, 381.0, 380.0, 382.0, 381.0, 380.0, 382.0, 381.0, 381.0, 384.0, 383.0, 383.0, 381.0, 383.0, 383.0, 381.0, 382.0, 382.0, 380.0, 382.0, 382.0, 381.0, 382.0, 382.0, 381.0, 382.0, 382.0, 380.0, 382.0, 381.0, 381.0, 380.0, 381.0, 380.0, 380.0, 382.0, 380.0, 381.0, 382.0, 381.0, 380.0, 382.0, 380.0, 380.0, 381.0, 379.0, 381.0, 382.0, 380.0, 380.0, 381.0, 381.0, 378.0, 381.0, 382.0, 380.0, 381.0, 381.0, 380.0, 381.0, 381.0, 380.0, 382.0, 380.0, 382.0, 381.0, 382.0, 383.0, 381.0, 381.0, 384.0, 379.0, 380.0, 380.0, 380.0, 382.0, 379.0, 381.0, 382.0, 381.0, 381.0, 381.0, 380.0, 380.0, 381.0, 381.0, 380.0, 382.0, 381.0, 382.0, 383.0, 383.0, 378.0, 381.0, 382.0, 379.0, 380.0, 381.0, 379.0, 381.0, 381.0, 378.0, 380.0, 381.0, 378.0, 380.0, 381.0, 379.0, 379.0, 381.0, 381.0, 380.0, 382.0, 382.0, 380.0, 381.0, 382.0, 381.0, 382.0, 382.0, 381.0, 382.0, 382.0, 379.0, 380.0, 381.0, 378.0, 381.0, 381.0, 379.0, 383.0, 383.0, 380.0, 382.0, 380.0, 382.0, 379.0, 380.0, 379.0, 381.0, 382.0, 379.0, 381.0, 381.0, 381.0, 378.0, 381.0, 382.0, 378.0, 382.0],
      "WindowWidth": [816.0, 811.0, 812.0, 811.0, 815.0, 815.0, 816.0, 810.0, 813.0, 809.0, 810.0, 810.0, 810.0, 809.0, 808.0, 811.0, 809.0, 814.0, 811.0, 812.0, 810.0, 814.0, 810.0, 814.0, 812.0, 809.0, 808.0, 809.0, 813.0, 817.0, 815.0, 813.0, 812.0, 811.0, 809.0, 807.0, 808.0, 807.0, 807.0, 813.0, 810.0, 810.0, 813.0, 810.0, 810.0, 811.0, 809.0, 811.0, 810.0, 810.0, 811.0, 807.0, 811.0, 811.0, 808.0, 812.0, 811.0, 810.0, 812.0, 806.0, 811.0, 810.0, 808.0, 810.0, 812.0, 809.0, 811.0, 813.0, 809.0, 811.0, 811.0, 809.0, 811.0, 810.0, 806.0, 811.0, 811.0, 806.0, 810.0, 813.0, 811.0, 812.0, 813.0, 808.0, 813.0, 808.0, 810.0, 811.0, 811.0, 811.0, 813.0, 808.0, 813.0, 810.0, 810.0, 812.0, 810.0, 807.0, 812.0, 812.0, 809.0, 809.0, 810.0, 806.0, 814.0, 811.0, 812.0, 813.0, 810.0, 810.0, 813.0, 809.0, 809.0, 810.0, 804.0, 809.0, 807.0, 807.0, 809.0, 808.0, 810.0, 809.0, 812.0, 809.0, 810.0, 812.0, 808.0, 810.0, 812.0, 810.0, 809.0, 810.0, 809.0, 811.0, 810.0, 808.0, 812.0, 809.0, 809.0, 814.0, 813.0, 812.0, 811.0, 813.0, 814.0, 811.0, 810.0, 811.0, 809.0, 811.0, 811.0, 810.0, 811.0, 811.0, 810.0, 810.0, 811.0, 807.0, 811.0, 809.0, 810.0, 808.0, 809.0, 809.0, 808.0, 810.0, 809.0, 809.0, 810.0, 809.0, 807.0, 811.0, 807.0, 807.0, 809.0, 807.0, 810.0, 812.0, 809.0, 808.0, 809.0, 809.0, 805.0, 809.0, 811.0, 808.0, 810.0, 809.0, 808.0, 809.0, 809.0, 808.0, 811.0, 808.0, 812.0, 810.0, 813.0, 813.0, 811.0, 810.0, 814.0, 807.0, 808.0, 808.0, 808.0, 811.0, 807.0, 809.0, 810.0, 809.0, 810.0, 810.0, 808.0, 808.0, 810.0, 810.0, 807.0, 811.0, 810.0, 812.0, 812.0, 812.0, 805.0, 809.0, 810.0, 807.0, 807.0, 809.0, 807.0, 810.0, 809.0, 806.0, 808.0, 809.0, 804.0, 808.0, 808.0, 806.0, 807.0, 809.0, 809.0, 808.0, 811.0, 810.0, 809.0, 810.0, 811.0, 810.0, 812.0, 811.0, 809.0, 811.0, 811.0, 806.0, 808.0, 809.0, 805.0, 809.0, 810.0, 806.0, 812.0, 813.0, 809.0, 811.0, 808.0, 811.0, 805.0, 808.0, 806.0, 810.0, 810.0, 807.0, 809.0, 809.0, 810.0, 804.0, 808.0, 810.0, 805.0, 812.0]
    },
    "slices": {}
  }
}