{
  "AcquisitionMatrixPE": 96,
  "AcquisitionNumber": 1,
  "AcquisitionTime": "18:23:26.985000",
  "BandwidthPerPixelPhaseEncode": 18.939,
  "BaseResolution": 96,
  "BodyPartExamined": "BRAIN",
  "ConsistencyInfo": "N4_VE11C_LATEST_20160120",
  "ConversionSoftware": "dcm2niix",
  "ConversionSoftwareVersion": "v1.0.20170923 (OpenJPEG build) GCC6.3.0",
  "DerivedVendorReportedEchoSpacing": 0.000550011,
  "DeviceSerialNumber": "66112",
  "DwellTime": 2.3e-06,
  "EchoTime": 0.033,
  "EchoTrainLength": 96,
  "EffectiveEchoSpacing": 0.000550011,
  "FlipAngle": 64,
  "ImageType": [
    "ORIGINAL",
    "PRIMARY",
    "FMRI",
    "NONE",
    "ND",
    "NORM",
    "MOSAIC"
],
  "InstitutionAddress": "Maynard_3_Hanover_NH_US_03755",
  "InstitutionName": "Dartmouth_College_-_PBS",
  "MagneticFieldStrength": 3,
  "Manufacturer": "Siemens",
  "ManufacturersModelName": "Prisma",
  "Modality": "MR",
  "MultibandAccelerationFactor": 4,
  "PartialFourier": 1,
  "PercentPhaseFOV": 100,
  "PhaseEncodingDirection": "j-",
  "PhaseEncodingSteps": 96,
  "PhaseResolution": 1,
  "ProcedureStepDescription": "Gobbini_Matteo_1017_famface-angles",
  "ProtocolName": "func_run-11_task-str1back",
  "PulseSequenceDetails": "%SiemensSeq%_ep2d_bold",
  "ReceiveCoilActiveElements": "HEA;HEP",
  "ReceiveCoilName": "Head_32",
  "ReconMatrixPE": 96,
  "RepetitionTime": 1.25,
  "ScanOptions": "FS",
  "ScanningSequence": "EP",
  "SequenceName": "_epfid2d1_96",
  "SequenceVariant": "SK",
  "SeriesDescription": "func_run-11_task-str1back",
  "SliceTiming": [0.8775, 0, 0.615, 0.0875, 0.7025, 0.175, 0.79, 0.35, 0.965, 0.4375, 1.0525, 0.5275, 1.1425, 0.2625, 0.8775, 0, 0.615, 0.0875, 0.7025, 0.175, 0.79, 0.35, 0.965, 0.4375, 1.0525, 0.5275, 1.1425, 0.2625, 0.8775, 0, 0.615, 0.0875, 0.7025, 0.175, 0.79, 0.35, 0.965, 0.4375, 1.0525, 0.5275, 1.1425, 0.2625, 0.8775, 0, 0.615, 0.0875, 0.7025, 0.175, 0.79, 0.35, 0.965, 0.4375, 1.0525, 0.5275, 1.1425, 0.2625],
  "SoftwareVersions": "syngo_MR_E11",
  "StationName": "AWP66112",
  "TaskName": "str1back",
  "TotalReadoutTime": 0.0522511,
  "dcmmeta_affine": [
    [-2.4995503425598145, -0.042320720851421356, -0.0213693305850029, 119.49958038330078],
    [-0.04386705160140991, 2.491920232772827, 0.19598422944545746, -101.56809997558594],
    [-0.017982587218284607, -0.1963239461183548, 2.4922146797180176, -50.92919158935547],
    [0.0, 0.0, 0.0, 1.0]
],
  "dcmmeta_reorient_transform": [
    [0.0, -1.0, 0.0, 95.0],
    [1.0, 0.0, 0.0, 0.0],
    [0.0, 0.0, 1.0, 0.0],
    [0.0, 0.0, 0.0, 1.0]
],
  "dcmmeta_shape": [96, 96, 56, 280],
  "dcmmeta_slice_dim": 2,
  "dcmmeta_version": 0.6,
  "global": {
    "const": {
      "AccessionNumber": "A000489",
      "AcquisitionMatrix": [96, 0, 0, 96],
      "AngioFlag": "N",
      "BitsAllocated": 16,
      "BitsStored": 12,
      "BodyPartExamined": "BRAIN",
      "Columns": 768,
      "EchoNumbers": 1,
      "EchoTime": 33.0,
      "EchoTrainLength": 96,
      "FlipAngle": 64.0,
      "HighBit": 11,
      "ImageOrientationPatient": [0.99982016850186, 0.01754682031476, -0.007193035086, -0.0169282880447, 0.99676804653708, 0.07852957701737],
      "ImagePositionPatient": [-941.10829375702, -987.18879679782, -129.50266109514],
      "ImageType": [
        "ORIGINAL",
        "PRIMARY",
        "FMRI",
        "NONE",
        "ND",
        "NORM",
        "MOSAIC"
],
      "ImagedNucleus": "1H",
      "ImagingFrequency": 123.252552,
      "InPlanePhaseEncodingDirection": "COL",
      "MRAcquisitionType": "2D",
      "MagneticFieldStrength": 3.0,
      "Manufacturer": "SIEMENS",
      "ManufacturerModelName": "Prisma",
      "Modality": "MR",
      "NumberOfAverages": 1.0,
      "NumberOfPhaseEncodingSteps": 96,
      "PercentPhaseFieldOfView": 100.0,
      "PercentSampling": 100.0,
      "PerformedProcedureStepStartTime": "170720.360000",
      "PhotometricInterpretation": "MONOCHROME2",
      "PixelBandwidth": 2265.0,
      "PixelRepresentation": 0,
      "PixelSpacing": [2.5, 2.5],
      "PositionReferenceIndicator": "",
      "ProtocolName": "func_run-11_task-str1back",
      "RepetitionTime": 1250.0,
      "Rows": 768,
      "SAR": 0.04777419041936,
      "SamplesPerPixel": 1,
      "ScanOptions": "FS",
      "ScanningSequence": "EP",
      "SequenceName": "*epfid2d1_96",
      "SequenceVariant": "SK",
      "SeriesDescription": "func_run-11_task-str1back",
      "SeriesNumber": 78,
      "SeriesTime": "182328.156000",
      "SliceLocation": -59.754338012404,
      "SliceThickness": 2.5,
      "SmallestImagePixelValue": 0,
      "SoftwareVersions": "syngo MR E11",
      "SpacingBetweenSlices": 2.5000000336875,
      "SpecificCharacterSet": "ISO_IR 100",
      "StudyID": "1",
      "StudyTime": "170720.301000",
      "TransmitCoilName": "Body",
      "VariableFlipAngleFlag": "N",
      "WindowCenterWidthExplanation": "Algo1",
      "dBdt": 0.0},
    "slices": {}
  },
  "time": {
    "samples": {
      "AcquisitionNumber": [1, 2, 3, 4, 5, 6, 7, 8, 9, 10, 11, 12, 13, 14, 15, 16, 17, 18, 19, 20, 21, 22, 23, 24, 25, 26, 27, 28, 29, 30, 31, 32, 33, 34, 35, 36, 37, 38, 39, 40, 41, 42, 43, 44, 45, 46, 47, 48, 49, 50, 51, 52, 53, 54, 55, 56, 57, 58, 59, 60, 61, 62, 63, 64, 65, 66, 67, 68, 69, 70, 71, 72, 73, 74, 75, 76, 77, 78, 79, 80, 81, 82, 83, 84, 85, 86, 87, 88, 89, 90, 91, 92, 93, 94, 95, 96, 97, 98, 99, 100, 101, 102, 103, 104, 105, 106, 107, 108, 109, 110, 111, 112, 113, 114, 115, 116, 117, 118, 119, 120, 121, 122, 123, 124, 125, 126, 127, 128, 129, 130, 131, 132, 133, 134, 135, 136, 137, 138, 139, 140, 141, 142, 143, 144, 145, 146, 147, 148, 149, 150, 151, 152, 153, 154, 155, 156, 157, 158, 159, 160, 161, 162, 163, 164, 165, 166, 167, 168, 169, 170, 171, 172, 173, 174, 175, 176, 177, 178, 179, 180, 181, 182, 183, 184, 185, 186, 187, 188, 189, 190, 191, 192, 193, 194, 195, 196, 197, 198, 199, 200, 201, 202, 203, 204, 205, 206, 207, 208, 209, 210, 211, 212, 213, 214, 215, 216, 217, 218, 219, 220, 221, 222, 223, 224, 225, 226, 227, 228, 229, 230, 231, 232, 233, 234, 235, 236, 237, 238, 239, 240, 241, 242, 243, 244, 245, 246, 247, 248, 249, 250, 251, 252, 253, 254, 255, 256, 257, 258, 259, 260, 261, 262, 263, 264, 265, 266, 267, 268, 269, 270, 271, 272, 273, 274, 275, 276, 277, 278, 279, 280],
      "AcquisitionTime": ["182326.985000", "182328.235000", "182329.485000", "182330.735000", "182331.985000", "182333.235000", "182334.485000", "182335.735000", "182336.985000", "182338.235000", "182339.485000", "182340.735000", "182341.985000", "182343.235000", "182344.485000", "182345.735000", "182346.985000", "182348.235000", "182349.485000", "182350.735000", "182351.985000", "182353.235000", "182354.485000", "182355.735000", "182356.985000", "182358.235000", "182359.485000", "182400.735000", "182401.985000", "182403.235000", "182404.485000", "182405.735000", "182406.985000", "182408.235000", "182409.485000", "182410.735000", "182411.985000", "182413.235000", "182414.485000", "182415.735000", "182416.985000", "182418.235000", "182419.485000", "182420.735000", "182421.985000", "182423.235000", "182424.485000", "182425.735000", "182426.985000", "182428.235000", "182429.485000", "182430.735000", "182431.985000", "182433.235000", "182434.485000", "182435.735000", "182436.985000", "182438.235000", "182439.485000", "182440.735000", "182441.985000", "182443.235000", "182444.485000", "182445.735000", "182446.985000", "182448.235000", "182449.485000", "182450.735000", "182451.985000", "182453.235000", "182454.485000", "182455.735000", "182456.985000", "182458.235000", "182459.485000", "182500.735000", "182501.985000", "182503.235000", "182504.485000", "182505.735000", "182506.985000", "182508.235000", "182509.485000", "182510.735000", "182511.985000", "182513.235000", "182514.485000", "182515.735000", "182516.985000", "182518.235000", "182519.485000", "182520.735000", "182521.985000", "182523.235000", "182524.485000", "182525.735000", "182526.985000", "182528.235000", "182529.485000", "182530.735000", "182531.985000", "182533.235000", "182534.485000", "182535.735000", "182536.985000", "182538.235000", "182539.485000", "182540.735000", "182541.985000", "182543.235000", "182544.485000", "182545.735000", "182546.985000", "182548.235000", "182549.485000", "182550.735000", "182551.985000", "182553.235000", "182554.485000", "182555.735000", "182556.985000", "182558.235000", "182559.485000", "182600.735000", "182601.985000", "182603.235000", "182604.485000", "182605.735000", "182606.985000", "182608.235000", "182609.485000", "182610.735000", "182611.985000", "182613.235000", "182614.485000", "182615.735000", "182616.985000", "182618.235000", "182619.485000", "182620.735000", "182621.985000", "182623.235000", "182624.485000", "182625.735000", "182626.985000", "182628.235000", "182629.485000", "182630.735000", "182631.985000", "182633.235000", "182634.485000", "182635.735000", "182636.985000", "182638.235000", "182639.485000", "182640.735000", "182641.985000", "182643.235000", "182644.485000", "182645.735000", "182646.985000", "182648.235000", "182649.485000", "182650.735000", "182651.985000", "182653.235000", "182654.485000", "182655.735000", "182656.985000", "182658.235000", "182659.485000", "182700.735000", "182701.985000", "182703.235000", "182704.485000", "182705.735000", "182706.985000", "182708.235000", "182709.485000", "182710.735000", "182711.985000", "182713.235000", "182714.485000", "182715.735000", "182716.985000", "182718.235000", "182719.485000", "182720.735000", "182721.985000", "182723.235000", "182724.485000", "182725.735000", "182726.985000", "182728.235000", "182729.485000", "182730.735000", "182731.985000", "182733.235000", "182734.485000", "182735.735000", "182736.985000", "182738.235000", "182739.485000", "182740.735000", "182741.985000", "182743.235000", "182744.485000", "182745.735000", "182746.985000", "182748.235000", "182749.485000", "182750.735000", "182751.985000", "182753.235000", "182754.485000", "182755.735000", "182756.985000", "182758.235000", "182759.485000", "182800.735000", "182801.985000", "182803.235000", "182804.485000", "182805.735000", "182806.985000", "182808.235000", "182809.485000", "182810.735000", "182811.985000", "182813.235000", "182814.485000", "182815.735000", "182816.985000", "182818.235000", "182819.485000", "182820.735000", "182821.985000", "182823.235000", "182824.485000", "182825.735000", "182826.985000", "182828.235000", "182829.485000", "182830.735000", "182831.985000", "182833.235000", "182834.485000", "182835.735000", "182836.985000", "182838.235000", "182839.485000", "182840.735000", "182841.985000", "182843.235000", "182844.485000", "182845.735000", "182846.985000", "182848.235000", "182849.485000", "182850.735000", "182851.985000", "182853.235000", "182854.485000", "182855.735000", "182856.985000", "182858.235000", "182859.485000", "182900.735000", "182901.985000", "182903.235000", "182904.485000", "182905.735000", "182906.985000", "182908.235000", "182909.485000", "182910.735000", "182911.985000", "182913.235000", "182914.485000", "182915.735000"],
      "ContentTime": ["182328.160000", "182329.239000", "182330.393000", "182331.652000", "182332.936000", "182334.147000", "182335.408000", "182336.653000", "182337.935000", "182339.177000", "182340.394000", "182341.646000", "182342.928000", "182344.168000", "182345.407000", "182346.664000", "182347.903000", "182349.149000", "182350.394000", "182351.657000", "182352.893000", "182354.157000", "182355.413000", "182356.654000", "182357.909000", "182359.146000", "182400.407000", "182401.641000", "182402.961000", "182404.137000", "182405.400000", "182406.675000", "182407.906000", "182409.193000", "182410.423000", "182411.665000", "182412.927000", "182414.176000", "182415.401000", "182416.660000", "182417.931000", "182419.178000", "182420.409000", "182421.678000", "182422.939000", "182424.141000", "182425.420000", "182426.646000", "182427.893000", "182429.168000", "182430.382000", "182431.677000", "182432.899000", "182434.166000", "182435.418000", "182436.648000", "182437.903000", "182439.164000", "182440.414000", "182441.632000", "182442.917000", "182444.150000", "182445.391000", "182446.675000", "182447.914000", "182449.161000", "182450.444000", "182451.666000", "182452.930000", "182454.152000", "182455.444000", "182456.648000", "182457.904000", "182459.142000", "182500.406000", "182501.665000", "182502.887000", "182504.182000", "182505.387000", "182506.669000", "182507.899000", "182509.138000", "182510.454000", "182511.643000", "182512.910000", "182514.140000", "182515.415000", "182516.641000", "182517.902000", "182519.152000", "182520.426000", "182521.639000", "182522.906000", "182524.137000", "182525.390000", "182526.637000", "182527.912000", "182529.173000", "182530.392000", "182531.643000", "182532.910000", "182534.134000", "182535.417000", "182536.658000", "182537.918000", "182539.157000", "182540.423000", "182541.655000", "182542.982000", "182544.186000", "182545.404000", "182546.673000", "182547.901000", "182549.198000", "182550.434000", "182551.642000", "182552.928000", "182554.188000", "182555.414000", "182556.655000", "182557.937000", "182559.165000", "182600.422000", "182601.667000", "182602.900000", "182604.152000", "182605.424000", "182606.653000", "182607.932000", "182609.192000", "182610.431000", "182611.672000", "182612.907000", "182614.169000", "182615.363000", "182616.703000", "182617.942000", "182619.177000", "182620.407000", "182621.711000", "182622.938000", "182624.174000", "182625.439000", "182626.657000", "182627.907000", "182629.174000", "182630.406000", "182631.665000", "182632.904000", "182634.183000", "182635.399000", "182636.650000", "182637.925000", "182639.184000", "182640.441000", "182641.648000", "182642.918000", "182644.202000", "182645.407000", "182646.635000", "182647.900000", "182649.169000", "182650.432000", "182651.639000", "182652.930000", "182654.117000", "182655.426000", "182656.614000", "182657.919000", "182659.170000", "182700.413000", "182701.673000", "182702.946000", "182704.152000", "182705.421000", "182706.676000", "182707.907000", "182709.170000", "182710.434000", "182711.673000", "182712.887000", "182714.180000", "182715.408000", "182716.689000", "182717.901000", "182719.153000", "182720.411000", "182721.666000", "182722.909000", "182724.149000", "182725.392000", "182726.668000", "182727.910000", "182729.142000", "182730.416000", "182731.641000", "182732.943000", "182734.172000", "182735.433000", "182736.671000", "182737.908000", "182739.166000", "182740.438000", "182741.720000", "182742.895000", "182744.156000", "182745.418000", "182746.638000", "182747.901000", "182749.152000", "182750.420000", "182751.678000", "182752.894000", "182754.172000", "182755.393000", "182756.651000", "182757.897000", "182759.136000", "182800.415000", "182801.645000", "182802.900000", "182804.172000", "182805.415000", "182806.646000", "182807.904000", "182809.151000", "182810.439000", "182811.691000", "182812.960000", "182814.190000", "182815.418000", "182816.653000", "182817.934000", "182819.152000", "182820.434000", "182821.658000", "182822.915000", "182824.191000", "182825.446000", "182826.680000", "182827.915000", "182829.210000", "182830.459000", "182831.655000", "182832.911000", "182834.172000", "182835.419000", "182836.650000", "182837.908000", "182839.167000", "182840.404000", "182841.701000", "182842.924000", "182844.189000", "182845.420000", "182846.642000", "182847.927000", "182849.165000", "182850.416000", "182851.666000", "182852.893000", "182854.205000", "182855.399000", "182856.677000", "182857.913000", "182859.180000", "182900.415000", "182901.676000", "182902.909000", "182904.166000", "182905.384000", "182906.693000", "182907.937000", "182909.163000", "182910.396000", "182911.687000", "182912.895000", "182914.165000", "182915.398000", "182916.701000"],
      "InstanceCreationTime": ["182328.160000", "182329.239000", "182330.393000", "182331.652000", "182332.936000", "182334.147000", "182335.408000", "182336.653000", "182337.935000", "182339.177000", "182340.394000", "182341.646000", "182342.928000", "182344.168000", "182345.407000", "182346.664000", "182347.903000", "182349.149000", "182350.394000", "182351.657000", "182352.893000", "182354.157000", "182355.413000", "182356.654000", "182357.909000", "182359.146000", "182400.407000", "182401.641000", "182402.961000", "182404.137000", "182405.400000", "182406.675000", "182407.906000", "182409.193000", "182410.423000", "182411.665000", "182412.927000", "182414.176000", "182415.401000", "182416.660000", "182417.931000", "182419.178000", "182420.409000", "182421.678000", "182422.939000", "182424.141000", "182425.420000", "182426.646000", "182427.893000", "182429.168000", "182430.382000", "182431.677000", "182432.899000", "182434.166000", "182435.418000", "182436.648000", "182437.903000", "182439.164000", "182440.414000", "182441.632000", "182442.917000", "182444.150000", "182445.391000", "182446.675000", "182447.914000", "182449.161000", "182450.444000", "182451.666000", "182452.930000", "182454.152000", "182455.444000", "182456.648000", "182457.904000", "182459.142000", "182500.406000", "182501.665000", "182502.887000", "182504.182000", "182505.387000", "182506.669000", "182507.899000", "182509.138000", "182510.454000", "182511.643000", "182512.910000", "182514.140000", "182515.415000", "182516.641000", "182517.902000", "182519.152000", "182520.426000", "182521.639000", "182522.906000", "182524.137000", "182525.390000", "182526.637000", "182527.912000", "182529.173000", "182530.392000", "182531.643000", "182532.910000", "182534.134000", "182535.417000", "182536.658000", "182537.918000", "182539.157000", "182540.423000", "182541.655000", "182542.982000", "182544.186000", "182545.404000", "182546.673000", "182547.901000", "182549.198000", "182550.434000", "182551.642000", "182552.928000", "182554.188000", "182555.414000", "182556.655000", "182557.937000", "182559.165000", "182600.422000", "182601.667000", "182602.900000", "182604.152000", "182605.424000", "182606.653000", "182607.932000", "182609.192000", "182610.431000", "182611.672000", "182612.907000", "182614.169000", "182615.363000", "182616.703000", "182617.942000", "182619.177000", "182620.407000", "182621.711000", "182622.938000", "182624.174000", "182625.439000", "182626.657000", "182627.907000", "182629.174000", "182630.406000", "182631.665000", "182632.904000", "182634.183000", "182635.399000", "182636.650000", "182637.925000", "182639.184000", "182640.441000", "182641.648000", "182642.918000", "182644.202000", "182645.407000", "182646.635000", "182647.900000", "182649.169000", "182650.432000", "182651.639000", "182652.930000", "182654.117000", "182655.426000", "182656.614000", "182657.919000", "182659.170000", "182700.413000", "182701.673000", "182702.946000", "182704.152000", "182705.421000", "182706.676000", "182707.907000", "182709.170000", "182710.434000", "182711.673000", "182712.887000", "182714.180000", "182715.408000", "182716.689000", "182717.901000", "182719.153000", "182720.411000", "182721.666000", "182722.909000", "182724.149000", "182725.392000", "182726.668000", "182727.910000", "182729.142000", "182730.416000", "182731.641000", "182732.943000", "182734.172000", "182735.433000", "182736.671000", "182737.908000", "182739.166000", "182740.438000", "182741.720000", "182742.895000", "182744.156000", "182745.418000", "182746.638000", "182747.901000", "182749.152000", "182750.420000", "182751.678000", "182752.894000", "182754.172000", "182755.393000", "182756.651000", "182757.897000", "182759.136000", "182800.415000", "182801.645000", "182802.900000", "182804.172000", "182805.415000", "182806.646000", "182807.904000", "182809.151000", "182810.439000", "182811.691000", "182812.960000", "182814.190000", "182815.418000", "182816.653000", "182817.934000", "182819.152000", "182820.434000", "182821.658000", "182822.915000", "182824.191000", "182825.446000", "182826.680000", "182827.915000", "182829.210000", "182830.459000", "182831.655000", "182832.911000", "182834.172000", "182835.419000", "182836.650000", "182837.908000", "182839.167000", "182840.404000", "182841.701000", "182842.924000", "182844.189000", "182845.420000", "182846.642000", "182847.927000", "182849.165000", "182850.416000", "182851.666000", "182852.893000", "182854.205000", "182855.399000", "182856.677000", "182857.913000", "182859.180000", "182900.415000", "182901.676000", "182902.909000", "182904.166000", "182905.384000", "182906.693000", "182907.937000", "182909.163000", "182910.396000", "182911.687000", "182912.895000", "182914.165000", "182915.398000", "182916.701000"],
      "InstanceNumber": [1, 2, 3, 4, 5, 6, 7, 8, 9, 10, 11, 12, 13, 14, 15, 16, 17, 18, 19, 20, 21, 22, 23, 24, 25, 26, 27, 28, 29, 30, 31, 32, 33, 34, 35, 36, 37, 38, 39, 40, 41, 42, 43, 44, 45, 46, 47, 48, 49, 50, 51, 52, 53, 54, 55, 56, 57, 58, 59, 60, 61, 62, 63, 64, 65, 66, 67, 68, 69, 70, 71, 72, 73, 74, 75, 76, 77, 78, 79, 80, 81, 82, 83, 84, 85, 86, 87, 88, 89, 90, 91, 92, 93, 94, 95, 96, 97, 98, 99, 100, 101, 102, 103, 104, 105, 106, 107, 108, 109, 110, 111, 112, 113, 114, 115, 116, 117, 118, 119, 120, 121, 122, 123, 124, 125, 126, 127, 128, 129, 130, 131, 132, 133, 134, 135, 136, 137, 138, 139, 140, 141, 142, 143, 144, 145, 146, 147, 148, 149, 150, 151, 152, 153, 154, 155, 156, 157, 158, 159, 160, 161, 162, 163, 164, 165, 166, 167, 168, 169, 170, 171, 172, 173, 174, 175, 176, 177, 178, 179, 180, 181, 182, 183, 184, 185, 186, 187, 188, 189, 190, 191, 192, 193, 194, 195, 196, 197, 198, 199, 200, 201, 202, 203, 204, 205, 206, 207, 208, 209, 210, 211, 212, 213, 214, 215, 216, 217, 218, 219, 220, 221, 222, 223, 224, 225, 226, 227, 228, 229, 230, 231, 232, 233, 234, 235, 236, 237, 238, 239, 240, 241, 242, 243, 244, 245, 246, 247, 248, 249, 250, 251, 252, 253, 254, 255, 256, 257, 258, 259, 260, 261, 262, 263, 264, 265, 266, 267, 268, 269, 270, 271, 272, 273, 274, 275, 276, 277, 278, 279, 280],
      "LargestImagePixelValue": [1166, 1155, 1050, 1181, 1195, 1108, 875, 1215, 1028, 1209, 1388, 1044, 1188, 814, 1122, 908, 1139, 1007, 1094, 1141, 1053, 1181, 833, 1160, 915, 1070, 1032, 1056, 1184, 935, 1013, 1201, 857, 1037, 1193, 819, 1177, 916, 1101, 1322, 864, 1093, 1212, 821, 1166, 981, 990, 1190, 888, 1030, 1202, 895, 1103, 1202, 907, 1040, 1200, 849, 1020, 1062, 1047, 963, 1082, 1235, 1039, 1185, 924, 1152, 900, 1119, 1014, 1096, 1099, 1083, 1183, 959, 1183, 845, 1149, 977, 1084, 1255, 1025, 1222, 819, 1183, 992, 1038, 1201, 942, 1047, 1197, 823, 1089, 1236, 1006, 1204, 963, 909, 980, 1079, 1216, 852, 1224, 1102, 1146, 1202, 906, 1061, 1191, 857, 1063, 1101, 1054, 1201, 864, 1048, 1155, 808, 1145, 1035, 966, 1177, 842, 1102, 998, 977, 1197, 887, 1115, 947, 1105, 1257, 907, 1136, 1057, 1031, 1206, 879, 1120, 1262, 831, 1145, 1139, 1038, 1166, 870, 1047, 1180, 850, 1064, 1162, 955, 1005, 1147, 910, 1055, 1157, 841, 1107, 1255, 987, 991, 1070, 1000, 1036, 1170, 984, 1061, 1156, 901, 1116, 944, 1144, 1016, 1044, 1136, 869, 1054, 1154, 901, 1100, 778, 1161, 850, 1200, 866, 1143, 1223, 881, 1131, 885, 1083, 1127, 809, 1117, 864, 1103, 1164, 814, 1081, 1142, 927, 1103, 1123, 924, 1079, 1005, 1028, 1122, 858, 1099, 866, 1128, 905, 1115, 890, 1195, 960, 1209, 1085, 991, 1046, 775, 1115, 844, 1045, 891, 1100, 916, 1045, 995, 974, 1106, 892, 932, 1069, 865, 953, 1027, 955, 1075, 852, 1124, 1125, 822, 1039, 1103, 982, 1151, 916, 1132, 1003, 1001, 1113, 959, 968, 1125, 951, 1002, 1135, 853, 1097, 930, 985, 1121, 856, 1122, 904, 1098, 1157, 909, 1136, 1138, 801, 1072, 1145, 779, 1058, 890],
      "WindowCenter": [386.0, 384.0, 383.0, 384.0, 385.0, 384.0, 381.0, 383.0, 381.0, 382.0, 382.0, 379.0, 379.0, 375.0, 379.0, 377.0, 380.0, 379.0, 380.0, 380.0, 380.0, 381.0, 377.0, 381.0, 379.0, 380.0, 382.0, 381.0, 382.0, 381.0, 381.0, 383.0, 379.0, 381.0, 383.0, 378.0, 383.0, 381.0, 382.0, 385.0, 380.0, 381.0, 382.0, 379.0, 382.0, 381.0, 382.0, 383.0, 381.0, 382.0, 383.0, 381.0, 382.0, 383.0, 379.0, 380.0, 382.0, 379.0, 381.0, 381.0, 382.0, 382.0, 383.0, 384.0, 381.0, 382.0, 380.0, 382.0, 379.0, 381.0, 381.0, 381.0, 381.0, 381.0, 383.0, 380.0, 382.0, 379.0, 382.0, 379.0, 380.0, 383.0, 380.0, 382.0, 379.0, 382.0, 380.0, 381.0, 383.0, 381.0, 382.0, 383.0, 379.0, 382.0, 383.0, 381.0, 384.0, 382.0, 382.0, 383.0, 384.0, 384.0, 381.0, 382.0, 382.0, 381.0, 380.0, 377.0, 379.0, 379.0, 377.0, 379.0, 379.0, 381.0, 382.0, 379.0, 381.0, 382.0, 379.0, 382.0, 382.0, 381.0, 383.0, 381.0, 383.0, 383.0, 383.0, 383.0, 381.0, 384.0, 381.0, 382.0, 384.0, 380.0, 381.0, 381.0, 381.0, 383.0, 380.0, 381.0, 383.0, 379.0, 382.0, 382.0, 380.0, 382.0, 380.0, 380.0, 382.0, 380.0, 382.0, 380.0, 379.0, 382.0, 383.0, 382.0, 382.0, 383.0, 378.0, 383.0, 383.0, 379.0, 381.0, 382.0, 383.0, 383.0, 382.0, 381.0, 380.0, 382.0, 380.0, 382.0, 381.0, 383.0, 382.0, 382.0, 381.0, 379.0, 380.0, 382.0, 380.0, 383.0, 380.0, 383.0, 381.0, 383.0, 380.0, 383.0, 383.0, 380.0, 381.0, 379.0, 380.0, 381.0, 378.0, 382.0, 380.0, 382.0, 382.0, 379.0, 381.0, 382.0, 380.0, 381.0, 382.0, 380.0, 381.0, 380.0, 380.0, 382.0, 380.0, 384.0, 382.0, 386.0, 383.0, 383.0, 380.0, 383.0, 379.0, 381.0, 378.0, 378.0, 379.0, 376.0, 379.0, 376.0, 378.0, 378.0, 380.0, 379.0, 379.0, 379.0, 380.0, 382.0, 378.0, 379.0, 380.0, 378.0, 380.0, 382.0, 381.0, 383.0, 381.0, 383.0, 382.0, 379.0, 382.0, 382.0, 383.0, 384.0, 383.0, 384.0, 383.0, 382.0, 382.0, 381.0, 380.0, 382.0, 379.0, 381.0, 383.0, 381.0, 381.0, 380.0, 380.0, 382.0, 380.0, 381.0, 380.0, 381.0, 382.0, 379.0, 380.0, 381.0, 377.0, 380.0, 381.0, 378.0, 382.0, 381.0],
      "WindowWidth": [818.0, 816.0, 814.0, 815.0, 816.0, 814.0, 810.0, 812.0, 809.0, 810.0, 810.0, 805.0, 805.0, 798.0, 805.0, 802.0, 807.0, 805.0, 807.0, 808.0, 808.0, 809.0, 803.0, 810.0, 807.0, 808.0, 811.0, 810.0, 810.0, 809.0, 809.0, 812.0, 808.0, 810.0, 812.0, 806.0, 813.0, 811.0, 811.0, 816.0, 809.0, 809.0, 810.0, 808.0, 810.0, 809.0, 812.0, 813.0, 810.0, 812.0, 813.0, 810.0, 811.0, 812.0, 807.0, 807.0, 811.0, 806.0, 809.0, 810.0, 813.0, 812.0, 813.0, 814.0, 810.0, 810.0, 809.0, 811.0, 806.0, 810.0, 810.0, 810.0, 810.0, 810.0, 812.0, 809.0, 811.0, 807.0, 811.0, 807.0, 808.0, 812.0, 807.0, 812.0, 807.0, 812.0, 807.0, 810.0, 812.0, 809.0, 811.0, 813.0, 808.0, 812.0, 813.0, 810.0, 814.0, 813.0, 812.0, 814.0, 815.0, 815.0, 810.0, 811.0, 811.0, 808.0, 808.0, 804.0, 806.0, 805.0, 803.0, 806.0, 805.0, 809.0, 811.0, 807.0, 810.0, 811.0, 807.0, 811.0, 811.0, 810.0, 813.0, 811.0, 812.0, 814.0, 813.0, 813.0, 811.0, 814.0, 809.0, 812.0, 814.0, 807.0, 809.0, 810.0, 810.0, 813.0, 808.0, 809.0, 813.0, 806.0, 811.0, 811.0, 807.0, 811.0, 808.0, 808.0, 811.0, 808.0, 812.0, 807.0, 806.0, 811.0, 813.0, 812.0, 812.0, 812.0, 806.0, 812.0, 812.0, 807.0, 809.0, 812.0, 814.0, 814.0, 812.0, 811.0, 808.0, 811.0, 808.0, 812.0, 810.0, 813.0, 812.0, 811.0, 809.0, 807.0, 808.0, 811.0, 809.0, 813.0, 810.0, 813.0, 810.0, 814.0, 809.0, 812.0, 813.0, 809.0, 809.0, 806.0, 808.0, 810.0, 805.0, 811.0, 808.0, 811.0, 810.0, 807.0, 809.0, 810.0, 808.0, 809.0, 811.0, 808.0, 810.0, 808.0, 808.0, 810.0, 809.0, 815.0, 813.0, 819.0, 814.0, 813.0, 809.0, 812.0, 807.0, 810.0, 804.0, 804.0, 805.0, 802.0, 805.0, 801.0, 804.0, 806.0, 807.0, 807.0, 806.0, 807.0, 809.0, 810.0, 805.0, 806.0, 808.0, 806.0, 808.0, 812.0, 810.0, 812.0, 810.0, 812.0, 811.0, 807.0, 812.0, 812.0, 814.0, 815.0, 813.0, 816.0, 813.0, 811.0, 812.0, 809.0, 808.0, 811.0, 807.0, 810.0, 812.0, 810.0, 810.0, 809.0, 808.0, 812.0, 809.0, 809.0, 809.0, 810.0, 811.0, 807.0, 808.0, 810.0, 803.0, 807.0, 810.0, 806.0, 811.0, 810.0]
    },
    "slices": {}
  }
}