{
  "AcquisitionMatrixPE": 96,
  "AcquisitionNumber": 1,
  "AcquisitionTime": "18:04:19.597500",
  "BandwidthPerPixelPhaseEncode": 18.939,
  "BaseResolution": 96,
  "BodyPartExamined": "BRAIN",
  "ConsistencyInfo": "N4_VE11C_LATEST_20160120",
  "ConversionSoftware": "dcm2niix",
  "ConversionSoftwareVersion": "v1.0.20170923 (OpenJPEG build) GCC6.3.0",
  "DerivedVendorReportedEchoSpacing": 0.000550011,
  "DeviceSerialNumber": "66112",
  "DwellTime": 2.3e-06,
  "EchoTime": 0.033,
  "EchoTrainLength": 96,
  "EffectiveEchoSpacing": 0.000550011,
  "FlipAngle": 64,
  "ImageType": [
    "ORIGINAL",
    "PRIMARY",
    "FMRI",
    "NONE",
    "ND",
    "NORM",
    "MOSAIC"
],
  "InstitutionAddress": "Maynard_3_Hanover_NH_US_03755",
  "InstitutionName": "Dartmouth_College_-_PBS",
  "MagneticFieldStrength": 3,
  "Manufacturer": "Siemens",
  "ManufacturersModelName": "Prisma",
  "Modality": "MR",
  "MultibandAccelerationFactor": 4,
  "PartialFourier": 1,
  "PercentPhaseFOV": 100,
  "PhaseEncodingDirection": "j-",
  "PhaseEncodingSteps": 96,
  "PhaseResolution": 1,
  "ProcedureStepDescription": "Gobbini_Matteo_1017_famface-angles",
  "ProtocolName": "func_run-08_task-fam1back",
  "PulseSequenceDetails": "%SiemensSeq%_ep2d_bold",
  "ReceiveCoilActiveElements": "HEA;HEP",
  "ReceiveCoilName": "Head_32",
  "ReconMatrixPE": 96,
  "RepetitionTime": 1.25,
  "ScanOptions": "FS",
  "ScanningSequence": "EP",
  "SequenceName": "_epfid2d1_96",
  "SequenceVariant": "SK",
  "SeriesDescription": "func_run-08_task-fam1back",
  "SliceTiming": [0.8775, 0, 0.615, 0.0875, 0.7025, 0.175, 0.79, 0.35, 0.965, 0.4375, 1.0525, 0.5275, 1.14, 0.2625, 0.8775, 0, 0.615, 0.0875, 0.7025, 0.175, 0.79, 0.35, 0.965, 0.4375, 1.0525, 0.5275, 1.14, 0.2625, 0.8775, 0, 0.615, 0.0875, 0.7025, 0.175, 0.79, 0.35, 0.965, 0.4375, 1.0525, 0.5275, 1.14, 0.2625, 0.8775, 0, 0.615, 0.0875, 0.7025, 0.175, 0.79, 0.35, 0.965, 0.4375, 1.0525, 0.5275, 1.14, 0.2625],
  "SoftwareVersions": "syngo_MR_E11",
  "StationName": "AWP66112",
  "TaskName": "fam1back",
  "TotalReadoutTime": 0.0522511,
  "dcmmeta_affine": [
    [-2.4995503425598145, -0.042320720851421356, -0.0213693305850029, 119.49958038330078],
    [-0.04386705160140991, 2.491920232772827, 0.19598422944545746, -101.56809997558594],
    [-0.017982587218284607, -0.1963239461183548, 2.4922146797180176, -50.92919158935547],
    [0.0, 0.0, 0.0, 1.0]
],
  "dcmmeta_reorient_transform": [
    [0.0, -1.0, 0.0, 95.0],
    [1.0, 0.0, 0.0, 0.0],
    [0.0, 0.0, 1.0, 0.0],
    [0.0, 0.0, 0.0, 1.0]
],
  "dcmmeta_shape": [96, 96, 56, 280],
  "dcmmeta_slice_dim": 2,
  "dcmmeta_version": 0.6,
  "global": {
    "const": {
      "AccessionNumber": "A000489",
      "AcquisitionMatrix": [96, 0, 0, 96],
      "AngioFlag": "N",
      "BitsAllocated": 16,
      "BitsStored": 12,
      "BodyPartExamined": "BRAIN",
      "Columns": 768,
      "EchoNumbers": 1,
      "EchoTime": 33.0,
      "EchoTrainLength": 96,
      "FlipAngle": 64.0,
      "HighBit": 11,
      "ImageOrientationPatient": [0.99982016850186, 0.01754682031476, -0.007193035086, -0.0169282880447, 0.99676804653708, 0.07852957701737],
      "ImagePositionPatient": [-941.10829375702, -987.18879679782, -129.50266109514],
      "ImageType": [
        "ORIGINAL",
        "PRIMARY",
        "FMRI",
        "NONE",
        "ND",
        "NORM",
        "MOSAIC"
],
      "ImagedNucleus": "1H",
      "ImagingFrequency": 123.25255,
      "InPlanePhaseEncodingDirection": "COL",
      "MRAcquisitionType": "2D",
      "MagneticFieldStrength": 3.0,
      "Manufacturer": "SIEMENS",
      "ManufacturerModelName": "Prisma",
      "Modality": "MR",
      "NumberOfAverages": 1.0,
      "NumberOfPhaseEncodingSteps": 96,
      "PercentPhaseFieldOfView": 100.0,
      "PercentSampling": 100.0,
      "PerformedProcedureStepStartTime": "170720.360000",
      "PhotometricInterpretation": "MONOCHROME2",
      "PixelBandwidth": 2265.0,
      "PixelRepresentation": 0,
      "PixelSpacing": [2.5, 2.5],
      "PositionReferenceIndicator": "",
      "ProtocolName": "func_run-08_task-fam1back",
      "RepetitionTime": 1250.0,
      "Rows": 768,
      "SAR": 0.04777419041936,
      "SamplesPerPixel": 1,
      "ScanOptions": "FS",
      "ScanningSequence": "EP",
      "SequenceName": "*epfid2d1_96",
      "SequenceVariant": "SK",
      "SeriesDescription": "func_run-08_task-fam1back",
      "SeriesNumber": 57,
      "SeriesTime": "180421.303000",
      "SliceLocation": -59.754338012404,
      "SliceThickness": 2.5,
      "SmallestImagePixelValue": 0,
      "SoftwareVersions": "syngo MR E11",
      "SpacingBetweenSlices": 2.5000000336875,
      "SpecificCharacterSet": "ISO_IR 100",
      "StudyID": "1",
      "StudyTime": "170720.301000",
      "TransmitCoilName": "Body",
      "VariableFlipAngleFlag": "N",
      "WindowCenterWidthExplanation": "Algo1",
      "dBdt": 0.0},
    "slices": {}
  },
  "time": {
    "samples": {
      "AcquisitionNumber": [1, 2, 3, 4, 5, 6, 7, 8, 9, 10, 11, 12, 13, 14, 15, 16, 17, 18, 19, 20, 21, 22, 23, 24, 25, 26, 27, 28, 29, 30, 31, 32, 33, 34, 35, 36, 37, 38, 39, 40, 41, 42, 43, 44, 45, 46, 47, 48, 49, 50, 51, 52, 53, 54, 55, 56, 57, 58, 59, 60, 61, 62, 63, 64, 65, 66, 67, 68, 69, 70, 71, 72, 73, 74, 75, 76, 77, 78, 79, 80, 81, 82, 83, 84, 85, 86, 87, 88, 89, 90, 91, 92, 93, 94, 95, 96, 97, 98, 99, 100, 101, 102, 103, 104, 105, 106, 107, 108, 109, 110, 111, 112, 113, 114, 115, 116, 117, 118, 119, 120, 121, 122, 123, 124, 125, 126, 127, 128, 129, 130, 131, 132, 133, 134, 135, 136, 137, 138, 139, 140, 141, 142, 143, 144, 145, 146, 147, 148, 149, 150, 151, 152, 153, 154, 155, 156, 157, 158, 159, 160, 161, 162, 163, 164, 165, 166, 167, 168, 169, 170, 171, 172, 173, 174, 175, 176, 177, 178, 179, 180, 181, 182, 183, 184, 185, 186, 187, 188, 189, 190, 191, 192, 193, 194, 195, 196, 197, 198, 199, 200, 201, 202, 203, 204, 205, 206, 207, 208, 209, 210, 211, 212, 213, 214, 215, 216, 217, 218, 219, 220, 221, 222, 223, 224, 225, 226, 227, 228, 229, 230, 231, 232, 233, 234, 235, 236, 237, 238, 239, 240, 241, 242, 243, 244, 245, 246, 247, 248, 249, 250, 251, 252, 253, 254, 255, 256, 257, 258, 259, 260, 261, 262, 263, 264, 265, 266, 267, 268, 269, 270, 271, 272, 273, 274, 275, 276, 277, 278, 279, 280],
      "AcquisitionTime": ["180419.597500", "180420.847500", "180422.097500", "180423.347500", "180424.597500", "180425.847500", "180427.097500", "180428.347500", "180429.597500", "180430.847500", "180432.097500", "180433.347500", "180434.597500", "180435.847500", "180437.097500", "180438.347500", "180439.597500", "180440.847500", "180442.097500", "180443.347500", "180444.597500", "180445.847500", "180447.097500", "180448.347500", "180449.597500", "180450.847500", "180452.097500", "180453.347500", "180454.597500", "180455.847500", "180457.097500", "180458.347500", "180459.597500", "180500.847500", "180502.097500", "180503.347500", "180504.597500", "180505.847500", "180507.097500", "180508.347500", "180509.597500", "180510.847500", "180512.097500", "180513.347500", "180514.597500", "180515.847500", "180517.097500", "180518.347500", "180519.597500", "180520.847500", "180522.097500", "180523.347500", "180524.597500", "180525.847500", "180527.097500", "180528.347500", "180529.597500", "180530.847500", "180532.097500", "180533.347500", "180534.597500", "180535.847500", "180537.097500", "180538.347500", "180539.597500", "180540.847500", "180542.097500", "180543.347500", "180544.597500", "180545.847500", "180547.097500", "180548.347500", "180549.597500", "180550.847500", "180552.097500", "180553.347500", "180554.597500", "180555.847500", "180557.097500", "180558.347500", "180559.597500", "180600.847500", "180602.097500", "180603.347500", "180604.597500", "180605.847500", "180607.097500", "180608.347500", "180609.597500", "180610.847500", "180612.097500", "180613.347500", "180614.597500", "180615.847500", "180617.097500", "180618.347500", "180619.597500", "180620.847500", "180622.097500", "180623.347500", "180624.597500", "180625.847500", "180627.097500", "180628.347500", "180629.597500", "180630.847500", "180632.097500", "180633.347500", "180634.597500", "180635.847500", "180637.097500", "180638.347500", "180639.597500", "180640.847500", "180642.097500", "180643.347500", "180644.597500", "180645.847500", "180647.097500", "180648.347500", "180649.597500", "180650.847500", "180652.097500", "180653.347500", "180654.597500", "180655.847500", "180657.097500", "180658.347500", "180659.597500", "180700.847500", "180702.097500", "180703.347500", "180704.597500", "180705.847500", "180707.097500", "180708.347500", "180709.597500", "180710.847500", "180712.097500", "180713.347500", "180714.597500", "180715.847500", "180717.097500", "180718.347500", "180719.597500", "180720.847500", "180722.097500", "180723.347500", "180724.597500", "180725.847500", "180727.097500", "180728.347500", "180729.597500", "180730.847500", "180732.097500", "180733.347500", "180734.597500", "180735.847500", "180737.097500", "180738.347500", "180739.597500", "180740.847500", "180742.097500", "180743.347500", "180744.597500", "180745.847500", "180747.097500", "180748.347500", "180749.597500", "180750.847500", "180752.097500", "180753.347500", "180754.597500", "180755.847500", "180757.097500", "180758.347500", "180759.597500", "180800.847500", "180802.097500", "180803.347500", "180804.597500", "180805.847500", "180807.097500", "180808.347500", "180809.597500", "180810.847500", "180812.097500", "180813.347500", "180814.597500", "180815.847500", "180817.097500", "180818.347500", "180819.597500", "180820.847500", "180822.097500", "180823.347500", "180824.597500", "180825.847500", "180827.097500", "180828.347500", "180829.597500", "180830.847500", "180832.097500", "180833.347500", "180834.597500", "180835.847500", "180837.097500", "180838.347500", "180839.597500", "180840.847500", "180842.097500", "180843.347500", "180844.597500", "180845.847500", "180847.097500", "180848.347500", "180849.597500", "180850.847500", "180852.097500", "180853.347500", "180854.597500", "180855.847500", "180857.097500", "180858.347500", "180859.597500", "180900.847500", "180902.097500", "180903.347500", "180904.597500", "180905.847500", "180907.097500", "180908.347500", "180909.597500", "180910.847500", "180912.097500", "180913.347500", "180914.597500", "180915.847500", "180917.097500", "180918.347500", "180919.597500", "180920.847500", "180922.097500", "180923.347500", "180924.597500", "180925.847500", "180927.097500", "180928.347500", "180929.597500", "180930.847500", "180932.097500", "180933.347500", "180934.597500", "180935.847500", "180937.097500", "180938.347500", "180939.597500", "180940.847500", "180942.097500", "180943.347500", "180944.597500", "180945.847500", "180947.097500", "180948.347500", "180949.597500", "180950.847500", "180952.097500", "180953.347500", "180954.597500", "180955.847500", "180957.097500", "180958.347500", "180959.597500", "181000.847500", "181002.097500", "181003.347500", "181004.597500", "181005.847500", "181007.097500", "181008.347500"],
      "ContentTime": ["180421.307000", "180422.353000", "180423.648000", "180424.872000", "180426.120000", "180427.350000", "180428.607000", "180429.889000", "180431.166000", "180432.364000", "180433.607000", "180434.896000", "180436.163000", "180437.405000", "180438.601000", "180439.890000", "180441.126000", "180442.405000", "180443.600000", "180444.870000", "180446.120000", "180447.391000", "180448.621000", "180449.894000", "180451.127000", "180452.396000", "180453.631000", "180454.891000", "180456.111000", "180457.380000", "180458.632000", "180459.867000", "180501.122000", "180502.398000", "180503.642000", "180504.871000", "180506.119000", "180507.373000", "180508.644000", "180509.898000", "180511.126000", "180512.402000", "180513.604000", "180514.845000", "180516.101000", "180517.349000", "180518.626000", "180519.862000", "180521.141000", "180522.379000", "180523.625000", "180524.874000", "180526.122000", "180527.424000", "180528.652000", "180529.882000", "180531.074000", "180532.369000", "180533.631000", "180534.882000", "180536.122000", "180537.396000", "180538.616000", "180539.897000", "180541.098000", "180542.387000", "180543.615000", "180544.881000", "180546.205000", "180547.361000", "180548.599000", "180549.860000", "180551.116000", "180552.383000", "180553.615000", "180554.861000", "180556.151000", "180557.349000", "180558.607000", "180559.873000", "180601.138000", "180602.372000", "180603.613000", "180604.876000", "180606.126000", "180607.405000", "180608.629000", "180609.865000", "180611.105000", "180612.378000", "180613.640000", "180614.853000", "180616.177000", "180617.383000", "180618.629000", "180619.902000", "180621.137000", "180622.375000", "180623.608000", "180624.844000", "180626.156000", "180627.366000", "180628.609000", "180629.862000", "180631.173000", "180632.386000", "180633.678000", "180634.878000", "180636.149000", "180637.383000", "180638.624000", "180639.899000", "180641.169000", "180642.390000", "180643.621000", "180644.850000", "180646.113000", "180647.388000", "180648.636000", "180649.936000", "180651.152000", "180652.395000", "180653.626000", "180654.903000", "180656.134000", "180657.414000", "180658.627000", "180659.949000", "180701.129000", "180702.419000", "180703.637000", "180704.886000", "180706.130000", "180707.379000", "180708.649000", "180709.877000", "180711.177000", "180712.412000", "180713.645000", "180714.874000", "180716.152000", "180717.390000", "180718.632000", "180719.884000", "180721.117000", "180722.373000", "180723.624000", "180724.875000", "180726.148000", "180727.402000", "180728.640000", "180729.869000", "180731.145000", "180732.387000", "180733.620000", "180734.845000", "180736.093000", "180737.418000", "180738.629000", "180739.902000", "180741.130000", "180742.389000", "180743.613000", "180744.876000", "180746.115000", "180747.394000", "180748.625000", "180749.880000", "180751.130000", "180752.382000", "180753.631000", "180754.876000", "180756.133000", "180757.348000", "180758.606000", "180759.926000", "180801.124000", "180802.391000", "180803.667000", "180804.842000", "180806.144000", "180807.376000", "180808.618000", "180809.842000", "180811.097000", "180812.402000", "180813.636000", "180814.888000", "180816.115000", "180817.365000", "180818.649000", "180819.884000", "180821.127000", "180822.393000", "180823.585000", "180824.890000", "180826.114000", "180827.367000", "180828.626000", "180829.875000", "180831.190000", "180832.387000", "180833.611000", "180834.907000", "180836.122000", "180837.384000", "180838.632000", "180839.875000", "180841.135000", "180842.384000", "180843.625000", "180844.883000", "180846.129000", "180847.372000", "180848.610000", "180849.878000", "180851.156000", "180852.384000", "180853.623000", "180854.873000", "180856.152000", "180857.387000", "180858.676000", "180859.887000", "180901.138000", "180902.408000", "180903.637000", "180904.908000", "180906.143000", "180907.387000", "180908.657000", "180909.945000", "180911.127000", "180912.375000", "180913.642000", "180914.862000", "180916.127000", "180917.373000", "180918.601000", "180919.882000", "180921.126000", "180922.367000", "180923.641000", "180924.901000", "180926.154000", "180927.385000", "180928.672000", "180929.915000", "180931.183000", "180932.415000", "180933.605000", "180934.907000", "180936.098000", "180937.378000", "180938.624000", "180939.866000", "180941.158000", "180942.383000", "180943.652000", "180944.874000", "180946.117000", "180947.394000", "180948.640000", "180949.922000", "180951.116000", "180952.378000", "180953.626000", "180954.874000", "180956.132000", "180957.367000", "180958.612000", "180959.885000", "181001.148000", "181002.366000", "181003.641000", "181004.882000", "181006.125000", "181007.370000", "181008.622000", "181009.922000"],
      "InstanceCreationTime": ["180421.307000", "180422.353000", "180423.648000", "180424.872000", "180426.120000", "180427.350000", "180428.607000", "180429.889000", "180431.166000", "180432.364000", "180433.607000", "180434.896000", "180436.163000", "180437.405000", "180438.601000", "180439.890000", "180441.126000", "180442.405000", "180443.600000", "180444.870000", "180446.120000", "180447.391000", "180448.621000", "180449.894000", "180451.127000", "180452.396000", "180453.631000", "180454.891000", "180456.111000", "180457.380000", "180458.632000", "180459.867000", "180501.122000", "180502.398000", "180503.642000", "180504.871000", "180506.119000", "180507.373000", "180508.644000", "180509.898000", "180511.126000", "180512.402000", "180513.604000", "180514.845000", "180516.101000", "180517.349000", "180518.626000", "180519.862000", "180521.141000", "180522.379000", "180523.625000", "180524.874000", "180526.122000", "180527.424000", "180528.652000", "180529.882000", "180531.074000", "180532.369000", "180533.631000", "180534.882000", "180536.122000", "180537.396000", "180538.616000", "180539.897000", "180541.098000", "180542.387000", "180543.615000", "180544.881000", "180546.205000", "180547.361000", "180548.599000", "180549.860000", "180551.116000", "180552.383000", "180553.615000", "180554.861000", "180556.151000", "180557.349000", "180558.607000", "180559.873000", "180601.138000", "180602.372000", "180603.613000", "180604.876000", "180606.126000", "180607.405000", "180608.629000", "180609.865000", "180611.105000", "180612.378000", "180613.640000", "180614.853000", "180616.177000", "180617.383000", "180618.629000", "180619.902000", "180621.137000", "180622.375000", "180623.608000", "180624.844000", "180626.156000", "180627.366000", "180628.609000", "180629.862000", "180631.173000", "180632.386000", "180633.678000", "180634.878000", "180636.149000", "180637.383000", "180638.624000", "180639.899000", "180641.169000", "180642.390000", "180643.621000", "180644.850000", "180646.113000", "180647.388000", "180648.636000", "180649.936000", "180651.152000", "180652.395000", "180653.626000", "180654.903000", "180656.134000", "180657.414000", "180658.627000", "180659.949000", "180701.129000", "180702.419000", "180703.637000", "180704.886000", "180706.130000", "180707.379000", "180708.649000", "180709.877000", "180711.177000", "180712.412000", "180713.645000", "180714.874000", "180716.152000", "180717.390000", "180718.632000", "180719.884000", "180721.117000", "180722.373000", "180723.624000", "180724.875000", "180726.148000", "180727.402000", "180728.640000", "180729.869000", "180731.145000", "180732.387000", "180733.620000", "180734.845000", "180736.093000", "180737.418000", "180738.629000", "180739.902000", "180741.130000", "180742.389000", "180743.613000", "180744.876000", "180746.115000", "180747.394000", "180748.625000", "180749.880000", "180751.130000", "180752.382000", "180753.631000", "180754.876000", "180756.133000", "180757.348000", "180758.606000", "180759.926000", "180801.124000", "180802.391000", "180803.667000", "180804.842000", "180806.144000", "180807.376000", "180808.618000", "180809.842000", "180811.097000", "180812.402000", "180813.636000", "180814.888000", "180816.115000", "180817.365000", "180818.649000", "180819.884000", "180821.127000", "180822.393000", "180823.585000", "180824.890000", "180826.114000", "180827.367000", "180828.626000", "180829.875000", "180831.190000", "180832.387000", "180833.611000", "180834.907000", "180836.122000", "180837.384000", "180838.632000", "180839.875000", "180841.135000", "180842.384000", "180843.625000", "180844.883000", "180846.129000", "180847.372000", "180848.610000", "180849.878000", "180851.156000", "180852.384000", "180853.623000", "180854.873000", "180856.152000", "180857.387000", "180858.676000", "180859.887000", "180901.138000", "180902.408000", "180903.637000", "180904.908000", "180906.143000", "180907.387000", "180908.657000", "180909.945000", "180911.127000", "180912.375000", "180913.642000", "180914.862000", "180916.127000", "180917.373000", "180918.601000", "180919.882000", "180921.126000", "180922.367000", "180923.641000", "180924.901000", "180926.154000", "180927.385000", "180928.672000", "180929.915000", "180931.183000", "180932.415000", "180933.605000", "180934.907000", "180936.098000", "180937.378000", "180938.624000", "180939.866000", "180941.158000", "180942.383000", "180943.652000", "180944.874000", "180946.117000", "180947.394000", "180948.640000", "180949.922000", "180951.116000", "180952.378000", "180953.626000", "180954.874000", "180956.132000", "180957.367000", "180958.612000", "180959.885000", "181001.148000", "181002.366000", "181003.641000", "181004.882000", "181006.125000", "181007.370000", "181008.622000", "181009.922000"],
      "InstanceNumber": [1, 2, 3, 4, 5, 6, 7, 8, 9, 10, 11, 12, 13, 14, 15, 16, 17, 18, 19, 20, 21, 22, 23, 24, 25, 26, 27, 28, 29, 30, 31, 32, 33, 34, 35, 36, 37, 38, 39, 40, 41, 42, 43, 44, 45, 46, 47, 48, 49, 50, 51, 52, 53, 54, 55, 56, 57, 58, 59, 60, 61, 62, 63, 64, 65, 66, 67, 68, 69, 70, 71, 72, 73, 74, 75, 76, 77, 78, 79, 80, 81, 82, 83, 84, 85, 86, 87, 88, 89, 90, 91, 92, 93, 94, 95, 96, 97, 98, 99, 100, 101, 102, 103, 104, 105, 106, 107, 108, 109, 110, 111, 112, 113, 114, 115, 116, 117, 118, 119, 120, 121, 122, 123, 124, 125, 126, 127, 128, 129, 130, 131, 132, 133, 134, 135, 136, 137, 138, 139, 140, 141, 142, 143, 144, 145, 146, 147, 148, 149, 150, 151, 152, 153, 154, 155, 156, 157, 158, 159, 160, 161, 162, 163, 164, 165, 166, 167, 168, 169, 170, 171, 172, 173, 174, 175, 176, 177, 178, 179, 180, 181, 182, 183, 184, 185, 186, 187, 188, 189, 190, 191, 192, 193, 194, 195, 196, 197, 198, 199, 200, 201, 202, 203, 204, 205, 206, 207, 208, 209, 210, 211, 212, 213, 214, 215, 216, 217, 218, 219, 220, 221, 222, 223, 224, 225, 226, 227, 228, 229, 230, 231, 232, 233, 234, 235, 236, 237, 238, 239, 240, 241, 242, 243, 244, 245, 246, 247, 248, 249, 250, 251, 252, 253, 254, 255, 256, 257, 258, 259, 260, 261, 262, 263, 264, 265, 266, 267, 268, 269, 270, 271, 272, 273, 274, 275, 276, 277, 278, 279, 280],
      "LargestImagePixelValue": [1118, 937, 1060, 1132, 845, 1109, 1152, 961, 1058, 1098, 846, 1063, 1153, 965, 1029, 839, 1097, 1110, 1011, 1083, 881, 1063, 1086, 997, 1063, 942, 1028, 1140, 937, 1092, 1091, 839, 1090, 933, 1051, 1105, 832, 1126, 1121, 1046, 1092, 998, 993, 1059, 969, 1118, 938, 975, 1073, 1075, 1106, 1167, 1070, 1147, 870, 1148, 895, 1030, 1115, 910, 1098, 852, 1135, 1011, 1004, 1131, 874, 1129, 875, 1101, 1168, 941, 1050, 1116, 834, 1125, 966, 1000, 1131, 898, 1098, 1171, 935, 1077, 1139, 1004, 1090, 890, 1043, 1139, 887, 1023, 1283, 864, 1026, 893, 1154, 990, 1083, 1144, 1038, 1161, 990, 1186, 1131, 1057, 1124, 835, 1142, 914, 1047, 1116, 829, 1022, 1124, 822, 991, 1112, 827, 1084, 1087, 852, 1107, 939, 1068, 1132, 827, 1129, 1130, 822, 1120, 1027, 1029, 1161, 932, 1054, 1151, 1019, 944, 1140, 1160, 967, 1018, 1167, 891, 1160, 879, 1184, 946, 1115, 1081, 1045, 1160, 816, 1069, 1175, 861, 1137, 1101, 986, 1139, 828, 1127, 1096, 933, 1167, 939, 1114, 1107, 983, 1166, 892, 1134, 1183, 892, 1114, 1163, 900, 1099, 977, 1151, 1121, 958, 1136, 1163, 854, 1093, 1136, 850, 1144, 1145, 871, 1148, 1039, 980, 1174, 883, 1174, 1036, 1002, 1180, 834, 1157, 1170, 824, 1119, 1184, 916, 1177, 897, 1183, 992, 1089, 1169, 1052, 1022, 1133, 1128, 823, 1117, 1138, 879, 1152, 1108, 901, 1144, 932, 1096, 1199, 893, 1146, 949, 1088, 1171, 835, 1046, 1169, 876, 1102, 1194, 880, 1111, 1156, 963, 1176, 922, 1176, 1028, 1090, 1214, 1031, 1052, 1167, 847, 1028, 1138, 819, 1090, 1128, 909, 1048, 1081, 865, 1065, 1095, 872, 1058, 820, 1083, 915, 1011, 977, 1137, 968, 1064, 1108, 929, 1123, 957, 1126],
      "WindowCenter": [384.0, 382.0, 382.0, 383.0, 380.0, 382.0, 383.0, 380.0, 381.0, 381.0, 378.0, 381.0, 382.0, 380.0, 382.0, 380.0, 383.0, 383.0, 382.0, 382.0, 380.0, 381.0, 382.0, 381.0, 381.0, 379.0, 381.0, 381.0, 378.0, 380.0, 380.0, 378.0, 381.0, 380.0, 381.0, 382.0, 379.0, 381.0, 381.0, 381.0, 381.0, 381.0, 381.0, 382.0, 381.0, 382.0, 381.0, 382.0, 382.0, 381.0, 381.0, 381.0, 381.0, 380.0, 379.0, 381.0, 380.0, 381.0, 381.0, 380.0, 382.0, 381.0, 383.0, 381.0, 381.0, 382.0, 380.0, 382.0, 380.0, 382.0, 382.0, 380.0, 381.0, 381.0, 378.0, 381.0, 380.0, 381.0, 382.0, 380.0, 382.0, 382.0, 380.0, 381.0, 382.0, 379.0, 381.0, 380.0, 381.0, 381.0, 379.0, 381.0, 382.0, 378.0, 380.0, 381.0, 386.0, 384.0, 384.0, 383.0, 383.0, 383.0, 380.0, 381.0, 380.0, 378.0, 378.0, 376.0, 380.0, 378.0, 379.0, 381.0, 378.0, 379.0, 380.0, 378.0, 379.0, 381.0, 379.0, 382.0, 382.0, 380.0, 383.0, 382.0, 383.0, 383.0, 380.0, 382.0, 382.0, 379.0, 382.0, 382.0, 382.0, 382.0, 381.0, 382.0, 383.0, 382.0, 381.0, 383.0, 382.0, 379.0, 381.0, 382.0, 380.0, 382.0, 380.0, 383.0, 381.0, 381.0, 381.0, 380.0, 380.0, 377.0, 380.0, 381.0, 379.0, 381.0, 381.0, 380.0, 382.0, 379.0, 383.0, 384.0, 381.0, 383.0, 381.0, 382.0, 381.0, 380.0, 381.0, 378.0, 380.0, 379.0, 377.0, 378.0, 379.0, 378.0, 380.0, 380.0, 382.0, 383.0, 381.0, 382.0, 382.0, 379.0, 381.0, 382.0, 379.0, 382.0, 382.0, 380.0, 383.0, 382.0, 382.0, 384.0, 381.0, 383.0, 382.0, 381.0, 383.0, 380.0, 382.0, 382.0, 378.0, 381.0, 382.0, 381.0, 384.0, 381.0, 384.0, 382.0, 382.0, 382.0, 381.0, 380.0, 380.0, 380.0, 377.0, 381.0, 382.0, 380.0, 382.0, 382.0, 380.0, 382.0, 380.0, 382.0, 383.0, 381.0, 382.0, 381.0, 382.0, 382.0, 379.0, 380.0, 382.0, 379.0, 381.0, 382.0, 380.0, 383.0, 384.0, 383.0, 385.0, 382.0, 384.0, 382.0, 382.0, 382.0, 380.0, 379.0, 380.0, 377.0, 378.0, 379.0, 377.0, 380.0, 380.0, 379.0, 380.0, 380.0, 379.0, 381.0, 382.0, 380.0, 383.0, 380.0, 385.0, 383.0, 383.0, 383.0, 383.0, 382.0, 382.0, 382.0, 381.0, 382.0, 382.0, 383.0],
      "WindowWidth": [816.0, 812.0, 812.0, 813.0, 809.0, 811.0, 812.0, 809.0, 809.0, 810.0, 806.0, 810.0, 811.0, 807.0, 811.0, 809.0, 813.0, 812.0, 811.0, 811.0, 808.0, 810.0, 812.0, 810.0, 811.0, 806.0, 809.0, 810.0, 805.0, 808.0, 808.0, 805.0, 810.0, 808.0, 808.0, 812.0, 806.0, 809.0, 810.0, 809.0, 809.0, 809.0, 809.0, 811.0, 811.0, 811.0, 810.0, 811.0, 812.0, 810.0, 810.0, 809.0, 809.0, 808.0, 806.0, 809.0, 807.0, 809.0, 809.0, 809.0, 811.0, 810.0, 813.0, 810.0, 810.0, 811.0, 808.0, 811.0, 808.0, 811.0, 811.0, 808.0, 809.0, 809.0, 806.0, 809.0, 808.0, 809.0, 811.0, 808.0, 811.0, 811.0, 808.0, 810.0, 811.0, 806.0, 810.0, 808.0, 809.0, 809.0, 807.0, 809.0, 811.0, 804.0, 808.0, 810.0, 818.0, 816.0, 815.0, 814.0, 813.0, 813.0, 808.0, 809.0, 807.0, 805.0, 804.0, 802.0, 806.0, 804.0, 806.0, 808.0, 805.0, 807.0, 808.0, 804.0, 807.0, 809.0, 806.0, 811.0, 811.0, 809.0, 813.0, 811.0, 812.0, 813.0, 809.0, 812.0, 812.0, 808.0, 812.0, 812.0, 812.0, 812.0, 810.0, 811.0, 813.0, 811.0, 810.0, 813.0, 811.0, 807.0, 809.0, 810.0, 808.0, 812.0, 808.0, 813.0, 810.0, 809.0, 809.0, 807.0, 808.0, 803.0, 807.0, 809.0, 806.0, 810.0, 810.0, 808.0, 811.0, 807.0, 812.0, 814.0, 811.0, 813.0, 810.0, 811.0, 810.0, 808.0, 809.0, 805.0, 808.0, 805.0, 804.0, 804.0, 806.0, 805.0, 807.0, 808.0, 811.0, 812.0, 810.0, 811.0, 811.0, 807.0, 810.0, 810.0, 807.0, 811.0, 811.0, 808.0, 812.0, 812.0, 811.0, 814.0, 811.0, 814.0, 812.0, 811.0, 813.0, 808.0, 811.0, 811.0, 805.0, 809.0, 811.0, 811.0, 814.0, 810.0, 814.0, 812.0, 811.0, 811.0, 809.0, 808.0, 808.0, 807.0, 804.0, 808.0, 810.0, 808.0, 812.0, 810.0, 808.0, 811.0, 809.0, 811.0, 813.0, 810.0, 812.0, 811.0, 811.0, 812.0, 807.0, 808.0, 811.0, 807.0, 809.0, 811.0, 808.0, 813.0, 814.0, 813.0, 817.0, 813.0, 814.0, 811.0, 811.0, 811.0, 807.0, 805.0, 807.0, 803.0, 804.0, 806.0, 803.0, 807.0, 808.0, 806.0, 808.0, 808.0, 807.0, 810.0, 811.0, 808.0, 813.0, 809.0, 816.0, 814.0, 814.0, 813.0, 814.0, 811.0, 811.0, 812.0, 811.0, 811.0, 813.0, 814.0]
    },
    "slices": {}
  }
}