{
  "AcquisitionMatrixPE": 96,
  "AcquisitionNumber": 1,
  "AcquisitionTime": "18:17:0.685000",
  "BandwidthPerPixelPhaseEncode": 18.939,
  "BaseResolution": 96,
  "BodyPartExamined": "BRAIN",
  "ConsistencyInfo": "N4_VE11C_LATEST_20160120",
  "ConversionSoftware": "dcm2niix",
  "ConversionSoftwareVersion": "v1.0.20170923 (OpenJPEG build) GCC6.3.0",
  "DerivedVendorReportedEchoSpacing": 0.000550011,
  "DeviceSerialNumber": "66112",
  "DwellTime": 2.3e-06,
  "EchoTime": 0.033,
  "EchoTrainLength": 96,
  "EffectiveEchoSpacing": 0.000550011,
  "FlipAngle": 64,
  "ImageType": [
    "ORIGINAL",
    "PRIMARY",
    "FMRI",
    "NONE",
    "ND",
    "NORM",
    "MOSAIC"
],
  "InstitutionAddress": "Maynard_3_Hanover_NH_US_03755",
  "InstitutionName": "Dartmouth_College_-_PBS",
  "MagneticFieldStrength": 3,
  "Manufacturer": "Siemens",
  "ManufacturersModelName": "Prisma",
  "Modality": "MR",
  "MultibandAccelerationFactor": 4,
  "PartialFourier": 1,
  "PercentPhaseFOV": 100,
  "PhaseEncodingDirection": "j-",
  "PhaseEncodingSteps": 96,
  "PhaseResolution": 1,
  "ProcedureStepDescription": "Gobbini_Matteo_1017_famface-angles",
  "ProtocolName": "func_run-10_task-fam1back",
  "PulseSequenceDetails": "%SiemensSeq%_ep2d_bold",
  "ReceiveCoilActiveElements": "HEA;HEP",
  "ReceiveCoilName": "Head_32",
  "ReconMatrixPE": 96,
  "RepetitionTime": 1.25,
  "ScanOptions": "FS",
  "ScanningSequence": "EP",
  "SequenceName": "_epfid2d1_96",
  "SequenceVariant": "SK",
  "SeriesDescription": "func_run-10_task-fam1back",
  "SliceTiming": [0.8775, 0, 0.615, 0.0875, 0.7025, 0.175, 0.79, 0.35, 0.965, 0.4375, 1.0525, 0.525, 1.14, 0.2625, 0.8775, 0, 0.615, 0.0875, 0.7025, 0.175, 0.79, 0.35, 0.965, 0.4375, 1.0525, 0.525, 1.14, 0.2625, 0.8775, 0, 0.615, 0.0875, 0.7025, 0.175, 0.79, 0.35, 0.965, 0.4375, 1.0525, 0.525, 1.14, 0.2625, 0.8775, 0, 0.615, 0.0875, 0.7025, 0.175, 0.79, 0.35, 0.965, 0.4375, 1.0525, 0.525, 1.14, 0.2625],
  "SoftwareVersions": "syngo_MR_E11",
  "StationName": "AWP66112",
  "TaskName": "fam1back",
  "TotalReadoutTime": 0.0522511,
  "dcmmeta_affine": [
    [-2.4995503425598145, -0.042320720851421356, -0.0213693305850029, 119.49958038330078],
    [-0.04386705160140991, 2.491920232772827, 0.19598422944545746, -101.56809997558594],
    [-0.017982587218284607, -0.1963239461183548, 2.4922146797180176, -50.92919158935547],
    [0.0, 0.0, 0.0, 1.0]
],
  "dcmmeta_reorient_transform": [
    [0.0, -1.0, 0.0, 95.0],
    [1.0, 0.0, 0.0, 0.0],
    [0.0, 0.0, 1.0, 0.0],
    [0.0, 0.0, 0.0, 1.0]
],
  "dcmmeta_shape": [96, 96, 56, 280],
  "dcmmeta_slice_dim": 2,
  "dcmmeta_version": 0.6,
  "global": {
    "const": {
      "AccessionNumber": "A000489",
      "AcquisitionMatrix": [96, 0, 0, 96],
      "AngioFlag": "N",
      "BitsAllocated": 16,
      "BitsStored": 12,
      "BodyPartExamined": "BRAIN",
      "Columns": 768,
      "EchoNumbers": 1,
      "EchoTime": 33.0,
      "EchoTrainLength": 96,
      "FlipAngle": 64.0,
      "HighBit": 11,
      "ImageOrientationPatient": [0.99982016850186, 0.01754682031476, -0.007193035086, -0.0169282880447, 0.99676804653708, 0.07852957701737],
      "ImagePositionPatient": [-941.10829375702, -987.18879679782, -129.50266109514],
      "ImageType": [
        "ORIGINAL",
        "PRIMARY",
        "FMRI",
        "NONE",
        "ND",
        "NORM",
        "MOSAIC"
],
      "ImagedNucleus": "1H",
      "ImagingFrequency": 123.252552,
      "InPlanePhaseEncodingDirection": "COL",
      "MRAcquisitionType": "2D",
      "MagneticFieldStrength": 3.0,
      "Manufacturer": "SIEMENS",
      "ManufacturerModelName": "Prisma",
      "Modality": "MR",
      "NumberOfAverages": 1.0,
      "NumberOfPhaseEncodingSteps": 96,
      "PercentPhaseFieldOfView": 100.0,
      "PercentSampling": 100.0,
      "PerformedProcedureStepStartTime": "170720.360000",
      "PhotometricInterpretation": "MONOCHROME2",
      "PixelBandwidth": 2265.0,
      "PixelRepresentation": 0,
      "PixelSpacing": [2.5, 2.5],
      "PositionReferenceIndicator": "",
      "ProtocolName": "func_run-10_task-fam1back",
      "RepetitionTime": 1250.0,
      "Rows": 768,
      "SAR": 0.04777419041936,
      "SamplesPerPixel": 1,
      "ScanOptions": "FS",
      "ScanningSequence": "EP",
      "SequenceName": "*epfid2d1_96",
      "SequenceVariant": "SK",
      "SeriesDescription": "func_run-10_task-fam1back",
      "SeriesNumber": 71,
      "SeriesTime": "181701.978000",
      "SliceLocation": -59.754338012404,
      "SliceThickness": 2.5,
      "SmallestImagePixelValue": 0,
      "SoftwareVersions": "syngo MR E11",
      "SpacingBetweenSlices": 2.5000000336875,
      "SpecificCharacterSet": "ISO_IR 100",
      "StudyID": "1",
      "StudyTime": "170720.301000",
      "TransmitCoilName": "Body",
      "VariableFlipAngleFlag": "N",
      "WindowCenterWidthExplanation": "Algo1",
      "dBdt": 0.0},
    "slices": {}
  },
  "time": {
    "samples": {
      "AcquisitionNumber": [1, 2, 3, 4, 5, 6, 7, 8, 9, 10, 11, 12, 13, 14, 15, 16, 17, 18, 19, 20, 21, 22, 23, 24, 25, 26, 27, 28, 29, 30, 31, 32, 33, 34, 35, 36, 37, 38, 39, 40, 41, 42, 43, 44, 45, 46, 47, 48, 49, 50, 51, 52, 53, 54, 55, 56, 57, 58, 59, 60, 61, 62, 63, 64, 65, 66, 67, 68, 69, 70, 71, 72, 73, 74, 75, 76, 77, 78, 79, 80, 81, 82, 83, 84, 85, 86, 87, 88, 89, 90, 91, 92, 93, 94, 95, 96, 97, 98, 99, 100, 101, 102, 103, 104, 105, 106, 107, 108, 109, 110, 111, 112, 113, 114, 115, 116, 117, 118, 119, 120, 121, 122, 123, 124, 125, 126, 127, 128, 129, 130, 131, 132, 133, 134, 135, 136, 137, 138, 139, 140, 141, 142, 143, 144, 145, 146, 147, 148, 149, 150, 151, 152, 153, 154, 155, 156, 157, 158, 159, 160, 161, 162, 163, 164, 165, 166, 167, 168, 169, 170, 171, 172, 173, 174, 175, 176, 177, 178, 179, 180, 181, 182, 183, 184, 185, 186, 187, 188, 189, 190, 191, 192, 193, 194, 195, 196, 197, 198, 199, 200, 201, 202, 203, 204, 205, 206, 207, 208, 209, 210, 211, 212, 213, 214, 215, 216, 217, 218, 219, 220, 221, 222, 223, 224, 225, 226, 227, 228, 229, 230, 231, 232, 233, 234, 235, 236, 237, 238, 239, 240, 241, 242, 243, 244, 245, 246, 247, 248, 249, 250, 251, 252, 253, 254, 255, 256, 257, 258, 259, 260, 261, 262, 263, 264, 265, 266, 267, 268, 269, 270, 271, 272, 273, 274, 275, 276, 277, 278, 279, 280],
      "AcquisitionTime": ["181700.685000", "181701.935000", "181703.185000", "181704.435000", "181705.685000", "181706.935000", "181708.185000", "181709.435000", "181710.685000", "181711.935000", "181713.185000", "181714.435000", "181715.685000", "181716.935000", "181718.185000", "181719.435000", "181720.685000", "181721.935000", "181723.185000", "181724.435000", "181725.685000", "181726.935000", "181728.185000", "181729.435000", "181730.685000", "181731.935000", "181733.185000", "181734.435000", "181735.685000", "181736.935000", "181738.185000", "181739.435000", "181740.685000", "181741.935000", "181743.185000", "181744.435000", "181745.685000", "181746.935000", "181748.185000", "181749.435000", "181750.685000", "181751.935000", "181753.185000", "181754.435000", "181755.685000", "181756.935000", "181758.185000", "181759.435000", "181800.685000", "181801.935000", "181803.185000", "181804.435000", "181805.685000", "181806.935000", "181808.185000", "181809.435000", "181810.685000", "181811.935000", "181813.185000", "181814.435000", "181815.685000", "181816.935000", "181818.185000", "181819.435000", "181820.685000", "181821.935000", "181823.185000", "181824.435000", "181825.685000", "181826.935000", "181828.185000", "181829.435000", "181830.685000", "181831.935000", "181833.185000", "181834.435000", "181835.685000", "181836.935000", "181838.185000", "181839.435000", "181840.685000", "181841.935000", "181843.185000", "181844.435000", "181845.685000", "181846.935000", "181848.185000", "181849.435000", "181850.685000", "181851.935000", "181853.185000", "181854.435000", "181855.685000", "181856.935000", "181858.185000", "181859.435000", "181900.685000", "181901.935000", "181903.185000", "181904.435000", "181905.685000", "181906.935000", "181908.185000", "181909.435000", "181910.685000", "181911.935000", "181913.185000", "181914.435000", "181915.685000", "181916.935000", "181918.185000", "181919.435000", "181920.685000", "181921.935000", "181923.185000", "181924.435000", "181925.685000", "181926.935000", "181928.185000", "181929.435000", "181930.685000", "181931.935000", "181933.185000", "181934.435000", "181935.685000", "181936.935000", "181938.185000", "181939.435000", "181940.685000", "181941.935000", "181943.185000", "181944.435000", "181945.685000", "181946.935000", "181948.185000", "181949.435000", "181950.685000", "181951.935000", "181953.185000", "181954.435000", "181955.685000", "181956.935000", "181958.185000", "181959.435000", "182000.685000", "182001.935000", "182003.185000", "182004.435000", "182005.685000", "182006.935000", "182008.185000", "182009.435000", "182010.685000", "182011.935000", "182013.185000", "182014.435000", "182015.685000", "182016.935000", "182018.185000", "182019.435000", "182020.685000", "182021.935000", "182023.185000", "182024.435000", "182025.685000", "182026.935000", "182028.185000", "182029.435000", "182030.685000", "182031.935000", "182033.185000", "182034.435000", "182035.685000", "182036.935000", "182038.185000", "182039.435000", "182040.685000", "182041.935000", "182043.185000", "182044.435000", "182045.685000", "182046.935000", "182048.185000", "182049.435000", "182050.685000", "182051.935000", "182053.185000", "182054.435000", "182055.685000", "182056.935000", "182058.185000", "182059.435000", "182100.685000", "182101.935000", "182103.185000", "182104.435000", "182105.685000", "182106.935000", "182108.185000", "182109.435000", "182110.685000", "182111.935000", "182113.185000", "182114.435000", "182115.685000", "182116.935000", "182118.185000", "182119.435000", "182120.685000", "182121.935000", "182123.185000", "182124.435000", "182125.685000", "182126.935000", "182128.185000", "182129.435000", "182130.685000", "182131.935000", "182133.185000", "182134.435000", "182135.685000", "182136.935000", "182138.185000", "182139.435000", "182140.685000", "182141.935000", "182143.185000", "182144.435000", "182145.685000", "182146.935000", "182148.185000", "182149.435000", "182150.685000", "182151.935000", "182153.185000", "182154.435000", "182155.685000", "182156.935000", "182158.185000", "182159.435000", "182200.685000", "182201.935000", "182203.185000", "182204.435000", "182205.685000", "182206.935000", "182208.185000", "182209.435000", "182210.685000", "182211.935000", "182213.185000", "182214.435000", "182215.685000", "182216.935000", "182218.185000", "182219.435000", "182220.685000", "182221.935000", "182223.185000", "182224.435000", "182225.685000", "182226.935000", "182228.185000", "182229.435000", "182230.685000", "182231.935000", "182233.185000", "182234.435000", "182235.685000", "182236.935000", "182238.185000", "182239.435000", "182240.685000", "182241.935000", "182243.185000", "182244.435000", "182245.685000", "182246.935000", "182248.185000", "182249.435000"],
      "ContentTime": ["181701.983000", "181703.098000", "181704.308000", "181705.583000", "181706.848000", "181708.066000", "181709.337000", "181710.587000", "181711.836000", "181713.084000", "181714.339000", "181715.590000", "181716.796000", "181718.069000", "181719.330000", "181720.582000", "181721.872000", "181723.079000", "181724.340000", "181725.582000", "181726.814000", "181728.070000", "181729.354000", "181730.571000", "181731.827000", "181733.097000", "181734.327000", "181735.607000", "181736.839000", "181738.067000", "181739.354000", "181740.579000", "181741.823000", "181743.099000", "181744.336000", "181745.587000", "181746.840000", "181748.122000", "181749.381000", "181750.564000", "181751.837000", "181753.053000", "181754.381000", "181755.576000", "181756.836000", "181758.086000", "181759.338000", "181800.599000", "181801.849000", "181803.092000", "181804.322000", "181805.602000", "181806.883000", "181808.099000", "181809.356000", "181810.580000", "181811.821000", "181813.102000", "181814.316000", "181815.575000", "181816.828000", "181818.098000", "181819.330000", "181820.566000", "181821.805000", "181823.118000", "181824.319000", "181825.578000", "181826.839000", "181828.137000", "181829.315000", "181830.567000", "181831.835000", "181833.078000", "181834.353000", "181835.588000", "181836.798000", "181838.082000", "181839.314000", "181840.614000", "181841.809000", "181843.172000", "181844.337000", "181845.669000", "181846.816000", "181848.070000", "181849.358000", "181850.579000", "181851.839000", "181853.073000", "181854.324000", "181855.585000", "181856.828000", "181858.137000", "181859.345000", "181900.578000", "181901.871000", "181903.069000", "181904.327000", "181905.590000", "181906.878000", "181908.103000", "181909.364000", "181910.602000", "181911.831000", "181913.102000", "181914.351000", "181915.600000", "181916.866000", "181918.106000", "181919.349000", "181920.615000", "181921.829000", "181923.085000", "181924.338000", "181925.592000", "181926.842000", "181928.107000", "181929.338000", "181930.597000", "181931.818000", "181933.087000", "181934.365000", "181935.593000", "181936.848000", "181938.111000", "181939.340000", "181940.591000", "181941.857000", "181943.083000", "181944.371000", "181945.579000", "181946.876000", "181948.080000", "181949.339000", "181950.593000", "181951.846000", "181953.083000", "181954.340000", "181955.596000", "181956.838000", "181958.092000", "181959.340000", "182000.588000", "182001.846000", "182003.095000", "182004.317000", "182005.630000", "182006.916000", "182008.118000", "182009.363000", "182010.567000", "182011.835000", "182013.083000", "182014.363000", "182015.571000", "182016.859000", "182018.103000", "182019.320000", "182020.586000", "182021.840000", "182023.090000", "182024.364000", "182025.588000", "182026.879000", "182028.091000", "182029.352000", "182030.639000", "182031.836000", "182033.090000", "182034.341000", "182035.597000", "182036.820000", "182038.107000", "182039.327000", "182040.582000", "182041.845000", "182043.139000", "182044.338000", "182045.608000", "182046.853000", "182048.062000", "182049.403000", "182050.600000", "182051.835000", "182053.119000", "182054.338000", "182055.601000", "182056.889000", "182058.078000", "182059.350000", "182100.584000", "182101.821000", "182103.067000", "182104.338000", "182105.551000", "182106.837000", "182108.087000", "182109.340000", "182110.572000", "182111.858000", "182113.107000", "182114.324000", "182115.665000", "182116.851000", "182118.115000", "182119.335000", "182120.585000", "182121.917000", "182123.129000", "182124.354000", "182125.605000", "182126.839000", "182128.112000", "182129.343000", "182130.587000", "182131.815000", "182133.076000", "182134.329000", "182135.596000", "182136.849000", "182138.102000", "182139.341000", "182140.592000", "182141.854000", "182143.086000", "182144.305000", "182145.585000", "182146.870000", "182148.152000", "182149.336000", "182150.606000", "182151.847000", "182153.127000", "182154.398000", "182155.582000", "182156.826000", "182158.078000", "182159.360000", "182200.574000", "182201.844000", "182203.119000", "182204.347000", "182205.594000", "182206.869000", "182208.090000", "182209.327000", "182210.597000", "182211.894000", "182213.083000", "182214.383000", "182215.588000", "182216.832000", "182218.085000", "182219.347000", "182220.575000", "182221.872000", "182223.090000", "182224.339000", "182225.557000", "182226.844000", "182228.099000", "182229.311000", "182230.582000", "182231.838000", "182233.112000", "182234.329000", "182235.581000", "182236.846000", "182238.091000", "182239.349000", "182240.585000", "182241.843000", "182243.075000", "182244.329000", "182245.598000", "182246.857000", "182248.101000", "182249.363000", "182250.644000"],
      "InstanceCreationTime": ["181701.983000", "181703.098000", "181704.308000", "181705.583000", "181706.848000", "181708.066000", "181709.337000", "181710.587000", "181711.836000", "181713.084000", "181714.339000", "181715.590000", "181716.796000", "181718.069000", "181719.330000", "181720.582000", "181721.872000", "181723.079000", "181724.340000", "181725.582000", "181726.814000", "181728.070000", "181729.354000", "181730.571000", "181731.827000", "181733.097000", "181734.327000", "181735.607000", "181736.839000", "181738.067000", "181739.354000", "181740.579000", "181741.823000", "181743.099000", "181744.336000", "181745.587000", "181746.840000", "181748.122000", "181749.381000", "181750.564000", "181751.837000", "181753.053000", "181754.381000", "181755.576000", "181756.836000", "181758.086000", "181759.338000", "181800.599000", "181801.849000", "181803.092000", "181804.322000", "181805.602000", "181806.883000", "181808.099000", "181809.356000", "181810.580000", "181811.821000", "181813.102000", "181814.316000", "181815.575000", "181816.828000", "181818.098000", "181819.330000", "181820.566000", "181821.805000", "181823.118000", "181824.319000", "181825.578000", "181826.839000", "181828.137000", "181829.315000", "181830.567000", "181831.835000", "181833.078000", "181834.353000", "181835.588000", "181836.798000", "181838.082000", "181839.314000", "181840.614000", "181841.809000", "181843.172000", "181844.337000", "181845.669000", "181846.816000", "181848.070000", "181849.358000", "181850.579000", "181851.839000", "181853.073000", "181854.324000", "181855.585000", "181856.828000", "181858.137000", "181859.345000", "181900.578000", "181901.871000", "181903.069000", "181904.327000", "181905.590000", "181906.878000", "181908.103000", "181909.364000", "181910.602000", "181911.831000", "181913.102000", "181914.351000", "181915.600000", "181916.866000", "181918.106000", "181919.349000", "181920.615000", "181921.829000", "181923.085000", "181924.338000", "181925.592000", "181926.842000", "181928.107000", "181929.338000", "181930.597000", "181931.818000", "181933.087000", "181934.365000", "181935.593000", "181936.848000", "181938.111000", "181939.340000", "181940.591000", "181941.857000", "181943.083000", "181944.371000", "181945.579000", "181946.876000", "181948.080000", "181949.339000", "181950.593000", "181951.846000", "181953.083000", "181954.340000", "181955.596000", "181956.838000", "181958.092000", "181959.340000", "182000.588000", "182001.846000", "182003.095000", "182004.317000", "182005.630000", "182006.916000", "182008.118000", "182009.363000", "182010.567000", "182011.835000", "182013.083000", "182014.363000", "182015.571000", "182016.859000", "182018.103000", "182019.320000", "182020.586000", "182021.840000", "182023.090000", "182024.364000", "182025.588000", "182026.879000", "182028.091000", "182029.352000", "182030.639000", "182031.836000", "182033.090000", "182034.341000", "182035.597000", "182036.820000", "182038.107000", "182039.327000", "182040.582000", "182041.845000", "182043.139000", "182044.338000", "182045.608000", "182046.853000", "182048.062000", "182049.403000", "182050.600000", "182051.835000", "182053.119000", "182054.338000", "182055.601000", "182056.889000", "182058.078000", "182059.350000", "182100.584000", "182101.821000", "182103.067000", "182104.338000", "182105.551000", "182106.837000", "182108.087000", "182109.340000", "182110.572000", "182111.858000", "182113.107000", "182114.324000", "182115.665000", "182116.851000", "182118.115000", "182119.335000", "182120.585000", "182121.917000", "182123.129000", "182124.354000", "182125.605000", "182126.839000", "182128.112000", "182129.343000", "182130.587000", "182131.815000", "182133.076000", "182134.329000", "182135.596000", "182136.849000", "182138.102000", "182139.341000", "182140.592000", "182141.854000", "182143.086000", "182144.305000", "182145.585000", "182146.870000", "182148.152000", "182149.336000", "182150.606000", "182151.847000", "182153.127000", "182154.398000", "182155.582000", "182156.826000", "182158.078000", "182159.360000", "182200.574000", "182201.844000", "182203.119000", "182204.347000", "182205.594000", "182206.869000", "182208.090000", "182209.327000", "182210.597000", "182211.894000", "182213.083000", "182214.383000", "182215.588000", "182216.832000", "182218.085000", "182219.347000", "182220.575000", "182221.872000", "182223.090000", "182224.339000", "182225.557000", "182226.844000", "182228.099000", "182229.311000", "182230.582000", "182231.838000", "182233.112000", "182234.329000", "182235.581000", "182236.846000", "182238.091000", "182239.349000", "182240.585000", "182241.843000", "182243.075000", "182244.329000", "182245.598000", "182246.857000", "182248.101000", "182249.363000", "182250.644000"],
      "InstanceNumber": [1, 2, 3, 4, 5, 6, 7, 8, 9, 10, 11, 12, 13, 14, 15, 16, 17, 18, 19, 20, 21, 22, 23, 24, 25, 26, 27, 28, 29, 30, 31, 32, 33, 34, 35, 36, 37, 38, 39, 40, 41, 42, 43, 44, 45, 46, 47, 48, 49, 50, 51, 52, 53, 54, 55, 56, 57, 58, 59, 60, 61, 62, 63, 64, 65, 66, 67, 68, 69, 70, 71, 72, 73, 74, 75, 76, 77, 78, 79, 80, 81, 82, 83, 84, 85, 86, 87, 88, 89, 90, 91, 92, 93, 94, 95, 96, 97, 98, 99, 100, 101, 102, 103, 104, 105, 106, 107, 108, 109, 110, 111, 112, 113, 114, 115, 116, 117, 118, 119, 120, 121, 122, 123, 124, 125, 126, 127, 128, 129, 130, 131, 132, 133, 134, 135, 136, 137, 138, 139, 140, 141, 142, 143, 144, 145, 146, 147, 148, 149, 150, 151, 152, 153, 154, 155, 156, 157, 158, 159, 160, 161, 162, 163, 164, 165, 166, 167, 168, 169, 170, 171, 172, 173, 174, 175, 176, 177, 178, 179, 180, 181, 182, 183, 184, 185, 186, 187, 188, 189, 190, 191, 192, 193, 194, 195, 196, 197, 198, 199, 200, 201, 202, 203, 204, 205, 206, 207, 208, 209, 210, 211, 212, 213, 214, 215, 216, 217, 218, 219, 220, 221, 222, 223, 224, 225, 226, 227, 228, 229, 230, 231, 232, 233, 234, 235, 236, 237, 238, 239, 240, 241, 242, 243, 244, 245, 246, 247, 248, 249, 250, 251, 252, 253, 254, 255, 256, 257, 258, 259, 260, 261, 262, 263, 264, 265, 266, 267, 268, 269, 270, 271, 272, 273, 274, 275, 276, 277, 278, 279, 280],
      "LargestImagePixelValue": [969, 1155, 866, 1103, 980, 1027, 1139, 1047, 917, 1119, 1157, 798, 1072, 893, 1104, 1092, 938, 1151, 1042, 954, 1096, 1176, 1030, 1053, 1181, 909, 1100, 834, 1137, 926, 1076, 982, 1010, 1179, 820, 1097, 937, 988, 1125, 923, 988, 1185, 882, 975, 1170, 910, 983, 1161, 821, 1052, 994, 953, 1159, 897, 986, 1229, 954, 983, 971, 1190, 955, 1055, 1174, 1033, 1081, 1133, 934, 1104, 811, 1017, 1112, 800, 1002, 1155, 922, 1052, 852, 974, 1056, 1166, 872, 1024, 816, 1003, 899, 1028, 1150, 1101, 1148, 1109, 834, 1096, 814, 1191, 1023, 1170, 980, 1056, 1269, 959, 1116, 1178, 1040, 1108, 943, 1164, 826, 1097, 959, 1060, 1145, 881, 1071, 1130, 846, 1041, 1133, 788, 1026, 1074, 780, 971, 956, 985, 1094, 807, 1056, 1091, 885, 1022, 1062, 880, 974, 1108, 853, 1086, 908, 1065, 1195, 973, 1086, 958, 1039, 1127, 835, 1035, 1093, 877, 971, 1083, 842, 1067, 960, 1048, 1165, 867, 1064, 1108, 874, 1010, 1097, 969, 1085, 863, 1121, 1039, 1224, 1096, 1154, 1040, 1073, 1193, 962, 1179, 849, 1030, 1195, 830, 1146, 1219, 1017, 1164, 778, 1082, 1225, 894, 1212, 786, 1100, 1198, 901, 979, 1158, 880, 941, 1172, 1057, 1039, 1190, 913, 1070, 1223, 791, 1130, 1021, 1011, 1206, 925, 1068, 1130, 841, 978, 1201, 803, 1158, 1185, 916, 953, 1191, 1187, 991, 872, 972, 1232, 810, 1135, 1206, 896, 1127, 1217, 815, 1027, 981, 1020, 1018, 1080, 1238, 1015, 1185, 1095, 1055, 1187, 865, 1050, 1216, 872, 1038, 1192, 811, 1130, 938, 948, 1151, 781, 1053, 855, 1202, 960, 1196, 940, 1158, 955, 1056, 1260, 924, 1092, 1245, 916, 1095, 991, 1055, 1231, 883, 1052, 1198, 948, 1013, 1257, 855, 1249],
      "WindowCenter": [383.0, 384.0, 381.0, 383.0, 382.0, 381.0, 382.0, 381.0, 380.0, 381.0, 382.0, 379.0, 383.0, 382.0, 385.0, 386.0, 382.0, 384.0, 382.0, 381.0, 381.0, 382.0, 380.0, 379.0, 380.0, 377.0, 378.0, 376.0, 379.0, 378.0, 380.0, 379.0, 379.0, 381.0, 378.0, 381.0, 380.0, 380.0, 381.0, 378.0, 380.0, 382.0, 380.0, 381.0, 383.0, 381.0, 382.0, 384.0, 381.0, 383.0, 383.0, 382.0, 384.0, 380.0, 382.0, 385.0, 383.0, 384.0, 384.0, 384.0, 382.0, 381.0, 381.0, 379.0, 379.0, 379.0, 377.0, 379.0, 376.0, 379.0, 379.0, 376.0, 379.0, 380.0, 378.0, 379.0, 379.0, 380.0, 381.0, 382.0, 379.0, 381.0, 380.0, 383.0, 382.0, 382.0, 383.0, 382.0, 383.0, 382.0, 381.0, 384.0, 381.0, 385.0, 383.0, 384.0, 382.0, 381.0, 383.0, 380.0, 381.0, 381.0, 380.0, 381.0, 381.0, 382.0, 380.0, 383.0, 381.0, 381.0, 382.0, 379.0, 381.0, 380.0, 378.0, 379.0, 380.0, 376.0, 379.0, 380.0, 376.0, 380.0, 380.0, 382.0, 382.0, 380.0, 382.0, 381.0, 379.0, 381.0, 381.0, 380.0, 381.0, 382.0, 381.0, 383.0, 382.0, 383.0, 383.0, 381.0, 382.0, 381.0, 382.0, 382.0, 379.0, 381.0, 381.0, 380.0, 381.0, 382.0, 381.0, 383.0, 381.0, 382.0, 383.0, 379.0, 381.0, 381.0, 380.0, 381.0, 382.0, 382.0, 383.0, 381.0, 383.0, 382.0, 383.0, 381.0, 380.0, 378.0, 379.0, 379.0, 378.0, 380.0, 378.0, 380.0, 381.0, 378.0, 381.0, 382.0, 380.0, 382.0, 379.0, 382.0, 383.0, 381.0, 383.0, 380.0, 383.0, 383.0, 380.0, 381.0, 383.0, 380.0, 381.0, 383.0, 382.0, 382.0, 383.0, 381.0, 383.0, 383.0, 379.0, 383.0, 381.0, 382.0, 383.0, 380.0, 381.0, 381.0, 379.0, 381.0, 383.0, 379.0, 383.0, 383.0, 380.0, 380.0, 383.0, 383.0, 380.0, 379.0, 382.0, 384.0, 380.0, 383.0, 383.0, 380.0, 381.0, 382.0, 378.0, 381.0, 382.0, 383.0, 383.0, 382.0, 384.0, 381.0, 381.0, 379.0, 378.0, 379.0, 375.0, 378.0, 380.0, 377.0, 377.0, 380.0, 377.0, 380.0, 380.0, 379.0, 382.0, 379.0, 382.0, 381.0, 385.0, 382.0, 384.0, 382.0, 384.0, 381.0, 383.0, 384.0, 380.0, 381.0, 383.0, 380.0, 381.0, 381.0, 381.0, 382.0, 379.0, 380.0, 382.0, 378.0, 381.0, 383.0, 380.0, 383.0],
      "WindowWidth": [813.0, 815.0, 811.0, 814.0, 811.0, 811.0, 811.0, 810.0, 808.0, 810.0, 810.0, 807.0, 813.0, 811.0, 817.0, 818.0, 813.0, 815.0, 812.0, 810.0, 810.0, 811.0, 807.0, 806.0, 807.0, 802.0, 803.0, 802.0, 806.0, 805.0, 807.0, 806.0, 806.0, 809.0, 805.0, 808.0, 807.0, 808.0, 809.0, 805.0, 807.0, 811.0, 808.0, 810.0, 812.0, 810.0, 812.0, 815.0, 810.0, 814.0, 814.0, 811.0, 814.0, 809.0, 812.0, 816.0, 814.0, 816.0, 815.0, 815.0, 811.0, 810.0, 810.0, 807.0, 806.0, 806.0, 803.0, 806.0, 802.0, 805.0, 806.0, 802.0, 805.0, 808.0, 804.0, 806.0, 807.0, 809.0, 810.0, 811.0, 807.0, 809.0, 809.0, 814.0, 812.0, 813.0, 813.0, 812.0, 812.0, 811.0, 810.0, 814.0, 810.0, 816.0, 814.0, 815.0, 812.0, 810.0, 813.0, 808.0, 810.0, 809.0, 808.0, 809.0, 810.0, 811.0, 810.0, 814.0, 810.0, 810.0, 811.0, 807.0, 809.0, 808.0, 805.0, 807.0, 806.0, 801.0, 806.0, 807.0, 802.0, 808.0, 808.0, 811.0, 812.0, 808.0, 811.0, 810.0, 807.0, 809.0, 810.0, 808.0, 810.0, 812.0, 810.0, 814.0, 812.0, 813.0, 813.0, 810.0, 811.0, 810.0, 811.0, 811.0, 807.0, 810.0, 810.0, 808.0, 809.0, 811.0, 810.0, 813.0, 811.0, 811.0, 812.0, 806.0, 809.0, 809.0, 808.0, 810.0, 811.0, 812.0, 814.0, 811.0, 814.0, 812.0, 813.0, 809.0, 808.0, 804.0, 805.0, 806.0, 805.0, 807.0, 804.0, 807.0, 809.0, 806.0, 809.0, 810.0, 808.0, 811.0, 807.0, 811.0, 813.0, 810.0, 813.0, 809.0, 813.0, 813.0, 809.0, 809.0, 812.0, 808.0, 810.0, 813.0, 812.0, 812.0, 813.0, 811.0, 813.0, 813.0, 808.0, 814.0, 811.0, 811.0, 812.0, 809.0, 810.0, 810.0, 806.0, 809.0, 812.0, 808.0, 812.0, 813.0, 809.0, 809.0, 812.0, 813.0, 807.0, 807.0, 811.0, 814.0, 810.0, 814.0, 813.0, 809.0, 810.0, 811.0, 806.0, 811.0, 811.0, 813.0, 813.0, 811.0, 814.0, 810.0, 809.0, 806.0, 804.0, 805.0, 799.0, 804.0, 806.0, 803.0, 803.0, 808.0, 803.0, 808.0, 807.0, 807.0, 810.0, 806.0, 811.0, 811.0, 816.0, 813.0, 815.0, 813.0, 814.0, 809.0, 813.0, 815.0, 808.0, 809.0, 812.0, 808.0, 809.0, 810.0, 810.0, 811.0, 807.0, 808.0, 811.0, 805.0, 809.0, 813.0, 808.0, 813.0]
    },
    "slices": {}
  }
}