{
  "AcquisitionMatrixPE": 96,
  "AcquisitionNumber": 1,
  "AcquisitionTime": "17:31:2.792500",
  "BandwidthPerPixelPhaseEncode": 18.939,
  "BaseResolution": 96,
  "BodyPartExamined": "BRAIN",
  "ConsistencyInfo": "N4_VE11C_LATEST_20160120",
  "ConversionSoftware": "dcm2niix",
  "ConversionSoftwareVersion": "v1.0.20170923 (OpenJPEG build) GCC6.3.0",
  "DerivedVendorReportedEchoSpacing": 0.000550011,
  "DeviceSerialNumber": "66112",
  "DwellTime": 2.3e-06,
  "EchoTime": 0.033,
  "EchoTrainLength": 96,
  "EffectiveEchoSpacing": 0.000550011,
  "FlipAngle": 64,
  "ImageType": [
    "ORIGINAL",
    "PRIMARY",
    "FMRI",
    "NONE",
    "ND",
    "NORM",
    "MOSAIC"
],
  "InstitutionAddress": "Maynard_3_Hanover_NH_US_03755",
  "InstitutionName": "Dartmouth_College_-_PBS",
  "MagneticFieldStrength": 3,
  "Manufacturer": "Siemens",
  "ManufacturersModelName": "Prisma",
  "Modality": "MR",
  "MultibandAccelerationFactor": 4,
  "PartialFourier": 1,
  "PercentPhaseFOV": 100,
  "PhaseEncodingDirection": "j-",
  "PhaseEncodingSteps": 96,
  "PhaseResolution": 1,
  "ProcedureStepDescription": "Gobbini_Matteo_1017_famface-angles",
  "ProtocolName": "func_run-03_task-fam1back",
  "PulseSequenceDetails": "%SiemensSeq%_ep2d_bold",
  "ReceiveCoilActiveElements": "HEA;HEP",
  "ReceiveCoilName": "Head_32",
  "ReconMatrixPE": 96,
  "RepetitionTime": 1.25,
  "ScanOptions": "FS",
  "ScanningSequence": "EP",
  "SequenceName": "_epfid2d1_96",
  "SequenceVariant": "SK",
  "SeriesDescription": "func_run-03_task-fam1back",
  "SliceTiming": [0.88, 0, 0.615, 0.09, 0.705, 0.1775, 0.7925, 0.3525, 0.9675, 0.44, 1.055, 0.5275, 1.1425, 0.265, 0.88, 0, 0.615, 0.09, 0.705, 0.1775, 0.7925, 0.3525, 0.9675, 0.44, 1.055, 0.5275, 1.1425, 0.265, 0.88, 0, 0.615, 0.09, 0.705, 0.1775, 0.7925, 0.3525, 0.9675, 0.44, 1.055, 0.5275, 1.1425, 0.265, 0.88, 0, 0.615, 0.09, 0.705, 0.1775, 0.7925, 0.3525, 0.9675, 0.44, 1.055, 0.5275, 1.1425, 0.265],
  "SoftwareVersions": "syngo_MR_E11",
  "StationName": "AWP66112",
  "TaskName": "fam1back",
  "TotalReadoutTime": 0.0522511,
  "dcmmeta_affine": [
    [-2.4995503425598145, -0.042320720851421356, -0.0213693305850029, 119.49958038330078],
    [-0.04386705160140991, 2.491920232772827, 0.19598422944545746, -101.56809997558594],
    [-0.017982587218284607, -0.1963239461183548, 2.4922146797180176, -50.92919158935547],
    [0.0, 0.0, 0.0, 1.0]
],
  "dcmmeta_reorient_transform": [
    [0.0, -1.0, 0.0, 95.0],
    [1.0, 0.0, 0.0, 0.0],
    [0.0, 0.0, 1.0, 0.0],
    [0.0, 0.0, 0.0, 1.0]
],
  "dcmmeta_shape": [96, 96, 56, 280],
  "dcmmeta_slice_dim": 2,
  "dcmmeta_version": 0.6,
  "global": {
    "const": {
      "AccessionNumber": "A000489",
      "AcquisitionMatrix": [96, 0, 0, 96],
      "AngioFlag": "N",
      "BitsAllocated": 16,
      "BitsStored": 12,
      "BodyPartExamined": "BRAIN",
      "Columns": 768,
      "EchoNumbers": 1,
      "EchoTime": 33.0,
      "EchoTrainLength": 96,
      "FlipAngle": 64.0,
      "HighBit": 11,
      "ImageOrientationPatient": [0.99982016850186, 0.01754682031476, -0.007193035086, -0.0169282880447, 0.99676804653708, 0.07852957701737],
      "ImagePositionPatient": [-941.10829375702, -987.18879679782, -129.50266109514],
      "ImageType": [
        "ORIGINAL",
        "PRIMARY",
        "FMRI",
        "NONE",
        "ND",
        "NORM",
        "MOSAIC"
],
      "ImagedNucleus": "1H",
      "ImagingFrequency": 123.252541,
      "InPlanePhaseEncodingDirection": "COL",
      "MRAcquisitionType": "2D",
      "MagneticFieldStrength": 3.0,
      "Manufacturer": "SIEMENS",
      "ManufacturerModelName": "Prisma",
      "Modality": "MR",
      "NumberOfAverages": 1.0,
      "NumberOfPhaseEncodingSteps": 96,
      "PercentPhaseFieldOfView": 100.0,
      "PercentSampling": 100.0,
      "PerformedProcedureStepStartTime": "170720.360000",
      "PhotometricInterpretation": "MONOCHROME2",
      "PixelBandwidth": 2265.0,
      "PixelRepresentation": 0,
      "PixelSpacing": [2.5, 2.5],
      "PositionReferenceIndicator": "",
      "ProtocolName": "func_run-03_task-fam1back",
      "RepetitionTime": 1250.0,
      "Rows": 768,
      "SAR": 0.04777419041936,
      "SamplesPerPixel": 1,
      "ScanOptions": "FS",
      "ScanningSequence": "EP",
      "SequenceName": "*epfid2d1_96",
      "SequenceVariant": "SK",
      "SeriesDescription": "func_run-03_task-fam1back",
      "SeriesNumber": 22,
      "SeriesTime": "173104.483000",
      "SliceLocation": -59.754338012404,
      "SliceThickness": 2.5,
      "SmallestImagePixelValue": 0,
      "SoftwareVersions": "syngo MR E11",
      "SpacingBetweenSlices": 2.5000000336875,
      "SpecificCharacterSet": "ISO_IR 100",
      "StudyID": "1",
      "StudyTime": "170720.301000",
      "TransmitCoilName": "Body",
      "VariableFlipAngleFlag": "N",
      "WindowCenterWidthExplanation": "Algo1",
      "dBdt": 0.0},
    "slices": {}
  },
  "time": {
    "samples": {
      "AcquisitionNumber": [1, 2, 3, 4, 5, 6, 7, 8, 9, 10, 11, 12, 13, 14, 15, 16, 17, 18, 19, 20, 21, 22, 23, 24, 25, 26, 27, 28, 29, 30, 31, 32, 33, 34, 35, 36, 37, 38, 39, 40, 41, 42, 43, 44, 45, 46, 47, 48, 49, 50, 51, 52, 53, 54, 55, 56, 57, 58, 59, 60, 61, 62, 63, 64, 65, 66, 67, 68, 69, 70, 71, 72, 73, 74, 75, 76, 77, 78, 79, 80, 81, 82, 83, 84, 85, 86, 87, 88, 89, 90, 91, 92, 93, 94, 95, 96, 97, 98, 99, 100, 101, 102, 103, 104, 105, 106, 107, 108, 109, 110, 111, 112, 113, 114, 115, 116, 117, 118, 119, 120, 121, 122, 123, 124, 125, 126, 127, 128, 129, 130, 131, 132, 133, 134, 135, 136, 137, 138, 139, 140, 141, 142, 143, 144, 145, 146, 147, 148, 149, 150, 151, 152, 153, 154, 155, 156, 157, 158, 159, 160, 161, 162, 163, 164, 165, 166, 167, 168, 169, 170, 171, 172, 173, 174, 175, 176, 177, 178, 179, 180, 181, 182, 183, 184, 185, 186, 187, 188, 189, 190, 191, 192, 193, 194, 195, 196, 197, 198, 199, 200, 201, 202, 203, 204, 205, 206, 207, 208, 209, 210, 211, 212, 213, 214, 215, 216, 217, 218, 219, 220, 221, 222, 223, 224, 225, 226, 227, 228, 229, 230, 231, 232, 233, 234, 235, 236, 237, 238, 239, 240, 241, 242, 243, 244, 245, 246, 247, 248, 249, 250, 251, 252, 253, 254, 255, 256, 257, 258, 259, 260, 261, 262, 263, 264, 265, 266, 267, 268, 269, 270, 271, 272, 273, 274, 275, 276, 277, 278, 279, 280],
      "AcquisitionTime": ["173102.792500", "173104.042500", "173105.292500", "173106.542500", "173107.792500", "173109.042500", "173110.292500", "173111.542500", "173112.792500", "173114.042500", "173115.292500", "173116.542500", "173117.792500", "173119.042500", "173120.292500", "173121.542500", "173122.792500", "173124.042500", "173125.292500", "173126.542500", "173127.792500", "173129.042500", "173130.292500", "173131.542500", "173132.792500", "173134.042500", "173135.292500", "173136.542500", "173137.792500", "173139.042500", "173140.292500", "173141.542500", "173142.792500", "173144.042500", "173145.292500", "173146.542500", "173147.792500", "173149.042500", "173150.292500", "173151.542500", "173152.792500", "173154.042500", "173155.292500", "173156.542500", "173157.792500", "173159.042500", "173200.292500", "173201.542500", "173202.792500", "173204.042500", "173205.292500", "173206.542500", "173207.792500", "173209.042500", "173210.292500", "173211.542500", "173212.792500", "173214.042500", "173215.292500", "173216.542500", "173217.792500", "173219.042500", "173220.292500", "173221.542500", "173222.792500", "173224.042500", "173225.292500", "173226.542500", "173227.792500", "173229.042500", "173230.292500", "173231.542500", "173232.792500", "173234.042500", "173235.292500", "173236.542500", "173237.792500", "173239.042500", "173240.292500", "173241.542500", "173242.792500", "173244.042500", "173245.292500", "173246.542500", "173247.792500", "173249.042500", "173250.292500", "173251.542500", "173252.792500", "173254.042500", "173255.292500", "173256.542500", "173257.792500", "173259.042500", "173300.292500", "173301.542500", "173302.792500", "173304.042500", "173305.292500", "173306.542500", "173307.792500", "173309.042500", "173310.292500", "173311.542500", "173312.792500", "173314.042500", "173315.292500", "173316.542500", "173317.792500", "173319.042500", "173320.292500", "173321.542500", "173322.792500", "173324.042500", "173325.292500", "173326.542500", "173327.792500", "173329.042500", "173330.292500", "173331.542500", "173332.792500", "173334.042500", "173335.292500", "173336.542500", "173337.792500", "173339.042500", "173340.292500", "173341.542500", "173342.792500", "173344.042500", "173345.292500", "173346.542500", "173347.792500", "173349.042500", "173350.292500", "173351.542500", "173352.792500", "173354.042500", "173355.292500", "173356.542500", "173357.792500", "173359.042500", "173400.292500", "173401.542500", "173402.792500", "173404.042500", "173405.292500", "173406.542500", "173407.792500", "173409.042500", "173410.292500", "173411.542500", "173412.792500", "173414.042500", "173415.292500", "173416.542500", "173417.792500", "173419.042500", "173420.292500", "173421.542500", "173422.792500", "173424.042500", "173425.292500", "173426.542500", "173427.792500", "173429.042500", "173430.292500", "173431.542500", "173432.792500", "173434.042500", "173435.292500", "173436.542500", "173437.792500", "173439.042500", "173440.292500", "173441.542500", "173442.792500", "173444.042500", "173445.292500", "173446.542500", "173447.792500", "173449.042500", "173450.292500", "173451.542500", "173452.792500", "173454.042500", "173455.292500", "173456.542500", "173457.792500", "173459.042500", "173500.292500", "173501.542500", "173502.792500", "173504.042500", "173505.292500", "173506.542500", "173507.792500", "173509.042500", "173510.292500", "173511.542500", "173512.792500", "173514.042500", "173515.292500", "173516.542500", "173517.792500", "173519.042500", "173520.292500", "173521.542500", "173522.792500", "173524.042500", "173525.292500", "173526.542500", "173527.792500", "173529.042500", "173530.292500", "173531.542500", "173532.792500", "173534.042500", "173535.292500", "173536.542500", "173537.792500", "173539.042500", "173540.292500", "173541.542500", "173542.792500", "173544.042500", "173545.292500", "173546.542500", "173547.792500", "173549.042500", "173550.292500", "173551.542500", "173552.792500", "173554.042500", "173555.292500", "173556.542500", "173557.792500", "173559.042500", "173600.292500", "173601.542500", "173602.792500", "173604.042500", "173605.292500", "173606.542500", "173607.792500", "173609.042500", "173610.292500", "173611.542500", "173612.792500", "173614.042500", "173615.292500", "173616.542500", "173617.792500", "173619.042500", "173620.292500", "173621.542500", "173622.792500", "173624.042500", "173625.292500", "173626.542500", "173627.792500", "173629.042500", "173630.292500", "173631.542500", "173632.792500", "173634.042500", "173635.292500", "173636.542500", "173637.792500", "173639.042500", "173640.292500", "173641.542500", "173642.792500", "173644.042500", "173645.292500", "173646.542500", "173647.792500", "173649.042500", "173650.292500", "173651.542500"],
      "ContentTime": ["173104.487000", "173105.583000", "173106.844000", "173108.064000", "173109.406000", "173110.602000", "173111.829000", "173113.086000", "173114.365000", "173115.571000", "173116.828000", "173118.101000", "173119.340000", "173120.588000", "173121.841000", "173123.113000", "173124.347000", "173125.572000", "173126.872000", "173128.125000", "173129.455000", "173130.619000", "173131.829000", "173133.101000", "173134.330000", "173135.633000", "173136.850000", "173138.061000", "173139.344000", "173140.572000", "173141.818000", "173143.089000", "173144.310000", "173145.588000", "173146.839000", "173148.057000", "173149.308000", "173150.598000", "173151.858000", "173153.080000", "173154.350000", "173155.567000", "173156.848000", "173158.081000", "173159.351000", "173200.575000", "173201.828000", "173203.089000", "173204.331000", "173205.576000", "173206.796000", "173208.071000", "173209.316000", "173210.593000", "173211.830000", "173213.077000", "173214.333000", "173215.580000", "173216.833000", "173218.084000", "173219.327000", "173220.599000", "173221.822000", "173223.080000", "173224.328000", "173225.593000", "173226.829000", "173228.095000", "173229.321000", "173230.586000", "173231.834000", "173233.087000", "173234.336000", "173235.569000", "173236.845000", "173238.100000", "173239.370000", "173240.597000", "173241.792000", "173243.077000", "173244.327000", "173245.651000", "173246.809000", "173248.044000", "173249.310000", "173250.591000", "173251.821000", "173253.073000", "173254.335000", "173255.607000", "173256.847000", "173258.103000", "173259.318000", "173300.571000", "173301.823000", "173303.067000", "173304.313000", "173305.589000", "173306.841000", "173308.087000", "173309.351000", "173310.634000", "173311.850000", "173313.118000", "173314.347000", "173315.603000", "173316.883000", "173318.089000", "173319.331000", "173320.578000", "173321.870000", "173323.074000", "173324.334000", "173325.606000", "173326.833000", "173328.081000", "173329.340000", "173330.588000", "173331.838000", "173333.092000", "173334.356000", "173335.589000", "173336.894000", "173338.111000", "173339.336000", "173340.600000", "173341.841000", "173343.113000", "173344.301000", "173345.605000", "173346.863000", "173348.084000", "173349.326000", "173350.604000", "173351.806000", "173353.120000", "173354.328000", "173355.606000", "173356.882000", "173358.082000", "173359.322000", "173400.597000", "173401.812000", "173403.075000", "173404.290000", "173405.613000", "173406.859000", "173408.094000", "173409.352000", "173410.588000", "173411.844000", "173413.092000", "173414.375000", "173415.606000", "173416.849000", "173418.091000", "173419.357000", "173420.575000", "173421.847000", "173423.085000", "173424.322000", "173425.580000", "173426.824000", "173428.105000", "173429.360000", "173430.614000", "173431.872000", "173433.071000", "173434.312000", "173435.637000", "173436.839000", "173438.089000", "173439.356000", "173440.618000", "173441.843000", "173443.090000", "173444.350000", "173445.579000", "173446.886000", "173448.081000", "173449.345000", "173450.578000", "173451.848000", "173453.093000", "173454.342000", "173455.578000", "173456.847000", "173458.091000", "173459.336000", "173500.574000", "173501.831000", "173503.112000", "173504.361000", "173505.591000", "173506.845000", "173508.095000", "173509.345000", "173510.637000", "173511.848000", "173513.072000", "173514.370000", "173515.584000", "173516.834000", "173518.085000", "173519.316000", "173520.587000", "173521.940000", "173523.123000", "173524.349000", "173525.592000", "173526.835000", "173528.061000", "173529.331000", "173530.575000", "173531.814000", "173533.102000", "173534.374000", "173535.596000", "173536.836000", "173538.096000", "173539.336000", "173540.587000", "173541.842000", "173543.072000", "173544.350000", "173545.609000", "173546.881000", "173548.115000", "173549.328000", "173550.575000", "173551.861000", "173553.139000", "173554.354000", "173555.588000", "173556.838000", "173558.085000", "173559.335000", "173600.552000", "173601.882000", "173603.089000", "173604.332000", "173605.559000", "173606.846000", "173608.069000", "173609.315000", "173610.601000", "173611.875000", "173613.105000", "173614.340000", "173615.576000", "173616.842000", "173618.100000", "173619.340000", "173620.593000", "173621.845000", "173623.129000", "173624.344000", "173625.624000", "173626.896000", "173628.076000", "173629.316000", "173630.605000", "173631.859000", "173633.097000", "173634.356000", "173635.588000", "173636.871000", "173638.079000", "173639.330000", "173640.557000", "173641.831000", "173643.107000", "173644.367000", "173645.587000", "173646.852000", "173648.111000", "173649.381000", "173650.627000", "173651.849000", "173653.102000"],
      "InstanceCreationTime": ["173104.487000", "173105.583000", "173106.844000", "173108.064000", "173109.406000", "173110.602000", "173111.829000", "173113.086000", "173114.365000", "173115.571000", "173116.828000", "173118.101000", "173119.340000", "173120.588000", "173121.841000", "173123.113000", "173124.347000", "173125.572000", "173126.872000", "173128.125000", "173129.455000", "173130.619000", "173131.829000", "173133.101000", "173134.330000", "173135.633000", "173136.850000", "173138.061000", "173139.344000", "173140.572000", "173141.818000", "173143.089000", "173144.310000", "173145.588000", "173146.839000", "173148.057000", "173149.308000", "173150.598000", "173151.858000", "173153.080000", "173154.350000", "173155.567000", "173156.848000", "173158.081000", "173159.351000", "173200.575000", "173201.828000", "173203.089000", "173204.331000", "173205.576000", "173206.796000", "173208.071000", "173209.316000", "173210.593000", "173211.830000", "173213.077000", "173214.333000", "173215.580000", "173216.833000", "173218.084000", "173219.327000", "173220.599000", "173221.822000", "173223.080000", "173224.328000", "173225.593000", "173226.829000", "173228.095000", "173229.321000", "173230.586000", "173231.834000", "173233.087000", "173234.336000", "173235.569000", "173236.845000", "173238.100000", "173239.370000", "173240.597000", "173241.792000", "173243.077000", "173244.327000", "173245.651000", "173246.809000", "173248.044000", "173249.310000", "173250.591000", "173251.821000", "173253.073000", "173254.335000", "173255.607000", "173256.847000", "173258.103000", "173259.318000", "173300.571000", "173301.823000", "173303.067000", "173304.313000", "173305.589000", "173306.841000", "173308.087000", "173309.351000", "173310.634000", "173311.850000", "173313.118000", "173314.347000", "173315.603000", "173316.883000", "173318.089000", "173319.331000", "173320.578000", "173321.870000", "173323.074000", "173324.334000", "173325.606000", "173326.833000", "173328.081000", "173329.340000", "173330.588000", "173331.838000", "173333.092000", "173334.356000", "173335.589000", "173336.894000", "173338.111000", "173339.336000", "173340.600000", "173341.841000", "173343.113000", "173344.301000", "173345.605000", "173346.863000", "173348.084000", "173349.326000", "173350.604000", "173351.806000", "173353.120000", "173354.328000", "173355.606000", "173356.882000", "173358.082000", "173359.322000", "173400.597000", "173401.812000", "173403.075000", "173404.290000", "173405.613000", "173406.859000", "173408.094000", "173409.352000", "173410.588000", "173411.844000", "173413.092000", "173414.375000", "173415.606000", "173416.849000", "173418.091000", "173419.357000", "173420.575000", "173421.847000", "173423.085000", "173424.322000", "173425.580000", "173426.824000", "173428.105000", "173429.360000", "173430.614000", "173431.872000", "173433.071000", "173434.312000", "173435.637000", "173436.839000", "173438.089000", "173439.356000", "173440.618000", "173441.843000", "173443.090000", "173444.350000", "173445.579000", "173446.886000", "173448.081000", "173449.345000", "173450.578000", "173451.848000", "173453.093000", "173454.342000", "173455.578000", "173456.847000", "173458.091000", "173459.336000", "173500.574000", "173501.831000", "173503.112000", "173504.361000", "173505.591000", "173506.845000", "173508.095000", "173509.345000", "173510.637000", "173511.848000", "173513.072000", "173514.370000", "173515.584000", "173516.834000", "173518.085000", "173519.316000", "173520.587000", "173521.940000", "173523.123000", "173524.349000", "173525.592000", "173526.835000", "173528.061000", "173529.331000", "173530.575000", "173531.814000", "173533.102000", "173534.374000", "173535.596000", "173536.836000", "173538.096000", "173539.336000", "173540.587000", "173541.842000", "173543.072000", "173544.350000", "173545.609000", "173546.881000", "173548.115000", "173549.328000", "173550.575000", "173551.861000", "173553.139000", "173554.354000", "173555.588000", "173556.838000", "173558.085000", "173559.335000", "173600.552000", "173601.882000", "173603.089000", "173604.332000", "173605.559000", "173606.846000", "173608.069000", "173609.315000", "173610.601000", "173611.875000", "173613.105000", "173614.340000", "173615.576000", "173616.842000", "173618.100000", "173619.340000", "173620.593000", "173621.845000", "173623.129000", "173624.344000", "173625.624000", "173626.896000", "173628.076000", "173629.316000", "173630.605000", "173631.859000", "173633.097000", "173634.356000", "173635.588000", "173636.871000", "173638.079000", "173639.330000", "173640.557000", "173641.831000", "173643.107000", "173644.367000", "173645.587000", "173646.852000", "173648.111000", "173649.381000", "173650.627000", "173651.849000", "173653.102000"],
      "InstanceNumber": [1, 2, 3, 4, 5, 6, 7, 8, 9, 10, 11, 12, 13, 14, 15, 16, 17, 18, 19, 20, 21, 22, 23, 24, 25, 26, 27, 28, 29, 30, 31, 32, 33, 34, 35, 36, 37, 38, 39, 40, 41, 42, 43, 44, 45, 46, 47, 48, 49, 50, 51, 52, 53, 54, 55, 56, 57, 58, 59, 60, 61, 62, 63, 64, 65, 66, 67, 68, 69, 70, 71, 72, 73, 74, 75, 76, 77, 78, 79, 80, 81, 82, 83, 84, 85, 86, 87, 88, 89, 90, 91, 92, 93, 94, 95, 96, 97, 98, 99, 100, 101, 102, 103, 104, 105, 106, 107, 108, 109, 110, 111, 112, 113, 114, 115, 116, 117, 118, 119, 120, 121, 122, 123, 124, 125, 126, 127, 128, 129, 130, 131, 132, 133, 134, 135, 136, 137, 138, 139, 140, 141, 142, 143, 144, 145, 146, 147, 148, 149, 150, 151, 152, 153, 154, 155, 156, 157, 158, 159, 160, 161, 162, 163, 164, 165, 166, 167, 168, 169, 170, 171, 172, 173, 174, 175, 176, 177, 178, 179, 180, 181, 182, 183, 184, 185, 186, 187, 188, 189, 190, 191, 192, 193, 194, 195, 196, 197, 198, 199, 200, 201, 202, 203, 204, 205, 206, 207, 208, 209, 210, 211, 212, 213, 214, 215, 216, 217, 218, 219, 220, 221, 222, 223, 224, 225, 226, 227, 228, 229, 230, 231, 232, 233, 234, 235, 236, 237, 238, 239, 240, 241, 242, 243, 244, 245, 246, 247, 248, 249, 250, 251, 252, 253, 254, 255, 256, 257, 258, 259, 260, 261, 262, 263, 264, 265, 266, 267, 268, 269, 270, 271, 272, 273, 274, 275, 276, 277, 278, 279, 280],
      "LargestImagePixelValue": [1221, 904, 1151, 1278, 993, 1111, 1189, 850, 1103, 1188, 911, 1052, 1160, 1006, 1047, 1236, 863, 1101, 1237, 871, 1101, 1222, 935, 1084, 1195, 841, 1075, 1207, 971, 1080, 1227, 871, 1145, 1228, 880, 1067, 1237, 876, 1116, 1202, 943, 1122, 1176, 1166, 943, 1169, 1236, 899, 1131, 1227, 882, 1108, 1204, 1247, 948, 1124, 1214, 841, 1073, 1208, 1211, 937, 1104, 1224, 825, 1086, 1223, 845, 1091, 1233, 840, 1091, 1218, 999, 1122, 1183, 1219, 982, 1187, 923, 1068, 1188, 883, 1133, 1184, 946, 1073, 1166, 781, 1051, 1176, 849, 1108, 1186, 821, 1105, 1174, 815, 1137, 1164, 957, 1072, 1200, 850, 1109, 1143, 795, 1010, 1176, 844, 1070, 1165, 915, 1099, 1160, 899, 1138, 1070, 1043, 1134, 899, 1021, 1145, 943, 1146, 956, 1009, 1169, 828, 1081, 1155, 845, 1050, 1164, 816, 990, 1150, 825, 1062, 1127, 896, 1005, 1118, 846, 1081, 1151, 899, 1071, 1125, 863, 985, 1063, 965, 989, 1105, 876, 1006, 1110, 788, 1038, 1102, 1013, 1064, 1076, 1161, 886, 1076, 829, 1024, 1092, 940, 1043, 1062, 1225, 919, 1092, 1142, 864, 1035, 1134, 843, 1012, 1095, 1013, 1078, 1023, 992, 1080, 897, 997, 1089, 808, 1006, 1143, 874, 1097, 993, 1064, 1116, 834, 1128, 1156, 1064, 1125, 866, 1063, 1082, 856, 1026, 1061, 834, 1003, 1081, 851, 1101, 1110, 865, 1110, 1109, 898, 1070, 1087, 868, 1091, 1110, 880, 1060, 1109, 878, 1045, 1075, 858, 1024, 1139, 1046, 1167, 1115, 1136, 945, 1129, 1180, 955, 1124, 932, 1052, 1105, 877, 1038, 1109, 856, 1097, 1213, 943, 1119, 884, 1080, 1150, 998, 1099, 1127, 927, 1137, 1203, 945, 1091, 1116, 824, 1078, 989, 1099, 1113, 870, 1145, 1020, 1103, 1151, 916, 1125, 1181, 939],
      "WindowCenter": [384.0, 380.0, 383.0, 384.0, 380.0, 382.0, 382.0, 379.0, 380.0, 382.0, 379.0, 381.0, 381.0, 381.0, 381.0, 382.0, 380.0, 382.0, 384.0, 381.0, 383.0, 384.0, 381.0, 382.0, 382.0, 380.0, 382.0, 383.0, 382.0, 383.0, 382.0, 379.0, 382.0, 383.0, 380.0, 380.0, 382.0, 380.0, 382.0, 382.0, 380.0, 382.0, 382.0, 382.0, 379.0, 382.0, 382.0, 379.0, 382.0, 383.0, 380.0, 381.0, 381.0, 382.0, 379.0, 381.0, 382.0, 381.0, 381.0, 382.0, 383.0, 381.0, 382.0, 383.0, 379.0, 382.0, 383.0, 380.0, 382.0, 382.0, 379.0, 383.0, 384.0, 380.0, 382.0, 381.0, 382.0, 381.0, 381.0, 380.0, 383.0, 383.0, 381.0, 382.0, 382.0, 379.0, 381.0, 381.0, 377.0, 382.0, 382.0, 379.0, 383.0, 383.0, 379.0, 383.0, 382.0, 380.0, 382.0, 384.0, 382.0, 381.0, 381.0, 380.0, 382.0, 381.0, 380.0, 382.0, 383.0, 381.0, 382.0, 383.0, 380.0, 382.0, 381.0, 380.0, 381.0, 381.0, 381.0, 382.0, 381.0, 381.0, 383.0, 381.0, 381.0, 380.0, 381.0, 382.0, 379.0, 381.0, 382.0, 380.0, 381.0, 382.0, 379.0, 380.0, 383.0, 380.0, 382.0, 383.0, 382.0, 382.0, 383.0, 381.0, 383.0, 382.0, 379.0, 382.0, 382.0, 380.0, 381.0, 382.0, 380.0, 381.0, 383.0, 380.0, 381.0, 382.0, 380.0, 384.0, 383.0, 382.0, 381.0, 382.0, 381.0, 380.0, 383.0, 380.0, 383.0, 383.0, 382.0, 382.0, 382.0, 382.0, 380.0, 382.0, 382.0, 380.0, 380.0, 382.0, 379.0, 382.0, 383.0, 382.0, 382.0, 381.0, 381.0, 383.0, 381.0, 380.0, 381.0, 380.0, 382.0, 383.0, 380.0, 381.0, 382.0, 381.0, 383.0, 380.0, 382.0, 382.0, 381.0, 381.0, 379.0, 380.0, 381.0, 379.0, 381.0, 381.0, 379.0, 381.0, 382.0, 380.0, 383.0, 382.0, 379.0, 382.0, 382.0, 380.0, 382.0, 382.0, 380.0, 383.0, 381.0, 380.0, 383.0, 382.0, 381.0, 381.0, 383.0, 381.0, 383.0, 383.0, 383.0, 384.0, 383.0, 383.0, 381.0, 383.0, 383.0, 381.0, 382.0, 381.0, 382.0, 382.0, 380.0, 382.0, 383.0, 381.0, 383.0, 384.0, 382.0, 382.0, 381.0, 383.0, 383.0, 381.0, 382.0, 382.0, 380.0, 383.0, 382.0, 380.0, 383.0, 383.0, 379.0, 382.0, 381.0, 383.0, 383.0, 381.0, 384.0, 383.0, 383.0, 383.0, 381.0, 382.0, 382.0, 379.0],
      "WindowWidth": [815.0, 808.0, 813.0, 814.0, 808.0, 811.0, 812.0, 807.0, 808.0, 811.0, 807.0, 810.0, 809.0, 810.0, 810.0, 812.0, 808.0, 812.0, 815.0, 811.0, 813.0, 814.0, 810.0, 811.0, 811.0, 809.0, 811.0, 812.0, 812.0, 813.0, 810.0, 806.0, 812.0, 813.0, 809.0, 808.0, 810.0, 809.0, 812.0, 810.0, 807.0, 810.0, 811.0, 811.0, 806.0, 810.0, 811.0, 806.0, 811.0, 813.0, 808.0, 809.0, 809.0, 811.0, 806.0, 810.0, 811.0, 810.0, 810.0, 811.0, 813.0, 810.0, 811.0, 813.0, 806.0, 811.0, 813.0, 809.0, 811.0, 812.0, 808.0, 814.0, 815.0, 808.0, 812.0, 809.0, 810.0, 809.0, 809.0, 809.0, 813.0, 813.0, 810.0, 811.0, 811.0, 807.0, 810.0, 809.0, 804.0, 811.0, 810.0, 807.0, 813.0, 812.0, 807.0, 813.0, 811.0, 809.0, 811.0, 815.0, 811.0, 809.0, 810.0, 808.0, 811.0, 808.0, 809.0, 811.0, 813.0, 810.0, 811.0, 814.0, 807.0, 811.0, 810.0, 809.0, 809.0, 810.0, 809.0, 811.0, 810.0, 809.0, 813.0, 810.0, 810.0, 808.0, 811.0, 812.0, 807.0, 809.0, 812.0, 808.0, 810.0, 811.0, 808.0, 808.0, 813.0, 809.0, 812.0, 814.0, 812.0, 812.0, 813.0, 810.0, 813.0, 812.0, 807.0, 810.0, 811.0, 808.0, 809.0, 811.0, 808.0, 809.0, 812.0, 809.0, 809.0, 811.0, 809.0, 814.0, 814.0, 811.0, 809.0, 812.0, 810.0, 809.0, 813.0, 809.0, 813.0, 813.0, 812.0, 811.0, 811.0, 810.0, 809.0, 811.0, 811.0, 808.0, 808.0, 812.0, 806.0, 812.0, 813.0, 812.0, 812.0, 810.0, 810.0, 813.0, 810.0, 809.0, 810.0, 809.0, 812.0, 813.0, 809.0, 810.0, 811.0, 810.0, 812.0, 808.0, 812.0, 812.0, 810.0, 810.0, 807.0, 809.0, 810.0, 807.0, 809.0, 810.0, 807.0, 811.0, 812.0, 809.0, 812.0, 812.0, 807.0, 812.0, 812.0, 809.0, 812.0, 812.0, 809.0, 814.0, 810.0, 808.0, 812.0, 811.0, 811.0, 810.0, 813.0, 811.0, 813.0, 813.0, 813.0, 815.0, 814.0, 814.0, 811.0, 813.0, 813.0, 810.0, 811.0, 810.0, 811.0, 811.0, 808.0, 811.0, 813.0, 810.0, 813.0, 814.0, 811.0, 812.0, 811.0, 813.0, 814.0, 811.0, 811.0, 812.0, 808.0, 812.0, 810.0, 809.0, 812.0, 813.0, 807.0, 812.0, 811.0, 813.0, 814.0, 810.0, 815.0, 813.0, 813.0, 813.0, 810.0, 811.0, 810.0, 806.0]
    },
    "slices": {}
  }
}