{
  "AcquisitionMatrixPE": 96,
  "AcquisitionNumber": 1,
  "AcquisitionTime": "17:50:35.192500",
  "BandwidthPerPixelPhaseEncode": 18.939,
  "BaseResolution": 96,
  "BodyPartExamined": "BRAIN",
  "ConsistencyInfo": "N4_VE11C_LATEST_20160120",
  "ConversionSoftware": "dcm2niix",
  "ConversionSoftwareVersion": "v1.0.20170923 (OpenJPEG build) GCC6.3.0",
  "DerivedVendorReportedEchoSpacing": 0.000550011,
  "DeviceSerialNumber": "66112",
  "DwellTime": 2.3e-06,
  "EchoTime": 0.033,
  "EchoTrainLength": 96,
  "EffectiveEchoSpacing": 0.000550011,
  "FlipAngle": 64,
  "ImageType": [
    "ORIGINAL",
    "PRIMARY",
    "FMRI",
    "NONE",
    "ND",
    "NORM",
    "MOSAIC"
],
  "InstitutionAddress": "Maynard_3_Hanover_NH_US_03755",
  "InstitutionName": "Dartmouth_College_-_PBS",
  "MagneticFieldStrength": 3,
  "Manufacturer": "Siemens",
  "ManufacturersModelName": "Prisma",
  "Modality": "MR",
  "MultibandAccelerationFactor": 4,
  "PartialFourier": 1,
  "PercentPhaseFOV": 100,
  "PhaseEncodingDirection": "j-",
  "PhaseEncodingSteps": 96,
  "PhaseResolution": 1,
  "ProcedureStepDescription": "Gobbini_Matteo_1017_famface-angles",
  "ProtocolName": "func_run-06_task-localizer",
  "PulseSequenceDetails": "%SiemensSeq%_ep2d_bold",
  "ReceiveCoilActiveElements": "HEA;HEP",
  "ReceiveCoilName": "Head_32",
  "ReconMatrixPE": 96,
  "RepetitionTime": 1.25,
  "ScanOptions": "FS",
  "ScanningSequence": "EP",
  "SequenceName": "_epfid2d1_96",
  "SequenceVariant": "SK",
  "SeriesDescription": "func_run-06_task-localizer",
  "SliceTiming": [0.8775, 0, 0.615, 0.0875, 0.7025, 0.175, 0.79, 0.3525, 0.9675, 0.44, 1.055, 0.5275, 1.1425, 0.2625, 0.8775, 0, 0.615, 0.0875, 0.7025, 0.175, 0.79, 0.3525, 0.9675, 0.44, 1.055, 0.5275, 1.1425, 0.2625, 0.8775, 0, 0.615, 0.0875, 0.7025, 0.175, 0.79, 0.3525, 0.9675, 0.44, 1.055, 0.5275, 1.1425, 0.2625, 0.8775, 0, 0.615, 0.0875, 0.7025, 0.175, 0.79, 0.3525, 0.9675, 0.44, 1.055, 0.5275, 1.1425, 0.2625],
  "SoftwareVersions": "syngo_MR_E11",
  "StationName": "AWP66112",
  "TaskName": "localizer",
  "TotalReadoutTime": 0.0522511,
  "dcmmeta_affine": [
    [-2.4995503425598145, -0.042320720851421356, -0.0213693305850029, 119.49958038330078],
    [-0.04386705160140991, 2.491920232772827, 0.19598422944545746, -101.56809997558594],
    [-0.017982587218284607, -0.1963239461183548, 2.4922146797180176, -50.92919158935547],
    [0.0, 0.0, 0.0, 1.0]
],
  "dcmmeta_reorient_transform": [
    [0.0, -1.0, 0.0, 95.0],
    [1.0, 0.0, 0.0, 0.0],
    [0.0, 0.0, 1.0, 0.0],
    [0.0, 0.0, 0.0, 1.0]
],
  "dcmmeta_shape": [96, 96, 56, 325],
  "dcmmeta_slice_dim": 2,
  "dcmmeta_version": 0.6,
  "global": {
    "const": {
      "AccessionNumber": "A000489",
      "AcquisitionMatrix": [96, 0, 0, 96],
      "AngioFlag": "N",
      "BitsAllocated": 16,
      "BitsStored": 12,
      "BodyPartExamined": "BRAIN",
      "Columns": 768,
      "EchoNumbers": 1,
      "EchoTime": 33.0,
      "EchoTrainLength": 96,
      "FlipAngle": 64.0,
      "HighBit": 11,
      "ImageOrientationPatient": [0.99982016850186, 0.01754682031476, -0.007193035086, -0.0169282880447, 0.99676804653708, 0.07852957701737],
      "ImagePositionPatient": [-941.10829375702, -987.18879679782, -129.50266109514],
      "ImageType": [
        "ORIGINAL",
        "PRIMARY",
        "FMRI",
        "NONE",
        "ND",
        "NORM",
        "MOSAIC"
],
      "ImagedNucleus": "1H",
      "ImagingFrequency": 123.252548,
      "InPlanePhaseEncodingDirection": "COL",
      "MRAcquisitionType": "2D",
      "MagneticFieldStrength": 3.0,
      "Manufacturer": "SIEMENS",
      "ManufacturerModelName": "Prisma",
      "Modality": "MR",
      "NumberOfAverages": 1.0,
      "NumberOfPhaseEncodingSteps": 96,
      "PercentPhaseFieldOfView": 100.0,
      "PercentSampling": 100.0,
      "PerformedProcedureStepStartTime": "170720.360000",
      "PhotometricInterpretation": "MONOCHROME2",
      "PixelBandwidth": 2265.0,
      "PixelRepresentation": 0,
      "PixelSpacing": [2.5, 2.5],
      "PositionReferenceIndicator": "",
      "ProtocolName": "func_run-06_task-localizer",
      "RepetitionTime": 1250.0,
      "Rows": 768,
      "SAR": 0.04783916233354,
      "SamplesPerPixel": 1,
      "ScanOptions": "FS",
      "ScanningSequence": "EP",
      "SequenceName": "*epfid2d1_96",
      "SequenceVariant": "SK",
      "SeriesDescription": "func_run-06_task-localizer",
      "SeriesNumber": 43,
      "SeriesTime": "175036.350000",
      "SliceLocation": -59.754338012404,
      "SliceThickness": 2.5,
      "SmallestImagePixelValue": 0,
      "SoftwareVersions": "syngo MR E11",
      "SpacingBetweenSlices": 2.5000000336875,
      "SpecificCharacterSet": "ISO_IR 100",
      "StudyID": "1",
      "StudyTime": "170720.301000",
      "TransmitCoilName": "Body",
      "VariableFlipAngleFlag": "N",
      "WindowCenterWidthExplanation": "Algo1",
      "dBdt": 0.0},
    "slices": {}
  },
  "time": {
    "samples": {
      "AcquisitionNumber": [1, 2, 3, 4, 5, 6, 7, 8, 9, 10, 11, 12, 13, 14, 15, 16, 17, 18, 19, 20, 21, 22, 23, 24, 25, 26, 27, 28, 29, 30, 31, 32, 33, 34, 35, 36, 37, 38, 39, 40, 41, 42, 43, 44, 45, 46, 47, 48, 49, 50, 51, 52, 53, 54, 55, 56, 57, 58, 59, 60, 61, 62, 63, 64, 65, 66, 67, 68, 69, 70, 71, 72, 73, 74, 75, 76, 77, 78, 79, 80, 81, 82, 83, 84, 85, 86, 87, 88, 89, 90, 91, 92, 93, 94, 95, 96, 97, 98, 99, 100, 101, 102, 103, 104, 105, 106, 107, 108, 109, 110, 111, 112, 113, 114, 115, 116, 117, 118, 119, 120, 121, 122, 123, 124, 125, 126, 127, 128, 129, 130, 131, 132, 133, 134, 135, 136, 137, 138, 139, 140, 141, 142, 143, 144, 145, 146, 147, 148, 149, 150, 151, 152, 153, 154, 155, 156, 157, 158, 159, 160, 161, 162, 163, 164, 165, 166, 167, 168, 169, 170, 171, 172, 173, 174, 175, 176, 177, 178, 179, 180, 181, 182, 183, 184, 185, 186, 187, 188, 189, 190, 191, 192, 193, 194, 195, 196, 197, 198, 199, 200, 201, 202, 203, 204, 205, 206, 207, 208, 209, 210, 211, 212, 213, 214, 215, 216, 217, 218, 219, 220, 221, 222, 223, 224, 225, 226, 227, 228, 229, 230, 231, 232, 233, 234, 235, 236, 237, 238, 239, 240, 241, 242, 243, 244, 245, 246, 247, 248, 249, 250, 251, 252, 253, 254, 255, 256, 257, 258, 259, 260, 261, 262, 263, 264, 265, 266, 267, 268, 269, 270, 271, 272, 273, 274, 275, 276, 277, 278, 279, 280, 281, 282, 283, 284, 285, 286, 287, 288, 289, 290, 291, 292, 293, 294, 295, 296, 297, 298, 299, 300, 301, 302, 303, 304, 305, 306, 307, 308, 309, 310, 311, 312, 313, 314, 315, 316, 317, 318, 319, 320, 321, 322, 323, 324, 325],
      "AcquisitionTime": ["175035.192500", "175036.442500", "175037.692500", "175038.942500", "175040.192500", "175041.442500", "175042.692500", "175043.942500", "175045.192500", "175046.442500", "175047.692500", "175048.942500", "175050.192500", "175051.442500", "175052.692500", "175053.942500", "175055.192500", "175056.442500", "175057.692500", "175058.942500", "175100.192500", "175101.442500", "175102.692500", "175103.942500", "175105.192500", "175106.442500", "175107.692500", "175108.942500", "175110.192500", "175111.442500", "175112.692500", "175113.942500", "175115.192500", "175116.442500", "175117.692500", "175118.942500", "175120.192500", "175121.442500", "175122.692500", "175123.942500", "175125.192500", "175126.442500", "175127.692500", "175128.942500", "175130.192500", "175131.442500", "175132.692500", "175133.942500", "175135.192500", "175136.442500", "175137.692500", "175138.942500", "175140.192500", "175141.442500", "175142.692500", "175143.942500", "175145.192500", "175146.442500", "175147.692500", "175148.942500", "175150.192500", "175151.442500", "175152.692500", "175153.942500", "175155.192500", "175156.442500", "175157.692500", "175158.942500", "175200.192500", "175201.442500", "175202.692500", "175203.942500", "175205.192500", "175206.442500", "175207.692500", "175208.942500", "175210.192500", "175211.442500", "175212.692500", "175213.942500", "175215.192500", "175216.442500", "175217.692500", "175218.942500", "175220.192500", "175221.442500", "175222.692500", "175223.942500", "175225.192500", "175226.442500", "175227.692500", "175228.942500", "175230.192500", "175231.442500", "175232.692500", "175233.942500", "175235.192500", "175236.442500", "175237.692500", "175238.942500", "175240.192500", "175241.442500", "175242.692500", "175243.942500", "175245.192500", "175246.442500", "175247.692500", "175248.942500", "175250.192500", "175251.442500", "175252.692500", "175253.942500", "175255.192500", "175256.442500", "175257.692500", "175258.942500", "175300.192500", "175301.442500", "175302.692500", "175303.942500", "175305.192500", "175306.442500", "175307.692500", "175308.942500", "175310.192500", "175311.442500", "175312.692500", "175313.942500", "175315.192500", "175316.442500", "175317.692500", "175318.942500", "175320.192500", "175321.442500", "175322.692500", "175323.942500", "175325.192500", "175326.442500", "175327.692500", "175328.942500", "175330.192500", "175331.442500", "175332.692500", "175333.942500", "175335.192500", "175336.442500", "175337.692500", "175338.942500", "175340.192500", "175341.442500", "175342.692500", "175343.942500", "175345.192500", "175346.442500", "175347.692500", "175348.942500", "175350.192500", "175351.442500", "175352.692500", "175353.942500", "175355.192500", "175356.442500", "175357.692500", "175358.942500", "175400.192500", "175401.442500", "175402.692500", "175403.942500", "175405.192500", "175406.442500", "175407.692500", "175408.942500", "175410.192500", "175411.442500", "175412.692500", "175413.942500", "175415.192500", "175416.442500", "175417.692500", "175418.942500", "175420.192500", "175421.442500", "175422.692500", "175423.942500", "175425.192500", "175426.442500", "175427.692500", "175428.942500", "175430.192500", "175431.442500", "175432.692500", "175433.942500", "175435.192500", "175436.442500", "175437.692500", "175438.942500", "175440.192500", "175441.442500", "175442.692500", "175443.942500", "175445.192500", "175446.442500", "175447.692500", "175448.942500", "175450.192500", "175451.442500", "175452.692500", "175453.942500", "175455.192500", "175456.442500", "175457.692500", "175458.942500", "175500.192500", "175501.442500", "175502.692500", "175503.942500", "175505.192500", "175506.442500", "175507.692500", "175508.942500", "175510.192500", "175511.442500", "175512.692500", "175513.942500", "175515.192500", "175516.442500", "175517.692500", "175518.942500", "175520.192500", "175521.442500", "175522.692500", "175523.942500", "175525.192500", "175526.442500", "175527.692500", "175528.942500", "175530.192500", "175531.442500", "175532.692500", "175533.942500", "175535.192500", "175536.442500", "175537.692500", "175538.942500", "175540.192500", "175541.442500", "175542.692500", "175543.942500", "175545.192500", "175546.442500", "175547.692500", "175548.942500", "175550.192500", "175551.442500", "175552.692500", "175553.942500", "175555.192500", "175556.442500", "175557.692500", "175558.942500", "175600.192500", "175601.442500", "175602.692500", "175603.942500", "175605.192500", "175606.442500", "175607.692500", "175608.942500", "175610.192500", "175611.442500", "175612.692500", "175613.942500", "175615.192500", "175616.442500", "175617.692500", "175618.942500", "175620.192500", "175621.442500", "175622.692500", "175623.942500", "175625.192500", "175626.442500", "175627.692500", "175628.942500", "175630.192500", "175631.442500", "175632.692500", "175633.942500", "175635.192500", "175636.442500", "175637.692500", "175638.942500", "175640.192500", "175641.442500", "175642.692500", "175643.942500", "175645.192500", "175646.442500", "175647.692500", "175648.942500", "175650.192500", "175651.442500", "175652.692500", "175653.942500", "175655.192500", "175656.442500", "175657.692500", "175658.942500", "175700.192500", "175701.442500", "175702.692500", "175703.942500", "175705.192500", "175706.442500", "175707.692500", "175708.942500", "175710.192500", "175711.442500", "175712.692500", "175713.942500", "175715.192500", "175716.442500", "175717.692500", "175718.942500", "175720.192500"],
      "ContentTime": ["175036.354000", "175037.446000", "175038.647000", "175039.934000", "175041.181000", "175042.385000", "175043.685000", "175044.929000", "175046.137000", "175047.430000", "175048.682000", "175049.922000", "175051.157000", "175052.399000", "175053.671000", "175054.945000", "175056.198000", "175057.431000", "175058.674000", "175059.927000", "175101.173000", "175102.415000", "175103.656000", "175104.925000", "175106.134000", "175107.431000", "175108.684000", "175109.922000", "175111.182000", "175112.444000", "175113.672000", "175114.903000", "175116.169000", "175117.416000", "175118.684000", "175119.939000", "175121.188000", "175122.414000", "175123.676000", "175124.923000", "175126.162000", "175127.430000", "175128.662000", "175129.909000", "175131.153000", "175132.421000", "175133.687000", "175134.938000", "175136.150000", "175137.426000", "175138.686000", "175139.926000", "175141.173000", "175142.434000", "175143.663000", "175144.944000", "175146.168000", "175147.384000", "175148.653000", "175149.932000", "175151.145000", "175152.424000", "175153.687000", "175154.937000", "175156.198000", "175157.442000", "175158.642000", "175159.926000", "175201.166000", "175202.403000", "175203.649000", "175204.925000", "175206.160000", "175207.419000", "175208.666000", "175209.929000", "175211.239000", "175212.413000", "175213.712000", "175214.948000", "175216.134000", "175217.422000", "175218.702000", "175219.906000", "175221.190000", "175222.402000", "175223.693000", "175224.934000", "175226.184000", "175227.473000", "175228.662000", "175229.937000", "175231.163000", "175232.420000", "175233.635000", "175234.920000", "175236.159000", "175237.444000", "175238.679000", "175239.899000", "175241.160000", "175242.474000", "175243.727000", "175245.053000", "175246.180000", "175247.470000", "175248.692000", "175249.934000", "175251.170000", "175252.443000", "175253.716000", "175254.961000", "175256.171000", "175257.443000", "175258.682000", "175259.948000", "175301.157000", "175302.423000", "175303.664000", "175304.933000", "175306.173000", "175307.418000", "175308.700000", "175309.938000", "175311.176000", "175312.414000", "175313.688000", "175314.936000", "175316.166000", "175317.430000", "175318.669000", "175319.976000", "175321.230000", "175322.432000", "175323.658000", "175324.897000", "175326.180000", "175327.434000", "175328.700000", "175329.917000", "175331.170000", "175332.428000", "175333.661000", "175334.937000", "175336.176000", "175337.425000", "175338.676000", "175339.925000", "175341.169000", "175342.429000", "175343.671000", "175344.908000", "175346.171000", "175347.418000", "175348.663000", "175349.941000", "175351.166000", "175352.429000", "175353.679000", "175354.933000", "175356.211000", "175357.428000", "175358.687000", "175359.926000", "175401.172000", "175402.413000", "175403.662000", "175404.939000", "175406.190000", "175407.415000", "175408.709000", "175409.939000", "175411.167000", "175412.392000", "175413.676000", "175414.921000", "175416.191000", "175417.438000", "175418.655000", "175419.932000", "175421.184000", "175422.437000", "175423.684000", "175424.934000", "175426.179000", "175427.436000", "175428.660000", "175429.930000", "175431.173000", "175432.412000", "175433.690000", "175434.940000", "175436.168000", "175437.402000", "175438.685000", "175439.924000", "175441.167000", "175442.437000", "175443.667000", "175444.912000", "175446.230000", "175447.431000", "175448.724000", "175449.916000", "175451.171000", "175452.448000", "175453.705000", "175454.932000", "175456.152000", "175457.433000", "175458.681000", "175459.949000", "175501.172000", "175502.430000", "175503.678000", "175504.935000", "175506.203000", "175507.431000", "175508.684000", "175509.918000", "175511.227000", "175512.425000", "175513.693000", "175514.939000", "175516.209000", "175517.398000", "175518.672000", "175519.927000", "175521.179000", "175522.441000", "175523.659000", "175524.951000", "175526.172000", "175527.417000", "175528.655000", "175529.927000", "175531.171000", "175532.492000", "175533.738000", "175534.928000", "175536.157000", "175537.439000", "175538.680000", "175539.924000", "175541.192000", "175542.437000", "175543.692000", "175544.940000", "175546.160000", "175547.477000", "175548.666000", "175549.968000", "175551.192000", "175552.402000", "175553.673000", "175554.902000", "175556.184000", "175557.405000", "175558.669000", "175559.916000", "175601.195000", "175602.483000", "175603.663000", "175604.931000", "175606.175000", "175607.421000", "175608.705000", "175609.900000", "175611.186000", "175612.417000", "175613.691000", "175614.915000", "175616.217000", "175617.426000", "175618.743000", "175619.968000", "175621.177000", "175622.429000", "175623.664000", "175624.957000", "175626.207000", "175627.434000", "175628.637000", "175629.949000", "175631.172000", "175632.383000", "175633.649000", "175634.947000", "175636.196000", "175637.422000", "175638.676000", "175639.900000", "175641.184000", "175642.397000", "175643.668000", "175644.928000", "175646.183000", "175647.407000", "175648.663000", "175649.918000", "175651.155000", "175652.425000", "175653.665000", "175654.929000", "175656.178000", "175657.443000", "175658.690000", "175659.941000", "175701.148000", "175702.421000", "175703.696000", "175704.917000", "175706.176000", "175707.435000", "175708.657000", "175709.909000", "175711.188000", "175712.398000", "175713.699000", "175714.920000", "175716.193000", "175717.448000", "175718.705000", "175719.953000", "175721.252000"],
      "InstanceCreationTime": ["175036.354000", "175037.446000", "175038.647000", "175039.934000", "175041.181000", "175042.385000", "175043.685000", "175044.929000", "175046.137000", "175047.430000", "175048.682000", "175049.922000", "175051.157000", "175052.399000", "175053.671000", "175054.945000", "175056.198000", "175057.431000", "175058.674000", "175059.927000", "175101.173000", "175102.415000", "175103.656000", "175104.925000", "175106.134000", "175107.431000", "175108.684000", "175109.922000", "175111.182000", "175112.444000", "175113.672000", "175114.903000", "175116.169000", "175117.416000", "175118.684000", "175119.939000", "175121.188000", "175122.414000", "175123.676000", "175124.923000", "175126.162000", "175127.430000", "175128.662000", "175129.909000", "175131.153000", "175132.421000", "175133.687000", "175134.938000", "175136.150000", "175137.426000", "175138.686000", "175139.926000", "175141.173000", "175142.434000", "175143.663000", "175144.944000", "175146.168000", "175147.384000", "175148.653000", "175149.932000", "175151.145000", "175152.424000", "175153.687000", "175154.937000", "175156.198000", "175157.442000", "175158.642000", "175159.926000", "175201.166000", "175202.403000", "175203.649000", "175204.925000", "175206.160000", "175207.419000", "175208.666000", "175209.929000", "175211.239000", "175212.413000", "175213.712000", "175214.948000", "175216.134000", "175217.422000", "175218.702000", "175219.906000", "175221.190000", "175222.402000", "175223.693000", "175224.934000", "175226.184000", "175227.473000", "175228.662000", "175229.937000", "175231.163000", "175232.420000", "175233.635000", "175234.920000", "175236.159000", "175237.444000", "175238.679000", "175239.899000", "175241.160000", "175242.474000", "175243.727000", "175245.053000", "175246.180000", "175247.470000", "175248.692000", "175249.934000", "175251.170000", "175252.443000", "175253.716000", "175254.961000", "175256.171000", "175257.443000", "175258.682000", "175259.948000", "175301.157000", "175302.423000", "175303.664000", "175304.933000", "175306.173000", "175307.418000", "175308.700000", "175309.938000", "175311.176000", "175312.414000", "175313.688000", "175314.936000", "175316.166000", "175317.430000", "175318.669000", "175319.976000", "175321.230000", "175322.432000", "175323.658000", "175324.897000", "175326.180000", "175327.434000", "175328.700000", "175329.917000", "175331.170000", "175332.428000", "175333.661000", "175334.937000", "175336.176000", "175337.425000", "175338.676000", "175339.925000", "175341.169000", "175342.429000", "175343.671000", "175344.908000", "175346.171000", "175347.418000", "175348.663000", "175349.941000", "175351.166000", "175352.429000", "175353.679000", "175354.933000", "175356.211000", "175357.428000", "175358.687000", "175359.926000", "175401.172000", "175402.413000", "175403.662000", "175404.939000", "175406.190000", "175407.415000", "175408.709000", "175409.939000", "175411.167000", "175412.392000", "175413.676000", "175414.921000", "175416.191000", "175417.438000", "175418.655000", "175419.932000", "175421.184000", "175422.437000", "175423.684000", "175424.934000", "175426.179000", "175427.436000", "175428.660000", "175429.930000", "175431.173000", "175432.412000", "175433.690000", "175434.940000", "175436.168000", "175437.402000", "175438.685000", "175439.924000", "175441.167000", "175442.437000", "175443.667000", "175444.912000", "175446.230000", "175447.431000", "175448.724000", "175449.916000", "175451.171000", "175452.448000", "175453.705000", "175454.932000", "175456.152000", "175457.433000", "175458.681000", "175459.949000", "175501.172000", "175502.430000", "175503.678000", "175504.935000", "175506.203000", "175507.431000", "175508.684000", "175509.918000", "175511.227000", "175512.425000", "175513.693000", "175514.939000", "175516.209000", "175517.398000", "175518.672000", "175519.927000", "175521.179000", "175522.441000", "175523.659000", "175524.951000", "175526.172000", "175527.417000", "175528.655000", "175529.927000", "175531.171000", "175532.492000", "175533.738000", "175534.928000", "175536.157000", "175537.439000", "175538.680000", "175539.924000", "175541.192000", "175542.437000", "175543.692000", "175544.940000", "175546.160000", "175547.477000", "175548.666000", "175549.968000", "175551.192000", "175552.402000", "175553.673000", "175554.902000", "175556.184000", "175557.405000", "175558.669000", "175559.916000", "175601.195000", "175602.483000", "175603.663000", "175604.931000", "175606.175000", "175607.421000", "175608.705000", "175609.900000", "175611.186000", "175612.417000", "175613.691000", "175614.915000", "175616.217000", "175617.426000", "175618.743000", "175619.968000", "175621.177000", "175622.429000", "175623.664000", "175624.957000", "175626.207000", "175627.434000", "175628.637000", "175629.949000", "175631.172000", "175632.383000", "175633.649000", "175634.947000", "175636.196000", "175637.422000", "175638.676000", "175639.900000", "175641.184000", "175642.397000", "175643.668000", "175644.928000", "175646.183000", "175647.407000", "175648.663000", "175649.918000", "175651.155000", "175652.425000", "175653.665000", "175654.929000", "175656.178000", "175657.443000", "175658.690000", "175659.941000", "175701.148000", "175702.421000", "175703.696000", "175704.917000", "175706.176000", "175707.435000", "175708.657000", "175709.909000", "175711.188000", "175712.398000", "175713.699000", "175714.920000", "175716.193000", "175717.448000", "175718.705000", "175719.953000", "175721.252000"],
      "InstanceNumber": [1, 2, 3, 4, 5, 6, 7, 8, 9, 10, 11, 12, 13, 14, 15, 16, 17, 18, 19, 20, 21, 22, 23, 24, 25, 26, 27, 28, 29, 30, 31, 32, 33, 34, 35, 36, 37, 38, 39, 40, 41, 42, 43, 44, 45, 46, 47, 48, 49, 50, 51, 52, 53, 54, 55, 56, 57, 58, 59, 60, 61, 62, 63, 64, 65, 66, 67, 68, 69, 70, 71, 72, 73, 74, 75, 76, 77, 78, 79, 80, 81, 82, 83, 84, 85, 86, 87, 88, 89, 90, 91, 92, 93, 94, 95, 96, 97, 98, 99, 100, 101, 102, 103, 104, 105, 106, 107, 108, 109, 110, 111, 112, 113, 114, 115, 116, 117, 118, 119, 120, 121, 122, 123, 124, 125, 126, 127, 128, 129, 130, 131, 132, 133, 134, 135, 136, 137, 138, 139, 140, 141, 142, 143, 144, 145, 146, 147, 148, 149, 150, 151, 152, 153, 154, 155, 156, 157, 158, 159, 160, 161, 162, 163, 164, 165, 166, 167, 168, 169, 170, 171, 172, 173, 174, 175, 176, 177, 178, 179, 180, 181, 182, 183, 184, 185, 186, 187, 188, 189, 190, 191, 192, 193, 194, 195, 196, 197, 198, 199, 200, 201, 202, 203, 204, 205, 206, 207, 208, 209, 210, 211, 212, 213, 214, 215, 216, 217, 218, 219, 220, 221, 222, 223, 224, 225, 226, 227, 228, 229, 230, 231, 232, 233, 234, 235, 236, 237, 238, 239, 240, 241, 242, 243, 244, 245, 246, 247, 248, 249, 250, 251, 252, 253, 254, 255, 256, 257, 258, 259, 260, 261, 262, 263, 264, 265, 266, 267, 268, 269, 270, 271, 272, 273, 274, 275, 276, 277, 278, 279, 280, 281, 282, 283, 284, 285, 286, 287, 288, 289, 290, 291, 292, 293, 294, 295, 296, 297, 298, 299, 300, 301, 302, 303, 304, 305, 306, 307, 308, 309, 310, 311, 312, 313, 314, 315, 316, 317, 318, 319, 320, 321, 322, 323, 324, 325],
      "LargestImagePixelValue": [1145, 1162, 924, 1113, 921, 1110, 1172, 1019, 1080, 1159, 1117, 821, 1115, 1147, 913, 1091, 1123, 890, 1121, 1157, 957, 1135, 1129, 971, 1121, 1166, 887, 1120, 1157, 1066, 875, 1106, 1112, 880, 1119, 1093, 866, 1091, 1139, 898, 1123, 1146, 900, 1173, 1135, 869, 1147, 1175, 965, 1099, 1140, 901, 1120, 1169, 1120, 880, 1125, 1124, 851, 1141, 1097, 921, 1142, 1080, 928, 1198, 962, 1156, 1175, 875, 1101, 1147, 893, 1091, 1145, 882, 1119, 1147, 1115, 863, 1117, 1080, 949, 1084, 1110, 1120, 973, 1068, 1085, 1095, 845, 1084, 1167, 1144, 910, 1046, 1118, 1191, 910, 1097, 925, 1087, 1138, 1113, 1018, 1139, 1061, 1051, 1100, 1064, 1055, 982, 1073, 815, 1088, 1092, 972, 920, 1081, 1118, 1202, 915, 1062, 1099, 848, 1101, 1108, 1088, 821, 1067, 1105, 1073, 833, 1088, 1108, 859, 1090, 1121, 903, 1056, 1130, 1124, 935, 1096, 1130, 866, 1083, 1104, 912, 1066, 1109, 901, 1050, 1146, 1108, 1042, 1105, 986, 1065, 1131, 858, 1097, 1119, 1186, 895, 1051, 1093, 804, 1071, 1113, 878, 1047, 1117, 978, 1045, 1095, 1114, 883, 1021, 1108, 875, 1025, 1094, 1114, 1126, 862, 1018, 1118, 1168, 884, 1056, 1104, 890, 1018, 1089, 931, 1153, 1052, 1119, 1153, 1084, 1009, 1100, 1176, 880, 1101, 1100, 872, 1058, 1117, 887, 1071, 1112, 1136, 842, 1066, 1133, 875, 1046, 1149, 898, 1060, 1129, 1199, 894, 1088, 1136, 880, 1075, 1123, 893, 1083, 1157, 1085, 1082, 1133, 1159, 931, 1081, 971, 944, 1146, 1124, 901, 1116, 1123, 1137, 926, 1111, 1122, 1166, 839, 1065, 1089, 861, 1054, 1088, 876, 1013, 1126, 1111, 820, 1015, 1098, 868, 1032, 1141, 1129, 846, 1029, 1136, 1069, 999, 1099, 898, 1039, 1116, 1174, 901, 1161, 1177, 889, 1008, 1127, 929, 1000, 1102, 1129, 869, 1061, 1097, 865, 1036, 1136, 907, 1054, 1091, 1122, 923, 1026, 1094, 791, 1056, 1105, 827, 1068, 1115, 955, 1086, 1153, 869, 1100, 1115, 1174, 879, 1036, 1058, 811, 1060, 1094, 874, 1010, 1116, 1118, 1028],
      "WindowCenter": [383.0, 383.0, 381.0, 384.0, 381.0, 384.0, 384.0, 382.0, 382.0, 382.0, 382.0, 379.0, 381.0, 382.0, 381.0, 383.0, 383.0, 381.0, 383.0, 383.0, 382.0, 383.0, 382.0, 381.0, 382.0, 382.0, 379.0, 382.0, 382.0, 381.0, 379.0, 382.0, 382.0, 380.0, 383.0, 383.0, 380.0, 382.0, 382.0, 381.0, 383.0, 383.0, 381.0, 383.0, 382.0, 380.0, 382.0, 383.0, 380.0, 381.0, 382.0, 380.0, 382.0, 383.0, 382.0, 380.0, 382.0, 382.0, 380.0, 383.0, 383.0, 381.0, 382.0, 382.0, 381.0, 384.0, 381.0, 382.0, 382.0, 379.0, 380.0, 381.0, 379.0, 379.0, 381.0, 379.0, 381.0, 382.0, 382.0, 380.0, 381.0, 382.0, 380.0, 381.0, 382.0, 382.0, 381.0, 381.0, 381.0, 381.0, 379.0, 383.0, 384.0, 384.0, 381.0, 382.0, 382.0, 382.0, 380.0, 382.0, 381.0, 382.0, 382.0, 382.0, 380.0, 382.0, 380.0, 381.0, 382.0, 381.0, 381.0, 378.0, 380.0, 379.0, 383.0, 384.0, 383.0, 381.0, 382.0, 382.0, 382.0, 379.0, 381.0, 382.0, 380.0, 382.0, 381.0, 382.0, 379.0, 382.0, 382.0, 382.0, 378.0, 382.0, 383.0, 380.0, 382.0, 382.0, 381.0, 382.0, 383.0, 381.0, 380.0, 382.0, 382.0, 379.0, 382.0, 383.0, 382.0, 383.0, 382.0, 381.0, 382.0, 382.0, 382.0, 381.0, 382.0, 379.0, 381.0, 381.0, 379.0, 381.0, 381.0, 382.0, 379.0, 380.0, 381.0, 378.0, 381.0, 382.0, 380.0, 382.0, 382.0, 381.0, 382.0, 382.0, 381.0, 380.0, 381.0, 382.0, 381.0, 382.0, 383.0, 382.0, 382.0, 379.0, 381.0, 382.0, 382.0, 380.0, 382.0, 382.0, 380.0, 382.0, 382.0, 381.0, 383.0, 383.0, 383.0, 383.0, 381.0, 380.0, 380.0, 382.0, 379.0, 382.0, 382.0, 379.0, 380.0, 381.0, 379.0, 382.0, 381.0, 382.0, 379.0, 382.0, 383.0, 380.0, 382.0, 383.0, 382.0, 382.0, 383.0, 381.0, 380.0, 382.0, 382.0, 380.0, 382.0, 382.0, 380.0, 383.0, 383.0, 382.0, 382.0, 382.0, 382.0, 379.0, 382.0, 381.0, 382.0, 383.0, 382.0, 380.0, 382.0, 382.0, 382.0, 379.0, 381.0, 381.0, 380.0, 379.0, 381.0, 381.0, 380.0, 381.0, 382.0, 380.0, 380.0, 381.0, 381.0, 378.0, 380.0, 382.0, 380.0, 382.0, 382.0, 382.0, 379.0, 381.0, 382.0, 381.0, 380.0, 382.0, 381.0, 383.0, 382.0, 383.0, 380.0, 382.0, 382.0, 378.0, 381.0, 381.0, 379.0, 380.0, 382.0, 382.0, 380.0, 380.0, 382.0, 380.0, 381.0, 382.0, 378.0, 381.0, 381.0, 382.0, 380.0, 381.0, 382.0, 379.0, 382.0, 382.0, 380.0, 382.0, 383.0, 381.0, 382.0, 383.0, 379.0, 380.0, 380.0, 382.0, 379.0, 381.0, 382.0, 379.0, 382.0, 383.0, 381.0, 381.0, 383.0, 383.0, 380.0],
