{
  "AcquisitionMatrixPE": 96,
  "AcquisitionNumber": 1,
  "AcquisitionTime": "17:43:48.827500",
  "BandwidthPerPixelPhaseEncode": 18.939,
  "BaseResolution": 96,
  "BodyPartExamined": "BRAIN",
  "ConsistencyInfo": "N4_VE11C_LATEST_20160120",
  "ConversionSoftware": "dcm2niix",
  "ConversionSoftwareVersion": "v1.0.20170923 (OpenJPEG build) GCC6.3.0",
  "DerivedVendorReportedEchoSpacing": 0.000550011,
  "DeviceSerialNumber": "66112",
  "DwellTime": 2.3e-06,
  "EchoTime": 0.033,
  "EchoTrainLength": 96,
  "EffectiveEchoSpacing": 0.000550011,
  "FlipAngle": 64,
  "ImageType": [
    "ORIGINAL",
    "PRIMARY",
    "FMRI",
    "NONE",
    "ND",
    "NORM",
    "MOSAIC"
],
  "InstitutionAddress": "Maynard_3_Hanover_NH_US_03755",
  "InstitutionName": "Dartmouth_College_-_PBS",
  "MagneticFieldStrength": 3,
  "Manufacturer": "Siemens",
  "ManufacturersModelName": "Prisma",
  "Modality": "MR",
  "MultibandAccelerationFactor": 4,
  "PartialFourier": 1,
  "PercentPhaseFOV": 100,
  "PhaseEncodingDirection": "j-",
  "PhaseEncodingSteps": 96,
  "PhaseResolution": 1,
  "ProcedureStepDescription": "Gobbini_Matteo_1017_famface-angles",
  "ProtocolName": "func_run-05_task-fam1back",
  "PulseSequenceDetails": "%SiemensSeq%_ep2d_bold",
  "ReceiveCoilActiveElements": "HEA;HEP",
  "ReceiveCoilName": "Head_32",
  "ReconMatrixPE": 96,
  "RepetitionTime": 1.25,
  "ScanOptions": "FS",
  "ScanningSequence": "EP",
  "SequenceName": "_epfid2d1_96",
  "SequenceVariant": "SK",
  "SeriesDescription": "func_run-05_task-fam1back",
  "SliceTiming": [0.8775, 0, 0.615, 0.0875, 0.7025, 0.175, 0.79, 0.35, 0.965, 0.4375, 1.0525, 0.525, 1.14, 0.2625, 0.8775, 0, 0.615, 0.0875, 0.7025, 0.175, 0.79, 0.35, 0.965, 0.4375, 1.0525, 0.525, 1.14, 0.2625, 0.8775, 0, 0.615, 0.0875, 0.7025, 0.175, 0.79, 0.35, 0.965, 0.4375, 1.0525, 0.525, 1.14, 0.2625, 0.8775, 0, 0.615, 0.0875, 0.7025, 0.175, 0.79, 0.35, 0.965, 0.4375, 1.0525, 0.525, 1.14, 0.2625],
  "SoftwareVersions": "syngo_MR_E11",
  "StationName": "AWP66112",
  "TaskName": "fam1back",
  "TotalReadoutTime": 0.0522511,
  "dcmmeta_affine": [
    [-2.4995503425598145, -0.042320720851421356, -0.0213693305850029, 119.49958038330078],
    [-0.04386705160140991, 2.491920232772827, 0.19598422944545746, -101.56809997558594],
    [-0.017982587218284607, -0.1963239461183548, 2.4922146797180176, -50.92919158935547],
    [0.0, 0.0, 0.0, 1.0]
],
  "dcmmeta_reorient_transform": [
    [0.0, -1.0, 0.0, 95.0],
    [1.0, 0.0, 0.0, 0.0],
    [0.0, 0.0, 1.0, 0.0],
    [0.0, 0.0, 0.0, 1.0]
],
  "dcmmeta_shape": [96, 96, 56, 280],
  "dcmmeta_slice_dim": 2,
  "dcmmeta_version": 0.6,
  "global": {
    "const": {
      "AccessionNumber": "A000489",
      "AcquisitionMatrix": [96, 0, 0, 96],
      "AngioFlag": "N",
      "BitsAllocated": 16,
      "BitsStored": 12,
      "BodyPartExamined": "BRAIN",
      "Columns": 768,
      "EchoNumbers": 1,
      "EchoTime": 33.0,
      "EchoTrainLength": 96,
      "FlipAngle": 64.0,
      "HighBit": 11,
      "ImageOrientationPatient": [0.99982016850186, 0.01754682031476, -0.007193035086, -0.0169282880447, 0.99676804653708, 0.07852957701737],
      "ImagePositionPatient": [-941.10829375702, -987.18879679782, -129.50266109514],
      "ImageType": [
        "ORIGINAL",
        "PRIMARY",
        "FMRI",
        "NONE",
        "ND",
        "NORM",
        "MOSAIC"
],
      "ImagedNucleus": "1H",
      "ImagingFrequency": 123.252547,
      "InPlanePhaseEncodingDirection": "COL",
      "MRAcquisitionType": "2D",
      "MagneticFieldStrength": 3.0,
      "Manufacturer": "SIEMENS",
      "ManufacturerModelName": "Prisma",
      "Modality": "MR",
      "NumberOfAverages": 1.0,
      "NumberOfPhaseEncodingSteps": 96,
      "PercentPhaseFieldOfView": 100.0,
      "PercentSampling": 100.0,
      "PerformedProcedureStepStartTime": "170720.360000",
      "PhotometricInterpretation": "MONOCHROME2",
      "PixelBandwidth": 2265.0,
      "PixelRepresentation": 0,
      "PixelSpacing": [2.5, 2.5],
      "PositionReferenceIndicator": "",
      "ProtocolName": "func_run-05_task-fam1back",
      "RepetitionTime": 1250.0,
      "Rows": 768,
      "SAR": 0.04777419041936,
      "SamplesPerPixel": 1,
      "ScanOptions": "FS",
      "ScanningSequence": "EP",
      "SequenceName": "*epfid2d1_96",
      "SequenceVariant": "SK",
      "SeriesDescription": "func_run-05_task-fam1back",
      "SeriesNumber": 36,
      "SeriesTime": "174350.232000",
      "SliceLocation": -59.754338012404,
      "SliceThickness": 2.5,
      "SmallestImagePixelValue": 0,
      "SoftwareVersions": "syngo MR E11",
      "SpacingBetweenSlices": 2.5000000336875,
      "SpecificCharacterSet": "ISO_IR 100",
      "StudyID": "1",
      "StudyTime": "170720.301000",
      "TransmitCoilName": "Body",
      "VariableFlipAngleFlag": "N",
      "WindowCenterWidthExplanation": "Algo1",
      "dBdt": 0.0},
    "slices": {}
  },
  "time": {
    "samples": {
      "AcquisitionNumber": [1, 2, 3, 4, 5, 6, 7, 8, 9, 10, 11, 12, 13, 14, 15, 16, 17, 18, 19, 20, 21, 22, 23, 24, 25, 26, 27, 28, 29, 30, 31, 32, 33, 34, 35, 36, 37, 38, 39, 40, 41, 42, 43, 44, 45, 46, 47, 48, 49, 50, 51, 52, 53, 54, 55, 56, 57, 58, 59, 60, 61, 62, 63, 64, 65, 66, 67, 68, 69, 70, 71, 72, 73, 74, 75, 76, 77, 78, 79, 80, 81, 82, 83, 84, 85, 86, 87, 88, 89, 90, 91, 92, 93, 94, 95, 96, 97, 98, 99, 100, 101, 102, 103, 104, 105, 106, 107, 108, 109, 110, 111, 112, 113, 114, 115, 116, 117, 118, 119, 120, 121, 122, 123, 124, 125, 126, 127, 128, 129, 130, 131, 132, 133, 134, 135, 136, 137, 138, 139, 140, 141, 142, 143, 144, 145, 146, 147, 148, 149, 150, 151, 152, 153, 154, 155, 156, 157, 158, 159, 160, 161, 162, 163, 164, 165, 166, 167, 168, 169, 170, 171, 172, 173, 174, 175, 176, 177, 178, 179, 180, 181, 182, 183, 184, 185, 186, 187, 188, 189, 190, 191, 192, 193, 194, 195, 196, 197, 198, 199, 200, 201, 202, 203, 204, 205, 206, 207, 208, 209, 210, 211, 212, 213, 214, 215, 216, 217, 218, 219, 220, 221, 222, 223, 224, 225, 226, 227, 228, 229, 230, 231, 232, 233, 234, 235, 236, 237, 238, 239, 240, 241, 242, 243, 244, 245, 246, 247, 248, 249, 250, 251, 252, 253, 254, 255, 256, 257, 258, 259, 260, 261, 262, 263, 264, 265, 266, 267, 268, 269, 270, 271, 272, 273, 274, 275, 276, 277, 278, 279, 280],
      "AcquisitionTime": ["174348.827500", "174350.077500", "174351.327500", "174352.577500", "174353.827500", "174355.077500", "174356.327500", "174357.577500", "174358.827500", "174400.077500", "174401.327500", "174402.577500", "174403.827500", "174405.077500", "174406.327500", "174407.577500", "174408.827500", "174410.077500", "174411.327500", "174412.577500", "174413.827500", "174415.077500", "174416.327500", "174417.577500", "174418.827500", "174420.077500", "174421.327500", "174422.577500", "174423.827500", "174425.077500", "174426.327500", "174427.577500", "174428.827500", "174430.077500", "174431.327500", "174432.577500", "174433.827500", "174435.077500", "174436.327500", "174437.577500", "174438.827500", "174440.077500", "174441.327500", "174442.577500", "174443.827500", "174445.077500", "174446.327500", "174447.577500", "174448.827500", "174450.077500", "174451.327500", "174452.577500", "174453.827500", "174455.077500", "174456.327500", "174457.577500", "174458.827500", "174500.077500", "174501.327500", "174502.577500", "174503.827500", "174505.077500", "174506.327500", "174507.577500", "174508.827500", "174510.077500", "174511.327500", "174512.577500", "174513.827500", "174515.077500", "174516.327500", "174517.577500", "174518.827500", "174520.077500", "174521.327500", "174522.577500", "174523.827500", "174525.077500", "174526.327500", "174527.577500", "174528.827500", "174530.077500", "174531.327500", "174532.577500", "174533.827500", "174535.077500", "174536.327500", "174537.577500", "174538.827500", "174540.077500", "174541.327500", "174542.577500", "174543.827500", "174545.077500", "174546.327500", "174547.577500", "174548.827500", "174550.077500", "174551.327500", "174552.577500", "174553.827500", "174555.077500", "174556.327500", "174557.577500", "174558.827500", "174600.077500", "174601.327500", "174602.577500", "174603.827500", "174605.077500", "174606.327500", "174607.577500", "174608.827500", "174610.077500", "174611.327500", "174612.577500", "174613.827500", "174615.077500", "174616.327500", "174617.577500", "174618.827500", "174620.077500", "174621.327500", "174622.577500", "174623.827500", "174625.077500", "174626.327500", "174627.577500", "174628.827500", "174630.077500", "174631.327500", "174632.577500", "174633.827500", "174635.077500", "174636.327500", "174637.577500", "174638.827500", "174640.077500", "174641.327500", "174642.577500", "174643.827500", "174645.077500", "174646.327500", "174647.577500", "174648.827500", "174650.077500", "174651.327500", "174652.577500", "174653.827500", "174655.077500", "174656.327500", "174657.577500", "174658.827500", "174700.077500", "174701.327500", "174702.577500", "174703.827500", "174705.077500", "174706.327500", "174707.577500", "174708.827500", "174710.077500", "174711.327500", "174712.577500", "174713.827500", "174715.077500", "174716.327500", "174717.577500", "174718.827500", "174720.077500", "174721.327500", "174722.577500", "174723.827500", "174725.077500", "174726.327500", "174727.577500", "174728.827500", "174730.077500", "174731.327500", "174732.577500", "174733.827500", "174735.077500", "174736.327500", "174737.577500", "174738.827500", "174740.077500", "174741.327500", "174742.577500", "174743.827500", "174745.077500", "174746.327500", "174747.577500", "174748.827500", "174750.077500", "174751.327500", "174752.577500", "174753.827500", "174755.077500", "174756.327500", "174757.577500", "174758.827500", "174800.077500", "174801.327500", "174802.577500", "174803.827500", "174805.077500", "174806.327500", "174807.577500", "174808.827500", "174810.077500", "174811.327500", "174812.577500", "174813.827500", "174815.077500", "174816.327500", "174817.577500", "174818.827500", "174820.077500", "174821.327500", "174822.577500", "174823.827500", "174825.077500", "174826.327500", "174827.577500", "174828.827500", "174830.077500", "174831.327500", "174832.577500", "174833.827500", "174835.077500", "174836.327500", "174837.577500", "174838.827500", "174840.077500", "174841.327500", "174842.577500", "174843.827500", "174845.077500", "174846.327500", "174847.577500", "174848.827500", "174850.077500", "174851.327500", "174852.577500", "174853.827500", "174855.077500", "174856.327500", "174857.577500", "174858.827500", "174900.077500", "174901.327500", "174902.577500", "174903.827500", "174905.077500", "174906.327500", "174907.577500", "174908.827500", "174910.077500", "174911.327500", "174912.577500", "174913.827500", "174915.077500", "174916.327500", "174917.577500", "174918.827500", "174920.077500", "174921.327500", "174922.577500", "174923.827500", "174925.077500", "174926.327500", "174927.577500", "174928.827500", "174930.077500", "174931.327500", "174932.577500", "174933.827500", "174935.077500", "174936.327500", "174937.577500"],
      "ContentTime": ["174350.236000", "174351.239000", "174352.497000", "174353.763000", "174355.015000", "174356.288000", "174357.518000", "174358.744000", "174359.973000", "174401.321000", "174402.483000", "174403.731000", "174404.982000", "174406.219000", "174407.467000", "174408.738000", "174410.028000", "174411.275000", "174412.470000", "174413.743000", "174414.989000", "174416.205000", "174417.483000", "174418.713000", "174420.010000", "174421.228000", "174422.481000", "174423.731000", "174424.988000", "174426.229000", "174427.534000", "174428.738000", "174430.004000", "174431.240000", "174432.499000", "174433.720000", "174434.973000", "174436.218000", "174437.588000", "174438.735000", "174439.972000", "174441.222000", "174442.490000", "174443.725000", "174444.996000", "174446.201000", "174447.494000", "174448.733000", "174449.986000", "174451.217000", "174452.474000", "174453.743000", "174454.989000", "174456.247000", "174457.473000", "174458.734000", "174459.975000", "174501.290000", "174502.477000", "174503.722000", "174504.990000", "174506.225000", "174507.535000", "174508.745000", "174509.999000", "174511.291000", "174512.472000", "174513.753000", "174514.991000", "174516.226000", "174517.486000", "174518.729000", "174519.979000", "174521.221000", "174522.484000", "174523.757000", "174524.963000", "174526.216000", "174527.458000", "174528.727000", "174529.975000", "174531.223000", "174532.462000", "174533.761000", "174535.007000", "174536.249000", "174537.470000", "174538.739000", "174539.982000", "174541.236000", "174542.487000", "174543.729000", "174544.970000", "174546.217000", "174547.509000", "174548.713000", "174549.983000", "174551.236000", "174552.512000", "174553.704000", "174555.026000", "174556.248000", "174557.488000", "174558.813000", "174600.041000", "174601.290000", "174602.522000", "174603.728000", "174605.022000", "174606.246000", "174607.487000", "174608.738000", "174610.011000", "174611.230000", "174612.526000", "174613.730000", "174615.075000", "174616.216000", "174617.520000", "174618.773000", "174620.011000", "174621.245000", "174622.541000", "174623.738000", "174624.990000", "174626.241000", "174627.509000", "174628.741000", "174630.020000", "174631.318000", "174632.516000", "174633.754000", "174635.003000", "174636.253000", "174637.514000", "174638.756000", "174639.968000", "174641.314000", "174642.502000", "174643.764000", "174645.003000", "174646.238000", "174647.531000", "174648.709000", "174650.015000", "174651.222000", "174652.471000", "174653.780000", "174655.028000", "174656.253000", "174657.515000", "174658.748000", "174659.990000", "174701.231000", "174702.489000", "174703.787000", "174704.978000", "174706.235000", "174707.491000", "174708.704000", "174709.990000", "174711.235000", "174712.512000", "174713.763000", "174715.007000", "174716.229000", "174717.576000", "174718.752000", "174719.993000", "174721.234000", "174722.500000", "174723.768000", "174724.987000", "174726.236000", "174727.481000", "174728.751000", "174729.993000", "174731.262000", "174732.509000", "174733.748000", "174734.989000", "174736.228000", "174737.479000", "174738.731000", "174740.028000", "174741.250000", "174742.499000", "174743.722000", "174744.979000", "174746.303000", "174747.465000", "174748.692000", "174749.976000", "174751.252000", "174752.525000", "174753.738000", "174754.978000", "174756.280000", "174757.485000", "174758.725000", "174759.984000", "174801.247000", "174802.536000", "174803.710000", "174804.973000", "174806.203000", "174807.476000", "174808.736000", "174810.007000", "174811.227000", "174812.485000", "174813.750000", "174814.994000", "174816.234000", "174817.457000", "174818.728000", "174819.974000", "174821.260000", "174822.504000", "174823.723000", "174824.981000", "174826.235000", "174827.486000", "174828.736000", "174829.974000", "174831.230000", "174832.481000", "174833.725000", "174834.971000", "174836.277000", "174837.498000", "174838.703000", "174840.007000", "174841.261000", "174842.467000", "174843.744000", "174844.961000", "174846.250000", "174847.463000", "174848.728000", "174849.974000", "174851.252000", "174852.495000", "174853.749000", "174854.994000", "174856.273000", "174857.499000", "174858.724000", "174859.982000", "174901.218000", "174902.554000", "174903.750000", "174905.009000", "174906.225000", "174907.498000", "174908.724000", "174910.001000", "174911.232000", "174912.461000", "174913.740000", "174914.992000", "174916.249000", "174917.516000", "174918.735000", "174920.002000", "174921.220000", "174922.506000", "174923.744000", "174924.994000", "174926.249000", "174927.506000", "174928.739000", "174930.012000", "174931.271000", "174932.494000", "174933.783000", "174935.025000", "174936.241000", "174937.495000", "174938.793000"],
      "InstanceCreationTime": ["174350.236000", "174351.239000", "174352.497000", "174353.763000", "174355.015000", "174356.288000", "174357.518000", "174358.744000", "174359.973000", "174401.321000", "174402.483000", "174403.731000", "174404.982000", "174406.219000", "174407.467000", "174408.738000", "174410.028000", "174411.275000", "174412.470000", "174413.743000", "174414.989000", "174416.205000", "174417.483000", "174418.713000", "174420.010000", "174421.228000", "174422.481000", "174423.731000", "174424.988000", "174426.229000", "174427.534000", "174428.738000", "174430.004000", "174431.240000", "174432.499000", "174433.720000", "174434.973000", "174436.218000", "174437.588000", "174438.735000", "174439.972000", "174441.222000", "174442.490000", "174443.725000", "174444.996000", "174446.201000", "174447.494000", "174448.733000", "174449.986000", "174451.217000", "174452.474000", "174453.743000", "174454.989000", "174456.247000", "174457.473000", "174458.734000", "174459.975000", "174501.290000", "174502.477000", "174503.722000", "174504.990000", "174506.225000", "174507.535000", "174508.745000", "174509.999000", "174511.291000", "174512.472000", "174513.753000", "174514.991000", "174516.226000", "174517.486000", "174518.729000", "174519.979000", "174521.221000", "174522.484000", "174523.757000", "174524.963000", "174526.216000", "174527.458000", "174528.727000", "174529.975000", "174531.223000", "174532.462000", "174533.761000", "174535.007000", "174536.249000", "174537.470000", "174538.739000", "174539.982000", "174541.236000", "174542.487000", "174543.729000", "174544.970000", "174546.217000", "174547.509000", "174548.713000", "174549.983000", "174551.236000", "174552.512000", "174553.704000", "174555.026000", "174556.248000", "174557.488000", "174558.813000", "174600.041000", "174601.290000", "174602.522000", "174603.728000", "174605.022000", "174606.246000", "174607.487000", "174608.738000", "174610.011000", "174611.230000", "174612.526000", "174613.730000", "174615.075000", "174616.216000", "174617.520000", "174618.773000", "174620.011000", "174621.245000", "174622.541000", "174623.738000", "174624.990000", "174626.241000", "174627.509000", "174628.741000", "174630.020000", "174631.318000", "174632.516000", "174633.754000", "174635.003000", "174636.253000", "174637.514000", "174638.756000", "174639.968000", "174641.314000", "174642.502000", "174643.764000", "174645.003000", "174646.238000", "174647.531000", "174648.709000", "174650.015000", "174651.222000", "174652.471000", "174653.780000", "174655.028000", "174656.253000", "174657.515000", "174658.748000", "174659.990000", "174701.231000", "174702.489000", "174703.787000", "174704.978000", "174706.235000", "174707.491000", "174708.704000", "174709.990000", "174711.235000", "174712.512000", "174713.763000", "174715.007000", "174716.229000", "174717.576000", "174718.752000", "174719.993000", "174721.234000", "174722.500000", "174723.768000", "174724.987000", "174726.236000", "174727.481000", "174728.751000", "174729.993000", "174731.262000", "174732.509000", "174733.748000", "174734.989000", "174736.228000", "174737.479000", "174738.731000", "174740.028000", "174741.250000", "174742.499000", "174743.722000", "174744.979000", "174746.303000", "174747.465000", "174748.692000", "174749.976000", "174751.252000", "174752.525000", "174753.738000", "174754.978000", "174756.280000", "174757.485000", "174758.725000", "174759.984000", "174801.247000", "174802.536000", "174803.710000", "174804.973000", "174806.203000", "174807.476000", "174808.736000", "174810.007000", "174811.227000", "174812.485000", "174813.750000", "174814.994000", "174816.234000", "174817.457000", "174818.728000", "174819.974000", "174821.260000", "174822.504000", "174823.723000", "174824.981000", "174826.235000", "174827.486000", "174828.736000", "174829.974000", "174831.230000", "174832.481000", "174833.725000", "174834.971000", "174836.277000", "174837.498000", "174838.703000", "174840.007000", "174841.261000", "174842.467000", "174843.744000", "174844.961000", "174846.250000", "174847.463000", "174848.728000", "174849.974000", "174851.252000", "174852.495000", "174853.749000", "174854.994000", "174856.273000", "174857.499000", "174858.724000", "174859.982000", "174901.218000", "174902.554000", "174903.750000", "174905.009000", "174906.225000", "174907.498000", "174908.724000", "174910.001000", "174911.232000", "174912.461000", "174913.740000", "174914.992000", "174916.249000", "174917.516000", "174918.735000", "174920.002000", "174921.220000", "174922.506000", "174923.744000", "174924.994000", "174926.249000", "174927.506000", "174928.739000", "174930.012000", "174931.271000", "174932.494000", "174933.783000", "174935.025000", "174936.241000", "174937.495000", "174938.793000"],
      "InstanceNumber": [1, 2, 3, 4, 5, 6, 7, 8, 9, 10, 11, 12, 13, 14, 15, 16, 17, 18, 19, 20, 21, 22, 23, 24, 25, 26, 27, 28, 29, 30, 31, 32, 33, 34, 35, 36, 37, 38, 39, 40, 41, 42, 43, 44, 45, 46, 47, 48, 49, 50, 51, 52, 53, 54, 55, 56, 57, 58, 59, 60, 61, 62, 63, 64, 65, 66, 67, 68, 69, 70, 71, 72, 73, 74, 75, 76, 77, 78, 79, 80, 81, 82, 83, 84, 85, 86, 87, 88, 89, 90, 91, 92, 93, 94, 95, 96, 97, 98, 99, 100, 101, 102, 103, 104, 105, 106, 107, 108, 109, 110, 111, 112, 113, 114, 115, 116, 117, 118, 119, 120, 121, 122, 123, 124, 125, 126, 127, 128, 129, 130, 131, 132, 133, 134, 135, 136, 137, 138, 139, 140, 141, 142, 143, 144, 145, 146, 147, 148, 149, 150, 151, 152, 153, 154, 155, 156, 157, 158, 159, 160, 161, 162, 163, 164, 165, 166, 167, 168, 169, 170, 171, 172, 173, 174, 175, 176, 177, 178, 179, 180, 181, 182, 183, 184, 185, 186, 187, 188, 189, 190, 191, 192, 193, 194, 195, 196, 197, 198, 199, 200, 201, 202, 203, 204, 205, 206, 207, 208, 209, 210, 211, 212, 213, 214, 215, 216, 217, 218, 219, 220, 221, 222, 223, 224, 225, 226, 227, 228, 229, 230, 231, 232, 233, 234, 235, 236, 237, 238, 239, 240, 241, 242, 243, 244, 245, 246, 247, 248, 249, 250, 251, 252, 253, 254, 255, 256, 257, 258, 259, 260, 261, 262, 263, 264, 265, 266, 267, 268, 269, 270, 271, 272, 273, 274, 275, 276, 277, 278, 279, 280],
      "LargestImagePixelValue": [1144, 1170, 897, 1120, 1161, 871, 1053, 1132, 852, 1174, 1031, 1117, 1181, 1024, 1043, 1192, 1161, 908, 1143, 930, 1102, 1174, 936, 1077, 1167, 952, 1078, 1181, 965, 1057, 1169, 866, 1163, 1153, 809, 1146, 1020, 1080, 1172, 922, 1119, 1064, 1162, 1089, 824, 1180, 984, 1093, 1126, 1039, 1045, 1201, 867, 1231, 902, 1180, 990, 1075, 1201, 874, 1134, 948, 1054, 1181, 864, 1071, 1142, 809, 1143, 1122, 917, 1163, 1005, 1030, 1172, 973, 1050, 1181, 963, 1042, 1180, 850, 1163, 1130, 848, 1101, 1147, 826, 1112, 1184, 829, 1164, 1181, 856, 1122, 1196, 852, 1170, 977, 1043, 1068, 1112, 1084, 995, 1187, 859, 1174, 921, 1170, 1044, 1017, 1173, 883, 1095, 1176, 819, 1143, 933, 1068, 1147, 1159, 843, 1128, 965, 1099, 1179, 838, 1128, 1078, 878, 1174, 863, 1103, 1165, 821, 1165, 862, 1207, 946, 1087, 1164, 1004, 1105, 1186, 968, 1155, 873, 1066, 1180, 871, 1097, 1163, 893, 1059, 1170, 883, 1066, 1161, 1073, 915, 1131, 907, 1056, 1165, 989, 1029, 1184, 904, 1097, 1139, 1146, 802, 1078, 1161, 866, 1063, 1170, 870, 1166, 971, 1104, 1175, 1066, 1045, 1163, 1148, 833, 1108, 1163, 841, 1090, 1154, 822, 1141, 1161, 863, 1149, 1181, 924, 1007, 1189, 879, 1064, 1198, 907, 1188, 1036, 990, 1154, 1182, 817, 1129, 1084, 967, 1181, 940, 1008, 1193, 919, 1099, 1199, 874, 1108, 1185, 862, 1126, 1172, 828, 1104, 1175, 821, 1119, 1198, 902, 1127, 1091, 969, 1189, 895, 1145, 1186, 1033, 1214, 906, 1226, 1223, 955, 1156, 1219, 883, 1133, 1068, 1023, 1205, 950, 1093, 1189, 890, 1169, 952, 1061, 1188, 899, 1137, 1193, 858, 1151, 1018, 1141, 1200, 900, 1169, 1190, 873, 1172, 1106, 921, 1202, 915, 1149],
      "WindowCenter": [384.0, 383.0, 380.0, 382.0, 382.0, 380.0, 381.0, 382.0, 380.0, 384.0, 383.0, 383.0, 383.0, 381.0, 381.0, 382.0, 381.0, 379.0, 381.0, 380.0, 381.0, 382.0, 380.0, 381.0, 382.0, 380.0, 381.0, 382.0, 381.0, 382.0, 383.0, 380.0, 383.0, 383.0, 379.0, 383.0, 381.0, 381.0, 382.0, 380.0, 381.0, 381.0, 381.0, 379.0, 379.0, 384.0, 383.0, 384.0, 383.0, 382.0, 383.0, 384.0, 380.0, 383.0, 381.0, 382.0, 381.0, 380.0, 381.0, 378.0, 380.0, 379.0, 379.0, 381.0, 378.0, 380.0, 381.0, 378.0, 381.0, 381.0, 380.0, 381.0, 381.0, 381.0, 382.0, 381.0, 382.0, 382.0, 381.0, 382.0, 383.0, 381.0, 384.0, 384.0, 380.0, 382.0, 383.0, 380.0, 383.0, 384.0, 380.0, 384.0, 383.0, 380.0, 382.0, 384.0, 381.0, 384.0, 383.0, 382.0, 383.0, 384.0, 382.0, 382.0, 383.0, 380.0, 382.0, 380.0, 382.0, 382.0, 381.0, 382.0, 379.0, 381.0, 382.0, 378.0, 382.0, 381.0, 382.0, 382.0, 382.0, 379.0, 382.0, 381.0, 382.0, 383.0, 380.0, 382.0, 382.0, 380.0, 383.0, 380.0, 382.0, 383.0, 380.0, 384.0, 381.0, 384.0, 382.0, 383.0, 383.0, 381.0, 381.0, 382.0, 380.0, 381.0, 379.0, 381.0, 381.0, 379.0, 381.0, 381.0, 380.0, 381.0, 382.0, 380.0, 382.0, 382.0, 382.0, 381.0, 383.0, 381.0, 382.0, 384.0, 382.0, 382.0, 383.0, 380.0, 382.0, 382.0, 381.0, 378.0, 382.0, 382.0, 378.0, 382.0, 383.0, 381.0, 384.0, 382.0, 383.0, 383.0, 382.0, 380.0, 381.0, 381.0, 378.0, 381.0, 381.0, 379.0, 381.0, 383.0, 380.0, 382.0, 383.0, 379.0, 382.0, 382.0, 380.0, 381.0, 383.0, 380.0, 383.0, 384.0, 381.0, 384.0, 383.0, 382.0, 382.0, 382.0, 379.0, 382.0, 382.0, 381.0, 383.0, 381.0, 381.0, 383.0, 381.0, 382.0, 383.0, 380.0, 382.0, 384.0, 381.0, 383.0, 383.0, 380.0, 382.0, 383.0, 379.0, 382.0, 383.0, 381.0, 383.0, 383.0, 383.0, 384.0, 382.0, 383.0, 384.0, 383.0, 384.0, 381.0, 384.0, 383.0, 380.0, 381.0, 381.0, 377.0, 379.0, 379.0, 379.0, 380.0, 379.0, 381.0, 382.0, 380.0, 383.0, 381.0, 382.0, 383.0, 380.0, 383.0, 383.0, 381.0, 383.0, 382.0, 384.0, 384.0, 381.0, 383.0, 383.0, 380.0, 383.0, 382.0, 381.0, 383.0, 381.0, 383.0],
      "WindowWidth": [815.0, 813.0, 809.0, 812.0, 812.0, 809.0, 810.0, 812.0, 809.0, 814.0, 814.0, 814.0, 813.0, 811.0, 810.0, 811.0, 810.0, 807.0, 809.0, 808.0, 809.0, 810.0, 808.0, 809.0, 810.0, 808.0, 810.0, 811.0, 810.0, 810.0, 813.0, 809.0, 812.0, 812.0, 808.0, 813.0, 810.0, 810.0, 811.0, 808.0, 810.0, 810.0, 809.0, 807.0, 807.0, 815.0, 814.0, 815.0, 813.0, 811.0, 813.0, 814.0, 810.0, 814.0, 810.0, 811.0, 809.0, 809.0, 809.0, 805.0, 807.0, 806.0, 805.0, 810.0, 806.0, 808.0, 809.0, 805.0, 810.0, 810.0, 808.0, 809.0, 809.0, 809.0, 811.0, 810.0, 811.0, 812.0, 810.0, 811.0, 813.0, 810.0, 815.0, 815.0, 810.0, 812.0, 813.0, 808.0, 813.0, 814.0, 809.0, 814.0, 813.0, 809.0, 812.0, 814.0, 810.0, 815.0, 813.0, 812.0, 813.0, 815.0, 811.0, 811.0, 812.0, 808.0, 812.0, 809.0, 811.0, 811.0, 810.0, 811.0, 807.0, 809.0, 811.0, 806.0, 812.0, 810.0, 811.0, 812.0, 811.0, 807.0, 812.0, 811.0, 811.0, 813.0, 809.0, 812.0, 812.0, 809.0, 813.0, 809.0, 812.0, 813.0, 810.0, 814.0, 811.0, 815.0, 811.0, 813.0, 813.0, 810.0, 809.0, 812.0, 808.0, 809.0, 806.0, 809.0, 810.0, 806.0, 809.0, 810.0, 808.0, 810.0, 811.0, 809.0, 811.0, 812.0, 811.0, 809.0, 813.0, 811.0, 812.0, 814.0, 812.0, 812.0, 813.0, 809.0, 812.0, 811.0, 810.0, 806.0, 810.0, 812.0, 805.0, 812.0, 813.0, 810.0, 814.0, 811.0, 813.0, 813.0, 811.0, 808.0, 810.0, 809.0, 805.0, 809.0, 810.0, 806.0, 810.0, 812.0, 809.0, 812.0, 812.0, 807.0, 811.0, 811.0, 808.0, 809.0, 812.0, 809.0, 813.0, 816.0, 811.0, 814.0, 813.0, 811.0, 812.0, 811.0, 807.0, 811.0, 812.0, 811.0, 813.0, 809.0, 810.0, 813.0, 809.0, 811.0, 812.0, 809.0, 812.0, 814.0, 810.0, 813.0, 813.0, 808.0, 812.0, 812.0, 807.0, 811.0, 812.0, 810.0, 812.0, 813.0, 813.0, 816.0, 813.0, 814.0, 815.0, 813.0, 815.0, 811.0, 814.0, 813.0, 809.0, 810.0, 809.0, 803.0, 806.0, 806.0, 806.0, 807.0, 806.0, 808.0, 810.0, 808.0, 812.0, 809.0, 811.0, 812.0, 809.0, 813.0, 813.0, 810.0, 813.0, 813.0, 814.0, 815.0, 811.0, 813.0, 813.0, 809.0, 812.0, 811.0, 809.0, 812.0, 810.0, 812.0]
    },
    "slices": {}
  }
}