{
  "AcquisitionMatrixPE": 96,
  "AcquisitionNumber": 1,
  "AcquisitionTime": "17:37:24.825000",
  "BandwidthPerPixelPhaseEncode": 18.939,
  "BaseResolution": 96,
  "BodyPartExamined": "BRAIN",
  "ConsistencyInfo": "N4_VE11C_LATEST_20160120",
  "ConversionSoftware": "dcm2niix",
  "ConversionSoftwareVersion": "v1.0.20170923 (OpenJPEG build) GCC6.3.0",
  "DerivedVendorReportedEchoSpacing": 0.000550011,
  "DeviceSerialNumber": "66112",
  "DwellTime": 2.3e-06,
  "EchoTime": 0.033,
  "EchoTrainLength": 96,
  "EffectiveEchoSpacing": 0.000550011,
  "FlipAngle": 64,
  "ImageType": [
    "ORIGINAL",
    "PRIMARY",
    "FMRI",
    "NONE",
    "ND",
    "NORM",
    "MOSAIC"
],
  "InstitutionAddress": "Maynard_3_Hanover_NH_US_03755",
  "InstitutionName": "Dartmouth_College_-_PBS",
  "MagneticFieldStrength": 3,
  "Manufacturer": "Siemens",
  "ManufacturersModelName": "Prisma",
  "Modality": "MR",
  "MultibandAccelerationFactor": 4,
  "PartialFourier": 1,
  "PercentPhaseFOV": 100,
  "PhaseEncodingDirection": "j-",
  "PhaseEncodingSteps": 96,
  "PhaseResolution": 1,
  "ProcedureStepDescription": "Gobbini_Matteo_1017_famface-angles",
  "ProtocolName": "func_run-04_task-str1back",
  "PulseSequenceDetails": "%SiemensSeq%_ep2d_bold",
  "ReceiveCoilActiveElements": "HEA;HEP",
  "ReceiveCoilName": "Head_32",
  "ReconMatrixPE": 96,
  "RepetitionTime": 1.25,
  "ScanOptions": "FS",
  "ScanningSequence": "EP",
  "SequenceName": "_epfid2d1_96",
  "SequenceVariant": "SK",
  "SeriesDescription": "func_run-04_task-str1back",
  "SliceTiming": [0.88, 0, 0.615, 0.0875, 0.7025, 0.175, 0.79, 0.3525, 0.9675, 0.44, 1.055, 0.5275, 1.1425, 0.265, 0.88, 0, 0.615, 0.0875, 0.7025, 0.175, 0.79, 0.3525, 0.9675, 0.44, 1.055, 0.5275, 1.1425, 0.265, 0.88, 0, 0.615, 0.0875, 0.7025, 0.175, 0.79, 0.3525, 0.9675, 0.44, 1.055, 0.5275, 1.1425, 0.265, 0.88, 0, 0.615, 0.0875, 0.7025, 0.175, 0.79, 0.3525, 0.9675, 0.44, 1.055, 0.5275, 1.1425, 0.265],
  "SoftwareVersions": "syngo_MR_E11",
  "StationName": "AWP66112",
  "TaskName": "str1back",
  "TotalReadoutTime": 0.0522511,
  "dcmmeta_affine": [
    [-2.4995503425598145, -0.042320720851421356, -0.0213693305850029, 119.49958038330078],
    [-0.04386705160140991, 2.491920232772827, 0.19598422944545746, -101.56809997558594],
    [-0.017982587218284607, -0.1963239461183548, 2.4922146797180176, -50.92919158935547],
    [0.0, 0.0, 0.0, 1.0]
],
  "dcmmeta_reorient_transform": [
    [0.0, -1.0, 0.0, 95.0],
    [1.0, 0.0, 0.0, 0.0],
    [0.0, 0.0, 1.0, 0.0],
    [0.0, 0.0, 0.0, 1.0]
],
  "dcmmeta_shape": [96, 96, 56, 280],
  "dcmmeta_slice_dim": 2,
  "dcmmeta_version": 0.6,
  "global": {
    "const": {
      "AccessionNumber": "A000489",
      "AcquisitionMatrix": [96, 0, 0, 96],
      "AngioFlag": "N",
      "BitsAllocated": 16,
      "BitsStored": 12,
      "BodyPartExamined": "BRAIN",
      "Columns": 768,
      "EchoNumbers": 1,
      "EchoTime": 33.0,
      "EchoTrainLength": 96,
      "FlipAngle": 64.0,
      "HighBit": 11,
      "ImageOrientationPatient": [0.99982016850186, 0.01754682031476, -0.007193035086, -0.0169282880447, 0.99676804653708, 0.07852957701737],
      "ImagePositionPatient": [-941.10829375702, -987.18879679782, -129.50266109514],
      "ImageType": [
        "ORIGINAL",
        "PRIMARY",
        "FMRI",
        "NONE",
        "ND",
        "NORM",
        "MOSAIC"
],
      "ImagedNucleus": "1H",
      "ImagingFrequency": 123.252545,
      "InPlanePhaseEncodingDirection": "COL",
      "MRAcquisitionType": "2D",
      "MagneticFieldStrength": 3.0,
      "Manufacturer": "SIEMENS",
      "ManufacturerModelName": "Prisma",
      "Modality": "MR",
      "NumberOfAverages": 1.0,
      "NumberOfPhaseEncodingSteps": 96,
      "PercentPhaseFieldOfView": 100.0,
      "PercentSampling": 100.0,
      "PerformedProcedureStepStartTime": "170720.360000",
      "PhotometricInterpretation": "MONOCHROME2",
      "PixelBandwidth": 2265.0,
      "PixelRepresentation": 0,
      "PixelSpacing": [2.5, 2.5],
      "PositionReferenceIndicator": "",
      "ProtocolName": "func_run-04_task-str1back",
      "RepetitionTime": 1250.0,
      "Rows": 768,
      "SAR": 0.04777419041936,
      "SamplesPerPixel": 1,
      "ScanOptions": "FS",
      "ScanningSequence": "EP",
      "SequenceName": "*epfid2d1_96",
      "SequenceVariant": "SK",
      "SeriesDescription": "func_run-04_task-str1back",
      "SeriesNumber": 29,
      "SeriesTime": "173726.356000",
      "SliceLocation": -59.754338012404,
      "SliceThickness": 2.5,
      "SmallestImagePixelValue": 0,
      "SoftwareVersions": "syngo MR E11",
      "SpacingBetweenSlices": 2.5000000336875,
      "SpecificCharacterSet": "ISO_IR 100",
      "StudyID": "1",
      "StudyTime": "170720.301000",
      "TransmitCoilName": "Body",
      "VariableFlipAngleFlag": "N",
      "WindowCenterWidthExplanation": "Algo1",
      "dBdt": 0.0},
    "slices": {}
  },
  "time": {
    "samples": {
      "AcquisitionNumber": [1, 2, 3, 4, 5, 6, 7, 8, 9, 10, 11, 12, 13, 14, 15, 16, 17, 18, 19, 20, 21, 22, 23, 24, 25, 26, 27, 28, 29, 30, 31, 32, 33, 34, 35, 36, 37, 38, 39, 40, 41, 42, 43, 44, 45, 46, 47, 48, 49, 50, 51, 52, 53, 54, 55, 56, 57, 58, 59, 60, 61, 62, 63, 64, 65, 66, 67, 68, 69, 70, 71, 72, 73, 74, 75, 76, 77, 78, 79, 80, 81, 82, 83, 84, 85, 86, 87, 88, 89, 90, 91, 92, 93, 94, 95, 96, 97, 98, 99, 100, 101, 102, 103, 104, 105, 106, 107, 108, 109, 110, 111, 112, 113, 114, 115, 116, 117, 118, 119, 120, 121, 122, 123, 124, 125, 126, 127, 128, 129, 130, 131, 132, 133, 134, 135, 136, 137, 138, 139, 140, 141, 142, 143, 144, 145, 146, 147, 148, 149, 150, 151, 152, 153, 154, 155, 156, 157, 158, 159, 160, 161, 162, 163, 164, 165, 166, 167, 168, 169, 170, 171, 172, 173, 174, 175, 176, 177, 178, 179, 180, 181, 182, 183, 184, 185, 186, 187, 188, 189, 190, 191, 192, 193, 194, 195, 196, 197, 198, 199, 200, 201, 202, 203, 204, 205, 206, 207, 208, 209, 210, 211, 212, 213, 214, 215, 216, 217, 218, 219, 220, 221, 222, 223, 224, 225, 226, 227, 228, 229, 230, 231, 232, 233, 234, 235, 236, 237, 238, 239, 240, 241, 242, 243, 244, 245, 246, 247, 248, 249, 250, 251, 252, 253, 254, 255, 256, 257, 258, 259, 260, 261, 262, 263, 264, 265, 266, 267, 268, 269, 270, 271, 272, 273, 274, 275, 276, 277, 278, 279, 280],
      "AcquisitionTime": ["173724.825000", "173726.075000", "173727.325000", "173728.575000", "173729.825000", "173731.075000", "173732.325000", "173733.575000", "173734.825000", "173736.075000", "173737.325000", "173738.575000", "173739.825000", "173741.075000", "173742.325000", "173743.575000", "173744.825000", "173746.075000", "173747.325000", "173748.575000", "173749.825000", "173751.075000", "173752.325000", "173753.575000", "173754.825000", "173756.075000", "173757.325000", "173758.575000", "173759.825000", "173801.075000", "173802.325000", "173803.575000", "173804.825000", "173806.075000", "173807.325000", "173808.575000", "173809.825000", "173811.075000", "173812.325000", "173813.575000", "173814.825000", "173816.075000", "173817.325000", "173818.575000", "173819.825000", "173821.075000", "173822.325000", "173823.575000", "173824.825000", "173826.075000", "173827.325000", "173828.575000", "173829.825000", "173831.075000", "173832.325000", "173833.575000", "173834.825000", "173836.075000", "173837.325000", "173838.575000", "173839.825000", "173841.075000", "173842.325000", "173843.575000", "173844.825000", "173846.075000", "173847.325000", "173848.575000", "173849.825000", "173851.075000", "173852.325000", "173853.575000", "173854.825000", "173856.075000", "173857.325000", "173858.575000", "173859.825000", "173901.075000", "173902.325000", "173903.575000", "173904.825000", "173906.075000", "173907.325000", "173908.575000", "173909.825000", "173911.075000", "173912.325000", "173913.575000", "173914.825000", "173916.075000", "173917.325000", "173918.575000", "173919.825000", "173921.075000", "173922.325000", "173923.575000", "173924.825000", "173926.075000", "173927.325000", "173928.575000", "173929.825000", "173931.075000", "173932.325000", "173933.575000", "173934.825000", "173936.075000", "173937.325000", "173938.575000", "173939.825000", "173941.075000", "173942.325000", "173943.575000", "173944.825000", "173946.075000", "173947.325000", "173948.575000", "173949.825000", "173951.075000", "173952.325000", "173953.575000", "173954.825000", "173956.075000", "173957.325000", "173958.575000", "173959.825000", "174001.075000", "174002.325000", "174003.575000", "174004.825000", "174006.075000", "174007.325000", "174008.575000", "174009.825000", "174011.075000", "174012.325000", "174013.575000", "174014.825000", "174016.075000", "174017.325000", "174018.575000", "174019.825000", "174021.075000", "174022.325000", "174023.575000", "174024.825000", "174026.075000", "174027.325000", "174028.575000", "174029.825000", "174031.075000", "174032.325000", "174033.575000", "174034.825000", "174036.075000", "174037.325000", "174038.575000", "174039.825000", "174041.075000", "174042.325000", "174043.575000", "174044.825000", "174046.075000", "174047.325000", "174048.575000", "174049.825000", "174051.075000", "174052.325000", "174053.575000", "174054.825000", "174056.075000", "174057.325000", "174058.575000", "174059.825000", "174101.075000", "174102.325000", "174103.575000", "174104.825000", "174106.075000", "174107.325000", "174108.575000", "174109.825000", "174111.075000", "174112.325000", "174113.575000", "174114.825000", "174116.075000", "174117.325000", "174118.575000", "174119.825000", "174121.075000", "174122.325000", "174123.575000", "174124.825000", "174126.075000", "174127.325000", "174128.575000", "174129.825000", "174131.075000", "174132.325000", "174133.575000", "174134.825000", "174136.075000", "174137.325000", "174138.575000", "174139.825000", "174141.075000", "174142.325000", "174143.575000", "174144.825000", "174146.075000", "174147.325000", "174148.575000", "174149.825000", "174151.075000", "174152.325000", "174153.575000", "174154.825000", "174156.075000", "174157.325000", "174158.575000", "174159.825000", "174201.075000", "174202.325000", "174203.575000", "174204.825000", "174206.075000", "174207.325000", "174208.575000", "174209.825000", "174211.075000", "174212.325000", "174213.575000", "174214.825000", "174216.075000", "174217.325000", "174218.575000", "174219.825000", "174221.075000", "174222.325000", "174223.575000", "174224.825000", "174226.075000", "174227.325000", "174228.575000", "174229.825000", "174231.075000", "174232.325000", "174233.575000", "174234.825000", "174236.075000", "174237.325000", "174238.575000", "174239.825000", "174241.075000", "174242.325000", "174243.575000", "174244.825000", "174246.075000", "174247.325000", "174248.575000", "174249.825000", "174251.075000", "174252.325000", "174253.575000", "174254.825000", "174256.075000", "174257.325000", "174258.575000", "174259.825000", "174301.075000", "174302.325000", "174303.575000", "174304.825000", "174306.075000", "174307.325000", "174308.575000", "174309.825000", "174311.075000", "174312.325000", "174313.575000"],
      "ContentTime": ["173726.359000", "173727.378000", "173728.639000", "173729.914000", "173731.143000", "173732.438000", "173733.637000", "173734.886000", "173736.143000", "173737.399000", "173738.650000", "173739.934000", "173741.168000", "173742.437000", "173743.682000", "173744.909000", "173746.156000", "173747.421000", "173748.681000", "173749.895000", "173751.123000", "173752.374000", "173753.682000", "173754.873000", "173756.146000", "173757.420000", "173758.624000", "173759.881000", "173801.160000", "173802.396000", "173803.632000", "173804.885000", "173806.159000", "173807.389000", "173808.622000", "173809.939000", "173811.151000", "173812.423000", "173813.628000", "173814.908000", "173816.155000", "173817.403000", "173818.718000", "173819.909000", "173821.155000", "173822.408000", "173823.620000", "173824.882000", "173826.159000", "173827.388000", "173828.659000", "173829.857000", "173831.139000", "173832.380000", "173833.630000", "173834.888000", "173836.131000", "173837.405000", "173838.717000", "173839.902000", "173841.129000", "173842.381000", "173843.624000", "173844.890000", "173846.132000", "173847.384000", "173848.650000", "173849.875000", "173851.144000", "173852.419000", "173853.661000", "173854.927000", "173856.107000", "173857.395000", "173858.627000", "173859.904000", "173901.152000", "173902.389000", "173903.650000", "173904.908000", "173906.136000", "173907.396000", "173908.634000", "173909.890000", "173911.141000", "173912.394000", "173913.673000", "173914.918000", "173916.138000", "173917.401000", "173918.647000", "173919.877000", "173921.131000", "173922.375000", "173923.658000", "173924.886000", "173926.124000", "173927.393000", "173928.642000", "173929.887000", "173931.165000", "173932.423000", "173933.605000", "173934.910000", "173936.139000", "173937.416000", "173938.644000", "173939.877000", "173941.178000", "173942.374000", "173943.695000", "173944.910000", "173946.149000", "173947.400000", "173948.671000", "173949.888000", "173951.133000", "173952.422000", "173953.697000", "173954.925000", "173956.132000", "173957.396000", "173958.648000", "173959.919000", "174001.165000", "174002.402000", "174003.722000", "174004.895000", "174006.160000", "174007.405000", "174008.659000", "174009.922000", "174011.132000", "174012.383000", "174013.663000", "174014.930000", "174016.178000", "174017.417000", "174018.665000", "174019.926000", "174021.149000", "174022.390000", "174023.672000", "174024.910000", "174026.154000", "174027.403000", "174028.625000", "174029.888000", "174031.161000", "174032.405000", "174033.679000", "174034.888000", "174036.170000", "174037.384000", "174038.666000", "174039.939000", "174041.139000", "174042.422000", "174043.674000", "174044.908000", "174046.147000", "174047.458000", "174048.657000", "174049.913000", "174051.131000", "174052.401000", "174053.648000", "174054.937000", "174056.134000", "174057.383000", "174058.664000", "174059.889000", "174101.149000", "174102.438000", "174103.649000", "174104.860000", "174106.223000", "174107.397000", "174108.698000", "174109.917000", "174111.180000", "174112.415000", "174113.692000", "174114.885000", "174116.155000", "174117.407000", "174118.644000", "174119.884000", "174121.156000", "174122.415000", "174123.681000", "174124.919000", "174126.136000", "174127.409000", "174128.689000", "174129.897000", "174131.154000", "174132.397000", "174133.628000", "174134.909000", "174136.175000", "174137.400000", "174138.640000", "174139.883000", "174141.131000", "174142.426000", "174143.634000", "174144.894000", "174146.147000", "174147.430000", "174148.638000", "174149.911000", "174151.152000", "174152.465000", "174153.638000", "174154.899000", "174156.137000", "174157.397000", "174158.654000", "174159.940000", "174201.159000", "174202.401000", "174203.670000", "174204.895000", "174206.141000", "174207.413000", "174208.644000", "174209.910000", "174211.137000", "174212.396000", "174213.670000", "174214.922000", "174216.123000", "174217.397000", "174218.650000", "174219.909000", "174221.161000", "174222.396000", "174223.638000", "174224.886000", "174226.161000", "174227.426000", "174228.664000", "174229.902000", "174231.166000", "174232.413000", "174233.622000", "174234.895000", "174236.147000", "174237.434000", "174238.702000", "174239.935000", "174241.160000", "174242.418000", "174243.670000", "174244.945000", "174246.196000", "174247.413000", "174248.665000", "174249.929000", "174251.162000", "174252.393000", "174253.649000", "174254.945000", "174256.169000", "174257.464000", "174258.647000", "174259.933000", "174301.154000", "174302.412000", "174303.720000", "174304.883000", "174306.132000", "174307.393000", "174308.673000", "174309.897000", "174311.126000", "174312.385000", "174313.659000", "174314.944000"],
      "InstanceCreationTime": ["173726.359000", "173727.378000", "173728.639000", "173729.914000", "173731.143000", "173732.438000", "173733.637000", "173734.886000", "173736.143000", "173737.399000", "173738.650000", "173739.934000", "173741.168000", "173742.437000", "173743.682000", "173744.909000", "173746.156000", "173747.421000", "173748.681000", "173749.895000", "173751.123000", "173752.374000", "173753.682000", "173754.873000", "173756.146000", "173757.420000", "173758.624000", "173759.881000", "173801.160000", "173802.396000", "173803.632000", "173804.885000", "173806.159000", "173807.389000", "173808.622000", "173809.939000", "173811.151000", "173812.423000", "173813.628000", "173814.908000", "173816.155000", "173817.403000", "173818.718000", "173819.909000", "173821.155000", "173822.408000", "173823.620000", "173824.882000", "173826.159000", "173827.388000", "173828.659000", "173829.857000", "173831.139000", "173832.380000", "173833.630000", "173834.888000", "173836.131000", "173837.405000", "173838.717000", "173839.902000", "173841.129000", "173842.381000", "173843.624000", "173844.890000", "173846.132000", "173847.384000", "173848.650000", "173849.875000", "173851.144000", "173852.419000", "173853.661000", "173854.927000", "173856.107000", "173857.395000", "173858.627000", "173859.904000", "173901.152000", "173902.389000", "173903.650000", "173904.908000", "173906.136000", "173907.396000", "173908.634000", "173909.890000", "173911.141000", "173912.394000", "173913.673000", "173914.918000", "173916.138000", "173917.401000", "173918.647000", "173919.877000", "173921.131000", "173922.375000", "173923.658000", "173924.886000", "173926.124000", "173927.393000", "173928.642000", "173929.887000", "173931.165000", "173932.423000", "173933.605000", "173934.910000", "173936.139000", "173937.416000", "173938.644000", "173939.877000", "173941.178000", "173942.374000", "173943.695000", "173944.910000", "173946.149000", "173947.400000", "173948.671000", "173949.888000", "173951.133000", "173952.422000", "173953.697000", "173954.925000", "173956.132000", "173957.396000", "173958.648000", "173959.919000", "174001.165000", "174002.402000", "174003.722000", "174004.895000", "174006.160000", "174007.405000", "174008.659000", "174009.922000", "174011.132000", "174012.383000", "174013.663000", "174014.930000", "174016.178000", "174017.417000", "174018.665000", "174019.926000", "174021.149000", "174022.390000", "174023.672000", "174024.910000", "174026.154000", "174027.403000", "174028.625000", "174029.888000", "174031.161000", "174032.405000", "174033.679000", "174034.888000", "174036.170000", "174037.384000", "174038.666000", "174039.939000", "174041.139000", "174042.422000", "174043.674000", "174044.908000", "174046.147000", "174047.458000", "174048.657000", "174049.913000", "174051.131000", "174052.401000", "174053.648000", "174054.937000", "174056.134000", "174057.383000", "174058.664000", "174059.889000", "174101.149000", "174102.438000", "174103.649000", "174104.860000", "174106.223000", "174107.397000", "174108.698000", "174109.917000", "174111.180000", "174112.415000", "174113.692000", "174114.885000", "174116.155000", "174117.407000", "174118.644000", "174119.884000", "174121.156000", "174122.415000", "174123.681000", "174124.919000", "174126.136000", "174127.409000", "174128.689000", "174129.897000", "174131.154000", "174132.397000", "174133.628000", "174134.909000", "174136.175000", "174137.400000", "174138.640000", "174139.883000", "174141.131000", "174142.426000", "174143.634000", "174144.894000", "174146.147000", "174147.430000", "174148.638000", "174149.911000", "174151.152000", "174152.465000", "174153.638000", "174154.899000", "174156.137000", "174157.397000", "174158.654000", "174159.940000", "174201.159000", "174202.401000", "174203.670000", "174204.895000", "174206.141000", "174207.413000", "174208.644000", "174209.910000", "174211.137000", "174212.396000", "174213.670000", "174214.922000", "174216.123000", "174217.397000", "174218.650000", "174219.909000", "174221.161000", "174222.396000", "174223.638000", "174224.886000", "174226.161000", "174227.426000", "174228.664000", "174229.902000", "174231.166000", "174232.413000", "174233.622000", "174234.895000", "174236.147000", "174237.434000", "174238.702000", "174239.935000", "174241.160000", "174242.418000", "174243.670000", "174244.945000", "174246.196000", "174247.413000", "174248.665000", "174249.929000", "174251.162000", "174252.393000", "174253.649000", "174254.945000", "174256.169000", "174257.464000", "174258.647000", "174259.933000", "174301.154000", "174302.412000", "174303.720000", "174304.883000", "174306.132000", "174307.393000", "174308.673000", "174309.897000", "174311.126000", "174312.385000", "174313.659000", "174314.944000"],
      "InstanceNumber": [1, 2, 3, 4, 5, 6, 7, 8, 9, 10, 11, 12, 13, 14, 15, 16, 17, 18, 19, 20, 21, 22, 23, 24, 25, 26, 27, 28, 29, 30, 31, 32, 33, 34, 35, 36, 37, 38, 39, 40, 41, 42, 43, 44, 45, 46, 47, 48, 49, 50, 51, 52, 53, 54, 55, 56, 57, 58, 59, 60, 61, 62, 63, 64, 65, 66, 67, 68, 69, 70, 71, 72, 73, 74, 75, 76, 77, 78, 79, 80, 81, 82, 83, 84, 85, 86, 87, 88, 89, 90, 91, 92, 93, 94, 95, 96, 97, 98, 99, 100, 101, 102, 103, 104, 105, 106, 107, 108, 109, 110, 111, 112, 113, 114, 115, 116, 117, 118, 119, 120, 121, 122, 123, 124, 125, 126, 127, 128, 129, 130, 131, 132, 133, 134, 135, 136, 137, 138, 139, 140, 141, 142, 143, 144, 145, 146, 147, 148, 149, 150, 151, 152, 153, 154, 155, 156, 157, 158, 159, 160, 161, 162, 163, 164, 165, 166, 167, 168, 169, 170, 171, 172, 173, 174, 175, 176, 177, 178, 179, 180, 181, 182, 183, 184, 185, 186, 187, 188, 189, 190, 191, 192, 193, 194, 195, 196, 197, 198, 199, 200, 201, 202, 203, 204, 205, 206, 207, 208, 209, 210, 211, 212, 213, 214, 215, 216, 217, 218, 219, 220, 221, 222, 223, 224, 225, 226, 227, 228, 229, 230, 231, 232, 233, 234, 235, 236, 237, 238, 239, 240, 241, 242, 243, 244, 245, 246, 247, 248, 249, 250, 251, 252, 253, 254, 255, 256, 257, 258, 259, 260, 261, 262, 263, 264, 265, 266, 267, 268, 269, 270, 271, 272, 273, 274, 275, 276, 277, 278, 279, 280],
      "LargestImagePixelValue": [922, 1109, 1074, 1041, 1118, 1092, 1046, 1138, 965, 991, 1158, 898, 1125, 1169, 853, 1109, 1152, 918, 1064, 1135, 856, 1135, 1130, 1033, 1129, 882, 1059, 1125, 987, 1092, 860, 1090, 1159, 979, 1088, 877, 1104, 1098, 808, 1086, 1162, 861, 1109, 896, 1082, 1112, 841, 1070, 1183, 863, 1069, 1126, 1005, 1117, 899, 1034, 1146, 831, 1084, 1137, 997, 1103, 916, 1019, 1123, 975, 1092, 883, 1046, 1219, 924, 1056, 1128, 951, 1122, 906, 1081, 1086, 812, 1109, 945, 1122, 956, 1049, 1141, 1085, 1015, 1113, 1168, 967, 1106, 1074, 1024, 874, 1074, 1138, 920, 1041, 1064, 1129, 934, 991, 1145, 1140, 891, 1105, 1106, 816, 1105, 1119, 949, 1116, 906, 1024, 1143, 919, 1052, 1156, 897, 1142, 939, 1047, 1164, 899, 1082, 1181, 873, 1165, 1005, 1039, 1180, 875, 1125, 1175, 876, 1157, 1164, 887, 1128, 924, 1116, 1189, 959, 1149, 891, 1130, 1167, 1045, 1180, 892, 1173, 958, 1184, 1099, 1019, 1158, 864, 1176, 982, 1041, 1190, 875, 1171, 1152, 1010, 1164, 914, 1203, 1122, 963, 1165, 977, 1073, 1216, 872, 1065, 1216, 983, 1020, 1192, 1019, 1011, 1181, 1075, 986, 1171, 1014, 971, 1190, 877, 1171, 1209, 854, 1068, 1199, 895, 1152, 1201, 848, 1199, 961, 1124, 1211, 901, 1191, 1183, 929, 1134, 1037, 980, 1188, 906, 1107, 1162, 943, 1174, 1090, 940, 1085, 1060, 968, 1172, 1028, 947, 1198, 904, 1121, 1188, 879, 1166, 1123, 1006, 1161, 960, 954, 1179, 1172, 913, 1183, 831, 1198, 1177, 854, 1184, 1135, 922, 1195, 827, 1224, 991, 1097, 1208, 891, 1192, 959, 1027, 1211, 928, 1144, 1210, 912, 1194, 1195, 850, 1125, 1186, 841, 1207, 1026, 1066, 1186, 1199, 904, 1078, 1198, 894, 1065, 1215, 879, 1216],
      "WindowCenter": [383.0, 384.0, 384.0, 382.0, 383.0, 383.0, 382.0, 383.0, 382.0, 382.0, 384.0, 381.0, 382.0, 383.0, 379.0, 382.0, 383.0, 380.0, 381.0, 382.0, 380.0, 382.0, 382.0, 380.0, 382.0, 380.0, 381.0, 382.0, 381.0, 382.0, 379.0, 382.0, 382.0, 381.0, 382.0, 380.0, 382.0, 382.0, 379.0, 382.0, 382.0, 380.0, 382.0, 381.0, 383.0, 383.0, 380.0, 383.0, 383.0, 380.0, 382.0, 382.0, 382.0, 382.0, 380.0, 382.0, 382.0, 380.0, 382.0, 382.0, 381.0, 382.0, 380.0, 381.0, 383.0, 381.0, 383.0, 381.0, 382.0, 383.0, 380.0, 381.0, 382.0, 381.0, 382.0, 380.0, 382.0, 381.0, 378.0, 382.0, 382.0, 383.0, 381.0, 381.0, 382.0, 380.0, 380.0, 381.0, 382.0, 380.0, 382.0, 381.0, 380.0, 378.0, 382.0, 384.0, 381.0, 382.0, 381.0, 382.0, 380.0, 380.0, 382.0, 382.0, 380.0, 382.0, 382.0, 379.0, 383.0, 382.0, 381.0, 383.0, 381.0, 382.0, 383.0, 381.0, 383.0, 383.0, 381.0, 384.0, 382.0, 383.0, 383.0, 381.0, 382.0, 382.0, 379.0, 382.0, 381.0, 381.0, 382.0, 380.0, 382.0, 382.0, 380.0, 382.0, 382.0, 380.0, 382.0, 380.0, 382.0, 383.0, 381.0, 382.0, 380.0, 382.0, 381.0, 380.0, 382.0, 380.0, 382.0, 381.0, 383.0, 382.0, 381.0, 383.0, 379.0, 382.0, 381.0, 382.0, 383.0, 380.0, 383.0, 382.0, 381.0, 382.0, 381.0, 383.0, 382.0, 381.0, 383.0, 381.0, 382.0, 382.0, 380.0, 381.0, 382.0, 381.0, 381.0, 382.0, 380.0, 381.0, 382.0, 382.0, 381.0, 382.0, 381.0, 381.0, 383.0, 380.0, 383.0, 383.0, 380.0, 381.0, 383.0, 380.0, 383.0, 383.0, 379.0, 383.0, 381.0, 382.0, 383.0, 380.0, 382.0, 381.0, 379.0, 381.0, 380.0, 380.0, 382.0, 379.0, 382.0, 383.0, 381.0, 383.0, 382.0, 380.0, 381.0, 381.0, 381.0, 382.0, 381.0, 381.0, 383.0, 381.0, 383.0, 383.0, 381.0, 383.0, 382.0, 381.0, 382.0, 380.0, 381.0, 382.0, 382.0, 380.0, 382.0, 379.0, 384.0, 383.0, 380.0, 383.0, 382.0, 380.0, 383.0, 379.0, 383.0, 381.0, 382.0, 383.0, 381.0, 383.0, 381.0, 381.0, 382.0, 380.0, 382.0, 383.0, 381.0, 383.0, 383.0, 380.0, 382.0, 382.0, 379.0, 383.0, 382.0, 383.0, 383.0, 383.0, 380.0, 381.0, 382.0, 380.0, 382.0, 384.0, 382.0, 385.0],
      "WindowWidth": [815.0, 816.0, 814.0, 812.0, 813.0, 813.0, 811.0, 813.0, 812.0, 812.0, 814.0, 811.0, 812.0, 813.0, 808.0, 811.0, 812.0, 809.0, 810.0, 811.0, 808.0, 810.0, 810.0, 809.0, 810.0, 808.0, 809.0, 811.0, 809.0, 811.0, 808.0, 812.0, 812.0, 810.0, 811.0, 810.0, 811.0, 810.0, 807.0, 811.0, 812.0, 808.0, 811.0, 810.0, 813.0, 814.0, 809.0, 813.0, 813.0, 808.0, 811.0, 812.0, 811.0, 812.0, 809.0, 811.0, 812.0, 808.0, 811.0, 811.0, 810.0, 811.0, 808.0, 810.0, 812.0, 811.0, 813.0, 810.0, 812.0, 813.0, 808.0, 809.0, 811.0, 809.0, 811.0, 809.0, 811.0, 809.0, 806.0, 812.0, 811.0, 813.0, 810.0, 810.0, 811.0, 809.0, 809.0, 809.0, 811.0, 809.0, 811.0, 810.0, 807.0, 805.0, 811.0, 814.0, 810.0, 812.0, 810.0, 811.0, 808.0, 808.0, 810.0, 810.0, 808.0, 811.0, 811.0, 807.0, 812.0, 812.0, 811.0, 813.0, 810.0, 812.0, 813.0, 810.0, 813.0, 813.0, 811.0, 814.0, 813.0, 814.0, 814.0, 810.0, 811.0, 811.0, 807.0, 810.0, 809.0, 810.0, 812.0, 808.0, 812.0, 812.0, 809.0, 812.0, 811.0, 808.0, 811.0, 808.0, 811.0, 812.0, 810.0, 812.0, 809.0, 810.0, 810.0, 809.0, 811.0, 809.0, 811.0, 810.0, 813.0, 812.0, 810.0, 812.0, 808.0, 811.0, 809.0, 810.0, 813.0, 809.0, 813.0, 811.0, 810.0, 812.0, 810.0, 813.0, 812.0, 810.0, 813.0, 811.0, 811.0, 811.0, 808.0, 810.0, 811.0, 809.0, 809.0, 811.0, 809.0, 809.0, 811.0, 810.0, 809.0, 811.0, 809.0, 810.0, 813.0, 809.0, 813.0, 813.0, 808.0, 810.0, 812.0, 809.0, 813.0, 813.0, 808.0, 813.0, 810.0, 812.0, 813.0, 809.0, 811.0, 810.0, 807.0, 809.0, 808.0, 808.0, 810.0, 807.0, 811.0, 813.0, 811.0, 813.0, 811.0, 808.0, 810.0, 810.0, 809.0, 811.0, 810.0, 809.0, 813.0, 810.0, 813.0, 813.0, 809.0, 813.0, 812.0, 810.0, 812.0, 809.0, 809.0, 811.0, 811.0, 809.0, 812.0, 808.0, 814.0, 813.0, 810.0, 813.0, 812.0, 809.0, 812.0, 807.0, 813.0, 810.0, 812.0, 813.0, 810.0, 813.0, 810.0, 810.0, 811.0, 808.0, 812.0, 814.0, 810.0, 814.0, 813.0, 808.0, 811.0, 811.0, 808.0, 813.0, 812.0, 812.0, 813.0, 813.0, 809.0, 810.0, 811.0, 808.0, 811.0, 814.0, 812.0, 817.0]
    },
    "slices": {}
  }
}