{
  "AcquisitionMatrixPE": 96,
  "AcquisitionNumber": 1,
  "AcquisitionTime": "18:10:42.030000",
  "BandwidthPerPixelPhaseEncode": 18.939,
  "BaseResolution": 96,
  "BodyPartExamined": "BRAIN",
  "ConsistencyInfo": "N4_VE11C_LATEST_20160120",
  "ConversionSoftware": "dcm2niix",
  "ConversionSoftwareVersion": "v1.0.20170923 (OpenJPEG build) GCC6.3.0",
  "DerivedVendorReportedEchoSpacing": 0.000550011,
  "DeviceSerialNumber": "66112",
  "DwellTime": 2.3e-06,
  "EchoTime": 0.033,
  "EchoTrainLength": 96,
  "EffectiveEchoSpacing": 0.000550011,
  "FlipAngle": 64,
  "ImageType": [
    "ORIGINAL",
    "PRIMARY",
    "FMRI",
    "NONE",
    "ND",
    "NORM",
    "MOSAIC"
],
  "InstitutionAddress": "Maynard_3_Hanover_NH_US_03755",
  "InstitutionName": "Dartmouth_College_-_PBS",
  "MagneticFieldStrength": 3,
  "Manufacturer": "Siemens",
  "ManufacturersModelName": "Prisma",
  "Modality": "MR",
  "MultibandAccelerationFactor": 4,
  "PartialFourier": 1,
  "PercentPhaseFOV": 100,
  "PhaseEncodingDirection": "j-",
  "PhaseEncodingSteps": 96,
  "PhaseResolution": 1,
  "ProcedureStepDescription": "Gobbini_Matteo_1017_famface-angles",
  "ProtocolName": "func_run-09_task-str1back",
  "PulseSequenceDetails": "%SiemensSeq%_ep2d_bold",
  "ReceiveCoilActiveElements": "HEA;HEP",
  "ReceiveCoilName": "Head_32",
  "ReconMatrixPE": 96,
  "RepetitionTime": 1.25,
  "ScanOptions": "FS",
  "ScanningSequence": "EP",
  "SequenceName": "_epfid2d1_96",
  "SequenceVariant": "SK",
  "SeriesDescription": "func_run-09_task-str1back",
  "SliceTiming": [0.88, 0, 0.615, 0.0875, 0.7025, 0.1775, 0.7925, 0.3525, 0.9675, 0.44, 1.055, 0.5275, 1.1425, 0.265, 0.88, 0, 0.615, 0.0875, 0.7025, 0.1775, 0.7925, 0.3525, 0.9675, 0.44, 1.055, 0.5275, 1.1425, 0.265, 0.88, 0, 0.615, 0.0875, 0.7025, 0.1775, 0.7925, 0.3525, 0.9675, 0.44, 1.055, 0.5275, 1.1425, 0.265, 0.88, 0, 0.615, 0.0875, 0.7025, 0.1775, 0.7925, 0.3525, 0.9675, 0.44, 1.055, 0.5275, 1.1425, 0.265],
  "SoftwareVersions": "syngo_MR_E11",
  "StationName": "AWP66112",
  "TaskName": "str1back",
  "TotalReadoutTime": 0.0522511,
  "dcmmeta_affine": [
    [-2.4995503425598145, -0.042320720851421356, -0.0213693305850029, 119.49958038330078],
    [-0.04386705160140991, 2.491920232772827, 0.19598422944545746, -101.56809997558594],
    [-0.017982587218284607, -0.1963239461183548, 2.4922146797180176, -50.92919158935547],
    [0.0, 0.0, 0.0, 1.0]
],
  "dcmmeta_reorient_transform": [
    [0.0, -1.0, 0.0, 95.0],
    [1.0, 0.0, 0.0, 0.0],
    [0.0, 0.0, 1.0, 0.0],
    [0.0, 0.0, 0.0, 1.0]
],
  "dcmmeta_shape": [96, 96, 56, 280],
  "dcmmeta_slice_dim": 2,
  "dcmmeta_version": 0.6,
  "global": {
    "const": {
      "AccessionNumber": "A000489",
      "AcquisitionMatrix": [96, 0, 0, 96],
      "AngioFlag": "N",
      "BitsAllocated": 16,
      "BitsStored": 12,
      "BodyPartExamined": "BRAIN",
      "Columns": 768,
      "EchoNumbers": 1,
      "EchoTime": 33.0,
      "EchoTrainLength": 96,
      "FlipAngle": 64.0,
      "HighBit": 11,
      "ImageOrientationPatient": [0.99982016850186, 0.01754682031476, -0.007193035086, -0.0169282880447, 0.99676804653708, 0.07852957701737],
      "ImagePositionPatient": [-941.10829375702, -987.18879679782, -129.50266109514],
      "ImageType": [
        "ORIGINAL",
        "PRIMARY",
        "FMRI",
        "NONE",
        "ND",
        "NORM",
        "MOSAIC"
],
      "ImagedNucleus": "1H",
      "ImagingFrequency": 123.252551,
      "InPlanePhaseEncodingDirection": "COL",
      "MRAcquisitionType": "2D",
      "MagneticFieldStrength": 3.0,
      "Manufacturer": "SIEMENS",
      "ManufacturerModelName": "Prisma",
      "Modality": "MR",
      "NumberOfAverages": 1.0,
      "NumberOfPhaseEncodingSteps": 96,
      "PercentPhaseFieldOfView": 100.0,
      "PercentSampling": 100.0,
      "PerformedProcedureStepStartTime": "170720.360000",
      "PhotometricInterpretation": "MONOCHROME2",
      "PixelBandwidth": 2265.0,
      "PixelRepresentation": 0,
      "PixelSpacing": [2.5, 2.5],
      "PositionReferenceIndicator": "",
      "ProtocolName": "func_run-09_task-str1back",
      "RepetitionTime": 1250.0,
      "Rows": 768,
      "SAR": 0.04777419041936,
      "SamplesPerPixel": 1,
      "ScanOptions": "FS",
      "ScanningSequence": "EP",
      "SequenceName": "*epfid2d1_96",
      "SequenceVariant": "SK",
      "SeriesDescription": "func_run-09_task-str1back",
      "SeriesNumber": 64,
      "SeriesTime": "181043.388000",
      "SliceLocation": -59.754338012404,
      "SliceThickness": 2.5,
      "SmallestImagePixelValue": 0,
      "SoftwareVersions": "syngo MR E11",
      "SpacingBetweenSlices": 2.5000000336875,
      "SpecificCharacterSet": "ISO_IR 100",
      "StudyID": "1",
      "StudyTime": "170720.301000",
      "TransmitCoilName": "Body",
      "VariableFlipAngleFlag": "N",
      "WindowCenterWidthExplanation": "Algo1",
      "dBdt": 0.0},
    "slices": {}
  },
  "time": {
    "samples": {
      "AcquisitionNumber": [1, 2, 3, 4, 5, 6, 7, 8, 9, 10, 11, 12, 13, 14, 15, 16, 17, 18, 19, 20, 21, 22, 23, 24, 25, 26, 27, 28, 29, 30, 31, 32, 33, 34, 35, 36, 37, 38, 39, 40, 41, 42, 43, 44, 45, 46, 47, 48, 49, 50, 51, 52, 53, 54, 55, 56, 57, 58, 59, 60, 61, 62, 63, 64, 65, 66, 67, 68, 69, 70, 71, 72, 73, 74, 75, 76, 77, 78, 79, 80, 81, 82, 83, 84, 85, 86, 87, 88, 89, 90, 91, 92, 93, 94, 95, 96, 97, 98, 99, 100, 101, 102, 103, 104, 105, 106, 107, 108, 109, 110, 111, 112, 113, 114, 115, 116, 117, 118, 119, 120, 121, 122, 123, 124, 125, 126, 127, 128, 129, 130, 131, 132, 133, 134, 135, 136, 137, 138, 139, 140, 141, 142, 143, 144, 145, 146, 147, 148, 149, 150, 151, 152, 153, 154, 155, 156, 157, 158, 159, 160, 161, 162, 163, 164, 165, 166, 167, 168, 169, 170, 171, 172, 173, 174, 175, 176, 177, 178, 179, 180, 181, 182, 183, 184, 185, 186, 187, 188, 189, 190, 191, 192, 193, 194, 195, 196, 197, 198, 199, 200, 201, 202, 203, 204, 205, 206, 207, 208, 209, 210, 211, 212, 213, 214, 215, 216, 217, 218, 219, 220, 221, 222, 223, 224, 225, 226, 227, 228, 229, 230, 231, 232, 233, 234, 235, 236, 237, 238, 239, 240, 241, 242, 243, 244, 245, 246, 247, 248, 249, 250, 251, 252, 253, 254, 255, 256, 257, 258, 259, 260, 261, 262, 263, 264, 265, 266, 267, 268, 269, 270, 271, 272, 273, 274, 275, 276, 277, 278, 279, 280],
      "AcquisitionTime": ["181042.030000", "181043.280000", "181044.530000", "181045.780000", "181047.030000", "181048.280000", "181049.530000", "181050.780000", "181052.030000", "181053.280000", "181054.530000", "181055.780000", "181057.030000", "181058.280000", "181059.530000", "181100.780000", "181102.030000", "181103.280000", "181104.530000", "181105.780000", "181107.030000", "181108.280000", "181109.530000", "181110.780000", "181112.030000", "181113.280000", "181114.530000", "181115.780000", "181117.030000", "181118.280000", "181119.530000", "181120.780000", "181122.030000", "181123.280000", "181124.530000", "181125.780000", "181127.030000", "181128.280000", "181129.530000", "181130.780000", "181132.030000", "181133.280000", "181134.530000", "181135.780000", "181137.030000", "181138.280000", "181139.530000", "181140.780000", "181142.030000", "181143.280000", "181144.530000", "181145.780000", "181147.030000", "181148.280000", "181149.530000", "181150.780000", "181152.030000", "181153.280000", "181154.530000", "181155.780000", "181157.030000", "181158.280000", "181159.530000", "181200.780000", "181202.030000", "181203.280000", "181204.530000", "181205.780000", "181207.030000", "181208.280000", "181209.530000", "181210.780000", "181212.030000", "181213.280000", "181214.530000", "181215.780000", "181217.030000", "181218.280000", "181219.530000", "181220.780000", "181222.030000", "181223.280000", "181224.530000", "181225.780000", "181227.030000", "181228.280000", "181229.530000", "181230.780000", "181232.030000", "181233.280000", "181234.530000", "181235.780000", "181237.030000", "181238.280000", "181239.530000", "181240.780000", "181242.030000", "181243.280000", "181244.530000", "181245.780000", "181247.030000", "181248.280000", "181249.530000", "181250.780000", "181252.030000", "181253.280000", "181254.530000", "181255.780000", "181257.030000", "181258.280000", "181259.530000", "181300.780000", "181302.030000", "181303.280000", "181304.530000", "181305.780000", "181307.030000", "181308.280000", "181309.530000", "181310.780000", "181312.030000", "181313.280000", "181314.530000", "181315.780000", "181317.030000", "181318.280000", "181319.530000", "181320.780000", "181322.030000", "181323.280000", "181324.530000", "181325.780000", "181327.030000", "181328.280000", "181329.530000", "181330.780000", "181332.030000", "181333.280000", "181334.530000", "181335.780000", "181337.030000", "181338.280000", "181339.530000", "181340.780000", "181342.030000", "181343.280000", "181344.530000", "181345.780000", "181347.030000", "181348.280000", "181349.530000", "181350.780000", "181352.030000", "181353.280000", "181354.530000", "181355.780000", "181357.030000", "181358.280000", "181359.530000", "181400.780000", "181402.030000", "181403.280000", "181404.530000", "181405.780000", "181407.030000", "181408.280000", "181409.530000", "181410.780000", "181412.030000", "181413.280000", "181414.530000", "181415.780000", "181417.030000", "181418.280000", "181419.530000", "181420.780000", "181422.030000", "181423.280000", "181424.530000", "181425.780000", "181427.030000", "181428.280000", "181429.530000", "181430.780000", "181432.030000", "181433.280000", "181434.530000", "181435.780000", "181437.030000", "181438.280000", "181439.530000", "181440.780000", "181442.030000", "181443.280000", "181444.530000", "181445.780000", "181447.030000", "181448.280000", "181449.530000", "181450.780000", "181452.030000", "181453.280000", "181454.530000", "181455.780000", "181457.030000", "181458.280000", "181459.530000", "181500.780000", "181502.030000", "181503.280000", "181504.530000", "181505.780000", "181507.030000", "181508.280000", "181509.530000", "181510.780000", "181512.030000", "181513.280000", "181514.530000", "181515.780000", "181517.030000", "181518.280000", "181519.530000", "181520.780000", "181522.030000", "181523.280000", "181524.530000", "181525.780000", "181527.030000", "181528.280000", "181529.530000", "181530.780000", "181532.030000", "181533.280000", "181534.530000", "181535.780000", "181537.030000", "181538.280000", "181539.530000", "181540.780000", "181542.030000", "181543.280000", "181544.530000", "181545.780000", "181547.030000", "181548.280000", "181549.530000", "181550.780000", "181552.030000", "181553.280000", "181554.530000", "181555.780000", "181557.030000", "181558.280000", "181559.530000", "181600.780000", "181602.030000", "181603.280000", "181604.530000", "181605.780000", "181607.030000", "181608.280000", "181609.530000", "181610.780000", "181612.030000", "181613.280000", "181614.530000", "181615.780000", "181617.030000", "181618.280000", "181619.530000", "181620.780000", "181622.030000", "181623.280000", "181624.530000", "181625.780000", "181627.030000", "181628.280000", "181629.530000", "181630.780000"],
      "ContentTime": ["181043.392000", "181044.430000", "181045.697000", "181046.958000", "181048.197000", "181049.445000", "181050.702000", "181051.983000", "181053.178000", "181054.475000", "181055.694000", "181056.994000", "181058.208000", "181059.438000", "181100.661000", "181101.947000", "181103.263000", "181104.434000", "181105.695000", "181106.979000", "181108.198000", "181109.465000", "181110.705000", "181111.935000", "181113.173000", "181114.440000", "181115.698000", "181116.948000", "181118.196000", "181119.433000", "181120.694000", "181121.969000", "181123.210000", "181124.441000", "181125.706000", "181126.926000", "181128.175000", "181129.437000", "181130.686000", "181131.973000", "181133.232000", "181134.470000", "181135.678000", "181136.967000", "181138.231000", "181139.426000", "181140.683000", "181141.924000", "181143.157000", "181144.433000", "181145.698000", "181146.951000", "181148.191000", "181149.540000", "181150.684000", "181151.948000", "181153.228000", "181154.431000", "181155.726000", "181156.969000", "181158.205000", "181159.463000", "181200.711000", "181201.933000", "181203.196000", "181204.448000", "181205.692000", "181206.957000", "181208.190000", "181209.433000", "181210.697000", "181211.954000", "181213.205000", "181214.458000", "181215.681000", "181216.956000", "181218.213000", "181219.451000", "181220.696000", "181221.957000", "181223.242000", "181224.471000", "181225.689000", "181226.953000", "181228.161000", "181229.422000", "181230.700000", "181231.929000", "181233.191000", "181234.507000", "181235.678000", "181236.974000", "181238.245000", "181239.476000", "181240.717000", "181241.973000", "181243.199000", "181244.427000", "181245.703000", "181247.012000", "181248.231000", "181249.465000", "181250.679000", "181251.965000", "181253.197000", "181254.483000", "181255.745000", "181256.940000", "181258.205000", "181259.470000", "181300.717000", "181301.963000", "181303.139000", "181304.461000", "181305.744000", "181306.976000", "181308.264000", "181309.547000", "181310.690000", "181311.991000", "181313.210000", "181314.485000", "181315.708000", "181316.961000", "181318.201000", "181319.459000", "181320.692000", "181321.965000", "181323.246000", "181324.464000", "181325.722000", "181326.948000", "181328.250000", "181329.464000", "181330.708000", "181331.940000", "181333.199000", "181334.472000", "181335.681000", "181336.946000", "181338.188000", "181339.470000", "181340.675000", "181342.010000", "181343.181000", "181344.465000", "181345.716000", "181346.971000", "181348.258000", "181349.495000", "181350.711000", "181351.931000", "181353.216000", "181354.463000", "181355.755000", "181356.916000", "181358.199000", "181359.458000", "181400.711000", "181401.976000", "181403.197000", "181404.455000", "181405.716000", "181406.954000", "181408.214000", "181409.477000", "181410.702000", "181412.008000", "181413.184000", "181414.465000", "181415.707000", "181416.977000", "181418.258000", "181419.457000", "181420.741000", "181421.957000", "181423.206000", "181424.433000", "181425.713000", "181426.954000", "181428.170000", "181429.450000", "181430.727000", "181431.930000", "181433.207000", "181434.434000", "181435.744000", "181436.980000", "181438.183000", "181439.454000", "181440.715000", "181441.996000", "181443.183000", "181444.452000", "181445.706000", "181446.953000", "181448.213000", "181449.429000", "181450.720000", "181451.940000", "181453.184000", "181454.439000", "181455.693000", "181456.952000", "181458.206000", "181459.461000", "181500.719000", "181501.996000", "181503.221000", "181504.486000", "181505.696000", "181506.996000", "181508.196000", "181509.455000", "181510.705000", "181511.985000", "181513.223000", "181514.502000", "181515.696000", "181516.941000", "181518.223000", "181519.466000", "181520.699000", "181521.931000", "181523.202000", "181524.427000", "181525.706000", "181526.946000", "181528.187000", "181529.456000", "181530.708000", "181531.943000", "181533.211000", "181534.453000", "181535.725000", "181536.933000", "181538.209000", "181539.449000", "181540.717000", "181541.934000", "181543.196000", "181544.439000", "181545.706000", "181546.970000", "181548.273000", "181549.446000", "181550.683000", "181551.913000", "181553.194000", "181554.447000", "181555.727000", "181556.946000", "181558.210000", "181559.453000", "181600.709000", "181601.947000", "181603.215000", "181604.576000", "181605.710000", "181606.959000", "181608.207000", "181609.460000", "181610.692000", "181611.970000", "181613.180000", "181614.436000", "181615.697000", "181616.964000", "181618.195000", "181619.491000", "181620.656000", "181621.958000", "181623.182000", "181624.441000", "181625.700000", "181626.995000", "181628.216000", "181629.457000", "181630.705000", "181632.015000"],
      "InstanceCreationTime": ["181043.392000", "181044.430000", "181045.697000", "181046.958000", "181048.197000", "181049.445000", "181050.702000", "181051.983000", "181053.178000", "181054.475000", "181055.694000", "181056.994000", "181058.208000", "181059.438000", "181100.661000", "181101.947000", "181103.263000", "181104.434000", "181105.695000", "181106.979000", "181108.198000", "181109.465000", "181110.705000", "181111.935000", "181113.173000", "181114.440000", "181115.698000", "181116.948000", "181118.196000", "181119.433000", "181120.694000", "181121.969000", "181123.210000", "181124.441000", "181125.706000", "181126.926000", "181128.175000", "181129.437000", "181130.686000", "181131.973000", "181133.232000", "181134.470000", "181135.678000", "181136.967000", "181138.231000", "181139.426000", "181140.683000", "181141.924000", "181143.157000", "181144.433000", "181145.698000", "181146.951000", "181148.191000", "181149.540000", "181150.684000", "181151.948000", "181153.228000", "181154.431000", "181155.726000", "181156.969000", "181158.205000", "181159.463000", "181200.711000", "181201.933000", "181203.196000", "181204.448000", "181205.692000", "181206.957000", "181208.190000", "181209.433000", "181210.697000", "181211.954000", "181213.205000", "181214.458000", "181215.681000", "181216.956000", "181218.213000", "181219.451000", "181220.696000", "181221.957000", "181223.242000", "181224.471000", "181225.689000", "181226.953000", "181228.161000", "181229.422000", "181230.700000", "181231.929000", "181233.191000", "181234.507000", "181235.678000", "181236.974000", "181238.245000", "181239.476000", "181240.717000", "181241.973000", "181243.199000", "181244.427000", "181245.703000", "181247.012000", "181248.231000", "181249.465000", "181250.679000", "181251.965000", "181253.197000", "181254.483000", "181255.745000", "181256.940000", "181258.205000", "181259.470000", "181300.717000", "181301.963000", "181303.139000", "181304.461000", "181305.744000", "181306.976000", "181308.264000", "181309.547000", "181310.690000", "181311.991000", "181313.210000", "181314.485000", "181315.708000", "181316.961000", "181318.201000", "181319.459000", "181320.692000", "181321.965000", "181323.246000", "181324.464000", "181325.722000", "181326.948000", "181328.250000", "181329.464000", "181330.708000", "181331.940000", "181333.199000", "181334.472000", "181335.681000", "181336.946000", "181338.188000", "181339.470000", "181340.675000", "181342.010000", "181343.181000", "181344.465000", "181345.716000", "181346.971000", "181348.258000", "181349.495000", "181350.711000", "181351.931000", "181353.216000", "181354.463000", "181355.755000", "181356.916000", "181358.199000", "181359.458000", "181400.711000", "181401.976000", "181403.197000", "181404.455000", "181405.716000", "181406.954000", "181408.214000", "181409.477000", "181410.702000", "181412.008000", "181413.184000", "181414.465000", "181415.707000", "181416.977000", "181418.258000", "181419.457000", "181420.741000", "181421.957000", "181423.206000", "181424.433000", "181425.713000", "181426.954000", "181428.170000", "181429.450000", "181430.727000", "181431.930000", "181433.207000", "181434.434000", "181435.744000", "181436.980000", "181438.183000", "181439.454000", "181440.715000", "181441.996000", "181443.183000", "181444.452000", "181445.706000", "181446.953000", "181448.213000", "181449.429000", "181450.720000", "181451.940000", "181453.184000", "181454.439000", "181455.693000", "181456.952000", "181458.206000", "181459.461000", "181500.719000", "181501.996000", "181503.221000", "181504.486000", "181505.696000", "181506.996000", "181508.196000", "181509.455000", "181510.705000", "181511.985000", "181513.223000", "181514.502000", "181515.696000", "181516.941000", "181518.223000", "181519.466000", "181520.699000", "181521.931000", "181523.202000", "181524.427000", "181525.706000", "181526.946000", "181528.187000", "181529.456000", "181530.708000", "181531.943000", "181533.211000", "181534.453000", "181535.725000", "181536.933000", "181538.209000", "181539.449000", "181540.717000", "181541.934000", "181543.196000", "181544.439000", "181545.706000", "181546.970000", "181548.273000", "181549.446000", "181550.683000", "181551.913000", "181553.194000", "181554.447000", "181555.727000", "181556.946000", "181558.210000", "181559.453000", "181600.709000", "181601.947000", "181603.215000", "181604.576000", "181605.710000", "181606.959000", "181608.207000", "181609.460000", "181610.692000", "181611.970000", "181613.180000", "181614.436000", "181615.697000", "181616.964000", "181618.195000", "181619.491000", "181620.656000", "181621.958000", "181623.182000", "181624.441000", "181625.700000", "181626.995000", "181628.216000", "181629.457000", "181630.705000", "181632.015000"],
      "InstanceNumber": [1, 2, 3, 4, 5, 6, 7, 8, 9, 10, 11, 12, 13, 14, 15, 16, 17, 18, 19, 20, 21, 22, 23, 24, 25, 26, 27, 28, 29, 30, 31, 32, 33, 34, 35, 36, 37, 38, 39, 40, 41, 42, 43, 44, 45, 46, 47, 48, 49, 50, 51, 52, 53, 54, 55, 56, 57, 58, 59, 60, 61, 62, 63, 64, 65, 66, 67, 68, 69, 70, 71, 72, 73, 74, 75, 76, 77, 78, 79, 80, 81, 82, 83, 84, 85, 86, 87, 88, 89, 90, 91, 92, 93, 94, 95, 96, 97, 98, 99, 100, 101, 102, 103, 104, 105, 106, 107, 108, 109, 110, 111, 112, 113, 114, 115, 116, 117, 118, 119, 120, 121, 122, 123, 124, 125, 126, 127, 128, 129, 130, 131, 132, 133, 134, 135, 136, 137, 138, 139, 140, 141, 142, 143, 144, 145, 146, 147, 148, 149, 150, 151, 152, 153, 154, 155, 156, 157, 158, 159, 160, 161, 162, 163, 164, 165, 166, 167, 168, 169, 170, 171, 172, 173, 174, 175, 176, 177, 178, 179, 180, 181, 182, 183, 184, 185, 186, 187, 188, 189, 190, 191, 192, 193, 194, 195, 196, 197, 198, 199, 200, 201, 202, 203, 204, 205, 206, 207, 208, 209, 210, 211, 212, 213, 214, 215, 216, 217, 218, 219, 220, 221, 222, 223, 224, 225, 226, 227, 228, 229, 230, 231, 232, 233, 234, 235, 236, 237, 238, 239, 240, 241, 242, 243, 244, 245, 246, 247, 248, 249, 250, 251, 252, 253, 254, 255, 256, 257, 258, 259, 260, 261, 262, 263, 264, 265, 266, 267, 268, 269, 270, 271, 272, 273, 274, 275, 276, 277, 278, 279, 280],
      "LargestImagePixelValue": [1260, 1014, 1174, 924, 1192, 1005, 1030, 1194, 903, 1102, 1132, 929, 1128, 811, 1004, 994, 968, 1178, 813, 1189, 851, 1166, 1018, 1104, 1249, 949, 1154, 928, 1096, 974, 1008, 1150, 841, 1033, 1205, 839, 1085, 1162, 827, 1030, 1046, 914, 1140, 869, 1080, 1007, 1007, 1259, 857, 1130, 1156, 1011, 1090, 980, 968, 1136, 835, 1033, 1217, 874, 1180, 992, 1058, 1133, 912, 1012, 1109, 938, 1115, 1009, 985, 1194, 877, 1209, 965, 1076, 1201, 888, 1069, 1198, 868, 1036, 1191, 881, 1156, 772, 1126, 825, 1133, 1065, 1043, 1102, 1198, 826, 1034, 1160, 777, 1013, 1005, 911, 1017, 936, 1069, 911, 1143, 1081, 1068, 1160, 1063, 982, 1164, 1010, 985, 1180, 789, 1069, 1209, 942, 1185, 842, 1131, 990, 927, 1159, 913, 986, 1182, 914, 1147, 1008, 957, 1167, 820, 1093, 1204, 867, 1026, 1076, 916, 1141, 803, 1103, 1206, 888, 983, 1163, 1016, 944, 1168, 841, 1129, 821, 1098, 1250, 910, 1154, 925, 1079, 1184, 967, 1168, 837, 1095, 843, 993, 1036, 1206, 1047, 1172, 886, 1090, 1005, 1018, 1121, 783, 1079, 981, 932, 1104, 968, 949, 1121, 782, 1074, 825, 1064, 1148, 847, 1075, 1025, 1019, 1132, 799, 1113, 991, 1063, 1025, 934, 1150, 980, 979, 1120, 961, 1024, 1158, 820, 1135, 821, 1140, 1240, 978, 1166, 876, 1047, 1070, 1231, 947, 1129, 866, 1094, 1040, 995, 1123, 943, 1066, 1136, 1001, 1054, 1174, 815, 1070, 1121, 805, 1067, 1141, 788, 1068, 988, 978, 1140, 851, 1093, 1143, 910, 1102, 996, 1065, 1038, 1097, 1152, 901, 1056, 1148, 911, 1155, 862, 1158, 866, 1159, 1071, 1008, 1148, 1046, 956, 1188, 1205, 859, 1150, 979, 1071, 1130, 938, 1074, 1144, 952, 1102, 1125, 835, 1120, 1101],
      "WindowCenter": [383.0, 382.0, 381.0, 381.0, 381.0, 381.0, 381.0, 382.0, 380.0, 381.0, 380.0, 380.0, 382.0, 379.0, 381.0, 382.0, 382.0, 384.0, 380.0, 383.0, 380.0, 383.0, 382.0, 383.0, 384.0, 381.0, 382.0, 379.0, 382.0, 382.0, 380.0, 382.0, 379.0, 381.0, 381.0, 378.0, 381.0, 381.0, 378.0, 381.0, 382.0, 381.0, 383.0, 380.0, 382.0, 382.0, 382.0, 385.0, 380.0, 382.0, 383.0, 380.0, 381.0, 381.0, 380.0, 381.0, 380.0, 381.0, 383.0, 380.0, 383.0, 380.0, 382.0, 383.0, 380.0, 381.0, 383.0, 382.0, 383.0, 381.0, 381.0, 383.0, 381.0, 383.0, 381.0, 382.0, 383.0, 380.0, 381.0, 382.0, 379.0, 380.0, 382.0, 380.0, 383.0, 379.0, 383.0, 379.0, 383.0, 382.0, 382.0, 382.0, 382.0, 378.0, 381.0, 382.0, 379.0, 381.0, 382.0, 382.0, 383.0, 383.0, 383.0, 382.0, 383.0, 382.0, 380.0, 379.0, 379.0, 377.0, 378.0, 378.0, 378.0, 380.0, 376.0, 379.0, 380.0, 378.0, 382.0, 379.0, 381.0, 381.0, 381.0, 382.0, 380.0, 380.0, 383.0, 381.0, 383.0, 381.0, 381.0, 383.0, 380.0, 382.0, 382.0, 380.0, 382.0, 382.0, 380.0, 383.0, 380.0, 382.0, 384.0, 381.0, 381.0, 383.0, 381.0, 380.0, 383.0, 379.0, 383.0, 379.0, 383.0, 384.0, 380.0, 381.0, 380.0, 380.0, 381.0, 380.0, 382.0, 380.0, 382.0, 380.0, 382.0, 383.0, 383.0, 381.0, 382.0, 378.0, 379.0, 380.0, 380.0, 380.0, 377.0, 379.0, 380.0, 379.0, 381.0, 380.0, 380.0, 382.0, 378.0, 383.0, 380.0, 383.0, 383.0, 381.0, 382.0, 382.0, 382.0, 383.0, 380.0, 384.0, 383.0, 383.0, 382.0, 382.0, 383.0, 381.0, 381.0, 382.0, 379.0, 381.0, 381.0, 379.0, 382.0, 380.0, 382.0, 383.0, 381.0, 382.0, 381.0, 383.0, 383.0, 384.0, 381.0, 382.0, 380.0, 382.0, 381.0, 381.0, 381.0, 380.0, 381.0, 382.0, 381.0, 381.0, 382.0, 379.0, 382.0, 382.0, 379.0, 382.0, 383.0, 379.0, 382.0, 382.0, 382.0, 383.0, 381.0, 383.0, 383.0, 381.0, 383.0, 382.0, 383.0, 383.0, 383.0, 384.0, 381.0, 382.0, 382.0, 381.0, 383.0, 381.0, 383.0, 380.0, 383.0, 382.0, 380.0, 381.0, 380.0, 379.0, 381.0, 381.0, 379.0, 382.0, 381.0, 382.0, 383.0, 381.0, 382.0, 382.0, 381.0, 382.0, 382.0, 380.0, 382.0, 382.0],
      "WindowWidth": [813.0, 811.0, 810.0, 810.0, 809.0, 809.0, 809.0, 811.0, 807.0, 810.0, 807.0, 808.0, 811.0, 808.0, 810.0, 812.0, 812.0, 815.0, 809.0, 814.0, 809.0, 814.0, 812.0, 813.0, 814.0, 810.0, 811.0, 807.0, 811.0, 811.0, 808.0, 812.0, 807.0, 809.0, 809.0, 805.0, 810.0, 808.0, 806.0, 810.0, 811.0, 811.0, 813.0, 809.0, 811.0, 812.0, 812.0, 816.0, 809.0, 810.0, 812.0, 808.0, 809.0, 810.0, 807.0, 810.0, 808.0, 811.0, 813.0, 808.0, 813.0, 809.0, 811.0, 812.0, 808.0, 809.0, 813.0, 812.0, 814.0, 810.0, 810.0, 812.0, 810.0, 813.0, 811.0, 810.0, 813.0, 809.0, 810.0, 812.0, 807.0, 808.0, 812.0, 809.0, 813.0, 808.0, 814.0, 807.0, 814.0, 812.0, 811.0, 811.0, 811.0, 806.0, 809.0, 810.0, 806.0, 810.0, 811.0, 812.0, 813.0, 815.0, 814.0, 813.0, 814.0, 812.0, 807.0, 806.0, 806.0, 802.0, 804.0, 805.0, 805.0, 807.0, 803.0, 805.0, 807.0, 805.0, 811.0, 808.0, 810.0, 810.0, 810.0, 811.0, 808.0, 809.0, 812.0, 810.0, 814.0, 810.0, 809.0, 814.0, 809.0, 811.0, 811.0, 809.0, 811.0, 810.0, 809.0, 812.0, 808.0, 812.0, 815.0, 810.0, 809.0, 813.0, 809.0, 808.0, 812.0, 807.0, 814.0, 807.0, 813.0, 814.0, 809.0, 810.0, 809.0, 808.0, 809.0, 809.0, 811.0, 810.0, 812.0, 810.0, 812.0, 813.0, 813.0, 811.0, 811.0, 805.0, 805.0, 808.0, 808.0, 808.0, 805.0, 806.0, 808.0, 806.0, 810.0, 809.0, 808.0, 812.0, 806.0, 814.0, 809.0, 814.0, 814.0, 810.0, 812.0, 812.0, 812.0, 812.0, 808.0, 815.0, 814.0, 814.0, 811.0, 812.0, 814.0, 811.0, 811.0, 811.0, 806.0, 809.0, 810.0, 807.0, 811.0, 808.0, 812.0, 813.0, 810.0, 812.0, 811.0, 813.0, 813.0, 814.0, 810.0, 812.0, 809.0, 811.0, 810.0, 809.0, 809.0, 809.0, 810.0, 810.0, 809.0, 810.0, 812.0, 808.0, 811.0, 812.0, 808.0, 811.0, 813.0, 807.0, 811.0, 811.0, 812.0, 814.0, 811.0, 813.0, 813.0, 810.0, 812.0, 812.0, 812.0, 813.0, 814.0, 814.0, 811.0, 812.0, 812.0, 809.0, 813.0, 811.0, 813.0, 809.0, 813.0, 811.0, 809.0, 810.0, 807.0, 807.0, 810.0, 809.0, 806.0, 811.0, 811.0, 812.0, 812.0, 810.0, 811.0, 811.0, 810.0, 811.0, 812.0, 808.0, 812.0, 811.0]
    },
    "slices": {}
  }
}