{
  "AcquisitionMatrixPE": 96,
  "AcquisitionNumber": 1,
  "AcquisitionTime": "16:11:26.625000",
  "BandwidthPerPixelPhaseEncode": 18.939,
  "BaseResolution": 96,
  "BodyPartExamined": "BRAIN",
  "ConsistencyInfo": "N4_VE11C_LATEST_20160120",
  "ConversionSoftware": "dcm2niix",
  "ConversionSoftwareVersion": "v1.0.20170923 (OpenJPEG build) GCC6.3.0",
  "DerivedVendorReportedEchoSpacing": 0.000550011,
  "DeviceSerialNumber": "66112",
  "DwellTime": 2.3e-06,
  "EchoTime": 0.033,
  "EchoTrainLength": 96,
  "EffectiveEchoSpacing": 0.000550011,
  "FlipAngle": 64,
  "ImageType": [
    "ORIGINAL",
    "PRIMARY",
    "FMRI",
    "NONE",
    "ND",
    "NORM",
    "MOSAIC"
],
  "InstitutionAddress": "Maynard_3_Hanover_NH_US_03755",
  "InstitutionName": "Dartmouth_College_-_PBS",
  "MagneticFieldStrength": 3,
  "Manufacturer": "Siemens",
  "ManufacturersModelName": "Prisma",
  "Modality": "MR",
  "MultibandAccelerationFactor": 4,
  "PartialFourier": 1,
  "PercentPhaseFOV": 100,
  "PhaseEncodingDirection": "j-",
  "PhaseEncodingSteps": 96,
  "PhaseResolution": 1,
  "ProcedureStepDescription": "Gobbini_Matteo_1017_famface-angles",
  "ProtocolName": "func_run-09_task-fam1back",
  "PulseSequenceDetails": "%SiemensSeq%_ep2d_bold",
  "ReceiveCoilActiveElements": "HEA;HEP",
  "ReceiveCoilName": "Head_32",
  "ReconMatrixPE": 96,
  "RepetitionTime": 1.25,
  "ScanOptions": "FS",
  "ScanningSequence": "EP",
  "SequenceName": "_epfid2d1_96",
  "SequenceVariant": "SK",
  "SeriesDescription": "func_run-09_task-fam1back",
  "SliceTiming": [0.88, 0, 0.615, 0.0875, 0.7025, 0.175, 0.79, 0.3525, 0.9675, 0.44, 1.055, 0.5275, 1.1425, 0.265, 0.88, 0, 0.615, 0.0875, 0.7025, 0.175, 0.79, 0.3525, 0.9675, 0.44, 1.055, 0.5275, 1.1425, 0.265, 0.88, 0, 0.615, 0.0875, 0.7025, 0.175, 0.79, 0.3525, 0.9675, 0.44, 1.055, 0.5275, 1.1425, 0.265, 0.88, 0, 0.615, 0.0875, 0.7025, 0.175, 0.79, 0.3525, 0.9675, 0.44, 1.055, 0.5275, 1.1425, 0.265],
  "SoftwareVersions": "syngo_MR_E11",
  "StationName": "AWP66112",
  "TaskName": "fam1back",
  "TotalReadoutTime": 0.0522511,
  "dcmmeta_affine": [
    [-2.498541831970215, -0.05015570670366287, -0.06908868998289108, 122.44061279296875],
    [-0.0549558587372303, 2.4930810928344727, 0.17755819857120514, -100.65892791748047],
    [-0.06533525884151459, -0.17897336184978485, 2.492729425430298, -65.88418579101562],
    [0.0, 0.0, 0.0, 1.0]
],
  "dcmmeta_reorient_transform": [
    [0.0, -1.0, 0.0, 95.0],
    [1.0, 0.0, 0.0, 0.0],
    [0.0, 0.0, 1.0, 0.0],
    [0.0, 0.0, 0.0, 1.0]
],
  "dcmmeta_shape": [96, 96, 56, 280],
  "dcmmeta_slice_dim": 2,
  "dcmmeta_version": 0.6,
  "global": {
    "const": {
      "AccessionNumber": "A000394",
      "AcquisitionMatrix": [96, 0, 0, 96],
      "AngioFlag": "N",
      "BitsAllocated": 16,
      "BitsStored": 12,
      "BodyPartExamined": "BRAIN",
      "Columns": 768,
      "EchoNumbers": 1,
      "EchoTime": 33.0,
      "EchoTrainLength": 96,
      "FlipAngle": 64.0,
      "HighBit": 11,
      "ImageOrientationPatient": [0.99941672252964, 0.02198234304115, -0.026134102673, -0.0200622834263, 0.99723240547613, 0.07158934454241],
      "ImagePositionPatient": [-940.3335507977, -992.32415502129, -121.06906191871],
      "ImageType": [
        "ORIGINAL",
        "PRIMARY",
        "FMRI",
        "NONE",
        "ND",
        "NORM",
        "MOSAIC"
],
      "ImagedNucleus": "1H",
      "ImagingFrequency": 123.252352,
      "InPlanePhaseEncodingDirection": "COL",
      "MRAcquisitionType": "2D",
      "MagneticFieldStrength": 3.0,
      "Manufacturer": "SIEMENS",
      "ManufacturerModelName": "Prisma",
      "Modality": "MR",
      "NumberOfAverages": 1.0,
      "NumberOfPhaseEncodingSteps": 96,
      "PercentPhaseFieldOfView": 100.0,
      "PercentSampling": 100.0,
      "PerformedProcedureStepStartTime": "150606.464000",
      "PhotometricInterpretation": "MONOCHROME2",
      "PixelBandwidth": 2265.0,
      "PixelRepresentation": 0,
      "PixelSpacing": [2.5, 2.5],
      "PositionReferenceIndicator": "",
      "ProtocolName": "func_run-09_task-fam1back",
      "RepetitionTime": 1250.0,
      "Rows": 768,
      "SAR": 0.05247607974312,
      "SamplesPerPixel": 1,
      "ScanOptions": "FS",
      "ScanningSequence": "EP",
      "SequenceName": "*epfid2d1_96",
      "SequenceVariant": "SK",
      "SeriesDescription": "func_run-09_task-fam1back",
      "SeriesNumber": 67,
      "SeriesTime": "161127.922000",
      "SliceLocation": -76.225414082247,
      "SliceThickness": 2.5,
      "SmallestImagePixelValue": 0,
      "SoftwareVersions": "syngo MR E11",
      "SpacingBetweenSlices": 2.4999999999156,
      "SpecificCharacterSet": "ISO_IR 100",
      "StudyID": "2",
      "StudyTime": "150606.404000",
      "TransmitCoilName": "Body",
      "VariableFlipAngleFlag": "N",
      "WindowCenterWidthExplanation": "Algo1",
      "dBdt": 0.0},
    "slices": {}
  },
  "time": {
    "samples": {
      "AcquisitionNumber": [1, 2, 3, 4, 5, 6, 7, 8, 9, 10, 11, 12, 13, 14, 15, 16, 17, 18, 19, 20, 21, 22, 23, 24, 25, 26, 27, 28, 29, 30, 31, 32, 33, 34, 35, 36, 37, 38, 39, 40, 41, 42, 43, 44, 45, 46, 47, 48, 49, 50, 51, 52, 53, 54, 55, 56, 57, 58, 59, 60, 61, 62, 63, 64, 65, 66, 67, 68, 69, 70, 71, 72, 73, 74, 75, 76, 77, 78, 79, 80, 81, 82, 83, 84, 85, 86, 87, 88, 89, 90, 91, 92, 93, 94, 95, 96, 97, 98, 99, 100, 101, 102, 103, 104, 105, 106, 107, 108, 109, 110, 111, 112, 113, 114, 115, 116, 117, 118, 119, 120, 121, 122, 123, 124, 125, 126, 127, 128, 129, 130, 131, 132, 133, 134, 135, 136, 137, 138, 139, 140, 141, 142, 143, 144, 145, 146, 147, 148, 149, 150, 151, 152, 153, 154, 155, 156, 157, 158, 159, 160, 161, 162, 163, 164, 165, 166, 167, 168, 169, 170, 171, 172, 173, 174, 175, 176, 177, 178, 179, 180, 181, 182, 183, 184, 185, 186, 187, 188, 189, 190, 191, 192, 193, 194, 195, 196, 197, 198, 199, 200, 201, 202, 203, 204, 205, 206, 207, 208, 209, 210, 211, 212, 213, 214, 215, 216, 217, 218, 219, 220, 221, 222, 223, 224, 225, 226, 227, 228, 229, 230, 231, 232, 233, 234, 235, 236, 237, 238, 239, 240, 241, 242, 243, 244, 245, 246, 247, 248, 249, 250, 251, 252, 253, 254, 255, 256, 257, 258, 259, 260, 261, 262, 263, 264, 265, 266, 267, 268, 269, 270, 271, 272, 273, 274, 275, 276, 277, 278, 279, 280],
      "AcquisitionTime": ["161126.625000", "161127.875000", "161129.125000", "161130.375000", "161131.625000", "161132.875000", "161134.125000", "161135.375000", "161136.625000", "161137.875000", "161139.125000", "161140.375000", "161141.625000", "161142.875000", "161144.125000", "161145.375000", "161146.625000", "161147.875000", "161149.125000", "161150.375000", "161151.625000", "161152.875000", "161154.125000", "161155.375000", "161156.625000", "161157.875000", "161159.125000", "161200.375000", "161201.625000", "161202.875000", "161204.125000", "161205.375000", "161206.625000", "161207.875000", "161209.125000", "161210.375000", "161211.625000", "161212.875000", "161214.125000", "161215.375000", "161216.625000", "161217.875000", "161219.125000", "161220.375000", "161221.625000", "161222.875000", "161224.125000", "161225.375000", "161226.625000", "161227.875000", "161229.125000", "161230.375000", "161231.625000", "161232.875000", "161234.125000", "161235.375000", "161236.625000", "161237.875000", "161239.125000", "161240.375000", "161241.625000", "161242.875000", "161244.125000", "161245.375000", "161246.625000", "161247.875000", "161249.125000", "161250.375000", "161251.625000", "161252.875000", "161254.125000", "161255.375000", "161256.625000", "161257.875000", "161259.125000", "161300.375000", "161301.625000", "161302.875000", "161304.125000", "161305.375000", "161306.625000", "161307.875000", "161309.125000", "161310.375000", "161311.625000", "161312.875000", "161314.125000", "161315.375000", "161316.625000", "161317.875000", "161319.125000", "161320.375000", "161321.625000", "161322.875000", "161324.125000", "161325.375000", "161326.625000", "161327.875000", "161329.125000", "161330.375000", "161331.625000", "161332.875000", "161334.125000", "161335.375000", "161336.625000", "161337.875000", "161339.125000", "161340.375000", "161341.625000", "161342.875000", "161344.125000", "161345.375000", "161346.625000", "161347.875000", "161349.125000", "161350.375000", "161351.625000", "161352.875000", "161354.125000", "161355.375000", "161356.625000", "161357.875000", "161359.125000", "161400.375000", "161401.625000", "161402.875000", "161404.125000", "161405.375000", "161406.625000", "161407.875000", "161409.125000", "161410.375000", "161411.625000", "161412.875000", "161414.125000", "161415.375000", "161416.625000", "161417.875000", "161419.125000", "161420.375000", "161421.625000", "161422.875000", "161424.125000", "161425.375000", "161426.625000", "161427.875000", "161429.125000", "161430.375000", "161431.625000", "161432.875000", "161434.125000", "161435.375000", "161436.625000", "161437.875000", "161439.125000", "161440.375000", "161441.625000", "161442.875000", "161444.125000", "161445.375000", "161446.625000", "161447.875000", "161449.125000", "161450.375000", "161451.625000", "161452.875000", "161454.125000", "161455.375000", "161456.625000", "161457.875000", "161459.125000", "161500.375000", "161501.625000", "161502.875000", "161504.125000", "161505.375000", "161506.625000", "161507.875000", "161509.125000", "161510.375000", "161511.625000", "161512.875000", "161514.125000", "161515.375000", "161516.625000", "161517.875000", "161519.125000", "161520.375000", "161521.625000", "161522.875000", "161524.125000", "161525.375000", "161526.625000", "161527.875000", "161529.125000", "161530.375000", "161531.625000", "161532.875000", "161534.125000", "161535.375000", "161536.625000", "161537.875000", "161539.125000", "161540.375000", "161541.625000", "161542.875000", "161544.125000", "161545.375000", "161546.625000", "161547.875000", "161549.125000", "161550.375000", "161551.625000", "161552.875000", "161554.125000", "161555.375000", "161556.625000", "161557.875000", "161559.125000", "161600.375000", "161601.625000", "161602.875000", "161604.125000", "161605.375000", "161606.625000", "161607.875000", "161609.125000", "161610.375000", "161611.625000", "161612.875000", "161614.125000", "161615.375000", "161616.625000", "161617.875000", "161619.125000", "161620.375000", "161621.625000", "161622.875000", "161624.125000", "161625.375000", "161626.625000", "161627.875000", "161629.125000", "161630.375000", "161631.625000", "161632.875000", "161634.125000", "161635.375000", "161636.625000", "161637.875000", "161639.125000", "161640.375000", "161641.625000", "161642.875000", "161644.125000", "161645.375000", "161646.625000", "161647.875000", "161649.125000", "161650.375000", "161651.625000", "161652.875000", "161654.125000", "161655.375000", "161656.625000", "161657.875000", "161659.125000", "161700.375000", "161701.625000", "161702.875000", "161704.125000", "161705.375000", "161706.625000", "161707.875000", "161709.125000", "161710.375000", "161711.625000", "161712.875000", "161714.125000", "161715.375000"],
      "ContentTime": ["161127.926000", "161128.986000", "161130.219000", "161131.469000", "161132.721000", "161133.991000", "161135.237000", "161136.468000", "161137.766000", "161138.960000", "161140.222000", "161141.473000", "161142.753000", "161143.956000", "161145.249000", "161146.462000", "161147.744000", "161148.973000", "161150.238000", "161151.490000", "161152.718000", "161153.984000", "161155.242000", "161156.503000", "161157.733000", "161159.004000", "161200.241000", "161201.485000", "161202.762000", "161203.997000", "161205.211000", "161206.470000", "161207.734000", "161209.000000", "161210.236000", "161211.495000", "161212.725000", "161213.953000", "161215.239000", "161216.473000", "161217.722000", "161218.987000", "161220.231000", "161221.509000", "161222.717000", "161224.026000", "161225.249000", "161226.490000", "161227.712000", "161228.957000", "161230.241000", "161231.487000", "161232.724000", "161233.997000", "161235.233000", "161236.476000", "161237.759000", "161238.965000", "161240.223000", "161241.496000", "161242.767000", "161243.982000", "161245.259000", "161246.506000", "161247.727000", "161248.991000", "161250.263000", "161251.487000", "161252.729000", "161253.974000", "161255.281000", "161256.495000", "161257.757000", "161259.009000", "161300.254000", "161301.489000", "161302.716000", "161304.003000", "161305.239000", "161306.489000", "161307.744000", "161308.992000", "161310.248000", "161311.488000", "161312.743000", "161314.008000", "161315.230000", "161316.492000", "161317.740000", "161318.998000", "161320.233000", "161321.511000", "161322.745000", "161323.952000", "161325.232000", "161326.472000", "161327.734000", "161328.977000", "161330.239000", "161331.480000", "161332.733000", "161333.993000", "161335.230000", "161336.511000", "161337.726000", "161338.990000", "161340.240000", "161341.469000", "161342.739000", "161343.980000", "161345.247000", "161346.471000", "161347.725000", "161349.033000", "161350.238000", "161351.492000", "161352.744000", "161354.010000", "161355.245000", "161356.482000", "161357.726000", "161358.977000", "161400.231000", "161401.474000", "161402.748000", "161403.981000", "161405.213000", "161406.478000", "161407.743000", "161408.982000", "161410.257000", "161411.545000", "161412.744000", "161414.011000", "161415.254000", "161416.504000", "161417.763000", "161418.998000", "161420.242000", "161421.482000", "161422.724000", "161424.027000", "161425.354000", "161426.521000", "161427.738000", "161428.994000", "161430.229000", "161431.489000", "161432.778000", "161433.994000", "161435.229000", "161436.482000", "161437.724000", "161438.998000", "161440.273000", "161441.472000", "161442.747000", "161443.996000", "161445.240000", "161446.518000", "161447.740000", "161448.986000", "161450.231000", "161451.480000", "161452.734000", "161453.976000", "161455.248000", "161456.524000", "161457.736000", "161458.990000", "161500.239000", "161501.513000", "161502.707000", "161503.991000", "161505.237000", "161506.494000", "161507.717000", "161508.982000", "161510.259000", "161511.478000", "161512.735000", "161513.991000", "161515.235000", "161516.497000", "161517.720000", "161518.968000", "161520.244000", "161521.534000", "161522.704000", "161523.986000", "161525.219000", "161526.490000", "161527.766000", "161528.982000", "161530.243000", "161531.470000", "161532.775000", "161534.002000", "161535.294000", "161536.500000", "161537.757000", "161538.989000", "161540.248000", "161541.480000", "161542.753000", "161544.004000", "161545.270000", "161546.506000", "161547.740000", "161549.003000", "161550.244000", "161551.471000", "161552.732000", "161553.996000", "161555.246000", "161556.504000", "161557.719000", "161558.972000", "161600.234000", "161601.474000", "161602.723000", "161603.989000", "161605.269000", "161606.478000", "161607.727000", "161608.993000", "161610.248000", "161611.483000", "161612.710000", "161613.978000", "161615.236000", "161616.498000", "161617.726000", "161618.993000", "161620.220000", "161621.531000", "161622.782000", "161624.053000", "161625.222000", "161626.487000", "161627.748000", "161628.970000", "161630.220000", "161631.479000", "161632.755000", "161634.004000", "161635.225000", "161636.513000", "161637.755000", "161638.980000", "161640.240000", "161641.485000", "161642.763000", "161643.993000", "161645.255000", "161646.483000", "161647.774000", "161648.984000", "161650.263000", "161651.492000", "161652.742000", "161653.992000", "161655.235000", "161656.544000", "161657.754000", "161658.988000", "161700.235000", "161701.496000", "161702.717000", "161704.015000", "161705.221000", "161706.490000", "161707.744000", "161709.005000", "161710.235000", "161711.476000", "161712.739000", "161714.031000", "161715.286000", "161716.584000"],
      "InstanceCreationTime": ["161127.926000", "161128.986000", "161130.219000", "161131.469000", "161132.721000", "161133.991000", "161135.237000", "161136.468000", "161137.766000", "161138.960000", "161140.222000", "161141.473000", "161142.753000", "161143.956000", "161145.249000", "161146.462000", "161147.744000", "161148.973000", "161150.238000", "161151.490000", "161152.718000", "161153.984000", "161155.242000", "161156.503000", "161157.733000", "161159.004000", "161200.241000", "161201.485000", "161202.762000", "161203.997000", "161205.211000", "161206.470000", "161207.734000", "161209.000000", "161210.236000", "161211.495000", "161212.725000", "161213.953000", "161215.239000", "161216.473000", "161217.722000", "161218.987000", "161220.231000", "161221.509000", "161222.717000", "161224.026000", "161225.249000", "161226.490000", "161227.712000", "161228.957000", "161230.241000", "161231.487000", "161232.724000", "161233.997000", "161235.233000", "161236.476000", "161237.759000", "161238.965000", "161240.223000", "161241.496000", "161242.767000", "161243.982000", "161245.259000", "161246.506000", "161247.727000", "161248.991000", "161250.263000", "161251.487000", "161252.729000", "161253.974000", "161255.281000", "161256.495000", "161257.757000", "161259.009000", "161300.254000", "161301.489000", "161302.716000", "161304.003000", "161305.239000", "161306.489000", "161307.744000", "161308.992000", "161310.248000", "161311.488000", "161312.743000", "161314.008000", "161315.230000", "161316.492000", "161317.740000", "161318.998000", "161320.233000", "161321.511000", "161322.745000", "161323.952000", "161325.232000", "161326.472000", "161327.734000", "161328.977000", "161330.239000", "161331.480000", "161332.733000", "161333.993000", "161335.230000", "161336.511000", "161337.726000", "161338.990000", "161340.240000", "161341.469000", "161342.739000", "161343.980000", "161345.247000", "161346.471000", "161347.725000", "161349.033000", "161350.238000", "161351.492000", "161352.744000", "161354.010000", "161355.245000", "161356.482000", "161357.726000", "161358.977000", "161400.231000", "161401.474000", "161402.748000", "161403.981000", "161405.213000", "161406.478000", "161407.743000", "161408.982000", "161410.257000", "161411.545000", "161412.744000", "161414.011000", "161415.254000", "161416.504000", "161417.763000", "161418.998000", "161420.242000", "161421.482000", "161422.724000", "161424.027000", "161425.354000", "161426.521000", "161427.738000", "161428.994000", "161430.229000", "161431.489000", "161432.778000", "161433.994000", "161435.229000", "161436.482000", "161437.724000", "161438.998000", "161440.273000", "161441.472000", "161442.747000", "161443.996000", "161445.240000", "161446.518000", "161447.740000", "161448.986000", "161450.231000", "161451.480000", "161452.734000", "161453.976000", "161455.248000", "161456.524000", "161457.736000", "161458.990000", "161500.239000", "161501.513000", "161502.707000", "161503.991000", "161505.237000", "161506.494000", "161507.717000", "161508.982000", "161510.259000", "161511.478000", "161512.735000", "161513.991000", "161515.235000", "161516.497000", "161517.720000", "161518.968000", "161520.244000", "161521.534000", "161522.704000", "161523.986000", "161525.219000", "161526.490000", "161527.766000", "161528.982000", "161530.243000", "161531.470000", "161532.775000", "161534.002000", "161535.294000", "161536.500000", "161537.757000", "161538.989000", "161540.248000", "161541.480000", "161542.753000", "161544.004000", "161545.270000", "161546.506000", "161547.740000", "161549.003000", "161550.244000", "161551.471000", "161552.732000", "161553.996000", "161555.246000", "161556.504000", "161557.719000", "161558.972000", "161600.234000", "161601.474000", "161602.723000", "161603.989000", "161605.269000", "161606.478000", "161607.727000", "161608.993000", "161610.248000", "161611.483000", "161612.710000", "161613.978000", "161615.236000", "161616.498000", "161617.726000", "161618.993000", "161620.220000", "161621.531000", "161622.782000", "161624.053000", "161625.222000", "161626.487000", "161627.748000", "161628.970000", "161630.220000", "161631.479000", "161632.755000", "161634.004000", "161635.225000", "161636.513000", "161637.755000", "161638.980000", "161640.240000", "161641.485000", "161642.763000", "161643.993000", "161645.255000", "161646.483000", "161647.774000", "161648.984000", "161650.263000", "161651.492000", "161652.742000", "161653.992000", "161655.235000", "161656.544000", "161657.754000", "161658.988000", "161700.235000", "161701.496000", "161702.717000", "161704.015000", "161705.221000", "161706.490000", "161707.744000", "161709.005000", "161710.235000", "161711.476000", "161712.739000", "161714.031000", "161715.286000", "161716.584000"],
      "InstanceNumber": [1, 2, 3, 4, 5, 6, 7, 8, 9, 10, 11, 12, 13, 14, 15, 16, 17, 18, 19, 20, 21, 22, 23, 24, 25, 26, 27, 28, 29, 30, 31, 32, 33, 34, 35, 36, 37, 38, 39, 40, 41, 42, 43, 44, 45, 46, 47, 48, 49, 50, 51, 52, 53, 54, 55, 56, 57, 58, 59, 60, 61, 62, 63, 64, 65, 66, 67, 68, 69, 70, 71, 72, 73, 74, 75, 76, 77, 78, 79, 80, 81, 82, 83, 84, 85, 86, 87, 88, 89, 90, 91, 92, 93, 94, 95, 96, 97, 98, 99, 100, 101, 102, 103, 104, 105, 106, 107, 108, 109, 110, 111, 112, 113, 114, 115, 116, 117, 118, 119, 120, 121, 122, 123, 124, 125, 126, 127, 128, 129, 130, 131, 132, 133, 134, 135, 136, 137, 138, 139, 140, 141, 142, 143, 144, 145, 146, 147, 148, 149, 150, 151, 152, 153, 154, 155, 156, 157, 158, 159, 160, 161, 162, 163, 164, 165, 166, 167, 168, 169, 170, 171, 172, 173, 174, 175, 176, 177, 178, 179, 180, 181, 182, 183, 184, 185, 186, 187, 188, 189, 190, 191, 192, 193, 194, 195, 196, 197, 198, 199, 200, 201, 202, 203, 204, 205, 206, 207, 208, 209, 210, 211, 212, 213, 214, 215, 216, 217, 218, 219, 220, 221, 222, 223, 224, 225, 226, 227, 228, 229, 230, 231, 232, 233, 234, 235, 236, 237, 238, 239, 240, 241, 242, 243, 244, 245, 246, 247, 248, 249, 250, 251, 252, 253, 254, 255, 256, 257, 258, 259, 260, 261, 262, 263, 264, 265, 266, 267, 268, 269, 270, 271, 272, 273, 274, 275, 276, 277, 278, 279, 280],
      "LargestImagePixelValue": [1326, 1321, 1306, 1590, 1440, 1424, 1385, 1372, 1536, 1396, 1528, 1206, 1590, 1037, 1053, 1208, 1130, 1745, 1376, 1268, 1540, 1268, 1336, 1518, 1326, 1173, 1190, 1342, 981, 1563, 1054, 1035, 1327, 1341, 1517, 1776, 1508, 1133, 1331, 1099, 1077, 1086, 1201, 1146, 1229, 1035, 1168, 1251, 1311, 1296, 1304, 1205, 1219, 1231, 1394, 1368, 1474, 1344, 1628, 1088, 1337, 1149, 957, 1064, 1105, 938, 1367, 1235, 1257, 1580, 1322, 1604, 1437, 1217, 1404, 1078, 1257, 1200, 1135, 1518, 1354, 1420, 1261, 1210, 1371, 1081, 1071, 942, 1455, 1807, 1299, 1492, 1494, 1223, 1630, 1135, 982, 958, 1142, 980, 1293, 1317, 1404, 1235, 1435, 1263, 1410, 1241, 1301, 1253, 1176, 1082, 1487, 979, 1606, 1162, 1625, 1458, 1133, 1369, 1183, 1242, 1321, 952, 1426, 966, 1454, 1463, 1397, 1365, 1420, 1259, 1390, 1217, 1385, 1064, 1406, 1191, 990, 1669, 1215, 1736, 1323, 1397, 1542, 1205, 1430, 1222, 979, 1657, 1161, 1483, 1408, 1477, 1386, 1350, 1369, 1298, 1212, 1513, 1206, 1543, 1114, 1162, 1132, 942, 1442, 1052, 1128, 1210, 1157, 1396, 1339, 1393, 1413, 1439, 1107, 1304, 1445, 1506, 1348, 1455, 1015, 1382, 1249, 1207, 1675, 1256, 1569, 1369, 1352, 1104, 1210, 1035, 1294, 1038, 1009, 1231, 1263, 1538, 1091, 1208, 1294, 1221, 1703, 1389, 1404, 1133, 1209, 1368, 1124, 1719, 1491, 1335, 1514, 1175, 1103, 1293, 1074, 1205, 1054, 991, 1335, 964, 1784, 1312, 1543, 1401, 1323, 1322, 1076, 1315, 1088, 1497, 1187, 1516, 1355, 1164, 1260, 1064, 1445, 1261, 1326, 1073, 1388, 1052, 1321, 1016, 969, 1468, 1200, 1666, 1429, 1688, 1393, 1394, 1219, 1066, 1340, 1159, 1292, 1138, 1590, 1132, 1100, 1519, 1406, 1534, 1192, 1544, 1246, 1495, 1149, 1351, 1116, 1245, 1088, 1493, 1022, 1328],
      "WindowCenter": [423.0, 422.0, 421.0, 423.0, 421.0, 421.0, 421.0, 420.0, 421.0, 420.0, 420.0, 418.0, 420.0, 416.0, 417.0, 419.0, 419.0, 423.0, 420.0, 419.0, 421.0, 419.0, 419.0, 420.0, 419.0, 417.0, 418.0, 419.0, 417.0, 422.0, 419.0, 419.0, 422.0, 420.0, 420.0, 420.0, 418.0, 414.0, 416.0, 415.0, 415.0, 417.0, 418.0, 417.0, 418.0, 416.0, 419.0, 420.0, 419.0, 420.0, 419.0, 418.0, 420.0, 420.0, 421.0, 421.0, 421.0, 419.0, 420.0, 416.0, 418.0, 416.0, 416.0, 417.0, 419.0, 417.0, 421.0, 420.0, 420.0, 422.0, 420.0, 421.0, 421.0, 418.0, 419.0, 417.0, 419.0, 419.0, 418.0, 421.0, 420.0, 420.0, 419.0, 418.0, 420.0, 418.0, 418.0, 417.0, 421.0, 423.0, 420.0, 420.0, 420.0, 418.0, 419.0, 416.0, 416.0, 416.0, 418.0, 417.0, 420.0, 420.0, 420.0, 419.0, 419.0, 418.0, 419.0, 418.0, 419.0, 418.0, 418.0, 418.0, 421.0, 417.0, 422.0, 419.0, 422.0, 420.0, 418.0, 419.0, 418.0, 419.0, 420.0, 417.0, 421.0, 418.0, 423.0, 422.0, 421.0, 420.0, 419.0, 418.0, 419.0, 418.0, 419.0, 417.0, 420.0, 419.0, 418.0, 422.0, 420.0, 423.0, 420.0, 421.0, 421.0, 418.0, 420.0, 419.0, 417.0, 422.0, 419.0, 421.0, 420.0, 421.0, 420.0, 420.0, 419.0, 419.0, 418.0, 420.0, 418.0, 420.0, 417.0, 418.0, 418.0, 416.0, 421.0, 418.0, 419.0, 421.0, 420.0, 422.0, 421.0, 421.0, 421.0, 421.0, 418.0, 420.0, 421.0, 421.0, 421.0, 421.0, 418.0, 421.0, 420.0, 420.0, 422.0, 418.0, 420.0, 417.0, 417.0, 415.0, 418.0, 416.0, 419.0, 417.0, 416.0, 420.0, 419.0, 421.0, 418.0, 419.0, 420.0, 420.0, 422.0, 420.0, 420.0, 418.0, 419.0, 421.0, 419.0, 422.0, 421.0, 419.0, 420.0, 418.0, 417.0, 418.0, 417.0, 418.0, 417.0, 417.0, 420.0, 417.0, 422.0, 420.0, 421.0, 420.0, 420.0, 420.0, 418.0, 420.0, 418.0, 421.0, 418.0, 421.0, 420.0, 418.0, 418.0, 416.0, 420.0, 418.0, 418.0, 416.0, 419.0, 417.0, 419.0, 417.0, 417.0, 422.0, 421.0, 423.0, 421.0, 422.0, 420.0, 419.0, 418.0, 416.0, 419.0, 417.0, 419.0, 418.0, 421.0, 419.0, 418.0, 422.0, 421.0, 421.0, 418.0, 420.0, 418.0, 420.0, 417.0, 419.0, 417.0, 418.0, 417.0, 420.0, 416.0, 420.0],
      "WindowWidth": [892.0, 890.0, 888.0, 891.0, 888.0, 887.0, 887.0, 885.0, 887.0, 885.0, 886.0, 882.0, 885.0, 880.0, 881.0, 884.0, 885.0, 890.0, 886.0, 884.0, 887.0, 884.0, 884.0, 886.0, 883.0, 881.0, 882.0, 883.0, 882.0, 889.0, 885.0, 885.0, 889.0, 886.0, 886.0, 885.0, 881.0, 876.0, 878.0, 876.0, 877.0, 881.0, 883.0, 880.0, 882.0, 880.0, 884.0, 885.0, 885.0, 885.0, 885.0, 883.0, 885.0, 886.0, 887.0, 887.0, 887.0, 885.0, 884.0, 879.0, 882.0, 880.0, 879.0, 882.0, 884.0, 883.0, 888.0, 887.0, 887.0, 890.0, 887.0, 887.0, 886.0, 883.0, 884.0, 882.0, 884.0, 884.0, 883.0, 887.0, 886.0, 885.0, 884.0, 883.0, 885.0, 883.0, 883.0, 881.0, 887.0, 890.0, 886.0, 886.0, 885.0, 881.0, 884.0, 880.0, 879.0, 879.0, 883.0, 882.0, 886.0, 886.0, 886.0, 883.0, 884.0, 883.0, 884.0, 881.0, 883.0, 882.0, 883.0, 883.0, 887.0, 882.0, 888.0, 884.0, 888.0, 886.0, 882.0, 885.0, 883.0, 885.0, 885.0, 882.0, 888.0, 883.0, 890.0, 889.0, 888.0, 885.0, 884.0, 882.0, 884.0, 882.0, 884.0, 881.0, 886.0, 885.0, 883.0, 889.0, 887.0, 890.0, 886.0, 887.0, 887.0, 883.0, 885.0, 884.0, 882.0, 889.0, 884.0, 887.0, 886.0, 886.0, 885.0, 885.0, 885.0, 884.0, 883.0, 886.0, 882.0, 885.0, 882.0, 882.0, 883.0, 880.0, 887.0, 884.0, 884.0, 887.0, 887.0, 888.0, 888.0, 887.0, 887.0, 887.0, 882.0, 885.0, 887.0, 888.0, 887.0, 887.0, 883.0, 887.0, 887.0, 886.0, 889.0, 883.0, 885.0, 881.0, 881.0, 877.0, 881.0, 880.0, 884.0, 881.0, 880.0, 886.0, 884.0, 887.0, 883.0, 884.0, 886.0, 886.0, 889.0, 886.0, 886.0, 883.0, 884.0, 887.0, 884.0, 889.0, 887.0, 884.0, 885.0, 882.0, 880.0, 883.0, 881.0, 882.0, 881.0, 881.0, 885.0, 881.0, 889.0, 886.0, 888.0, 886.0, 886.0, 885.0, 883.0, 886.0, 883.0, 887.0, 883.0, 887.0, 885.0, 882.0, 883.0, 880.0, 885.0, 883.0, 883.0, 880.0, 883.0, 881.0, 884.0, 881.0, 882.0, 889.0, 888.0, 891.0, 888.0, 888.0, 885.0, 884.0, 882.0, 880.0, 884.0, 882.0, 884.0, 883.0, 887.0, 884.0, 883.0, 889.0, 887.0, 887.0, 883.0, 886.0, 883.0, 885.0, 881.0, 884.0, 881.0, 883.0, 881.0, 885.0, 880.0, 885.0]
    },
    "slices": {}
  }
}