{
  "AcquisitionMatrixPE": 96,
  "AcquisitionNumber": 1,
  "AcquisitionTime": "15:38:32.295000",
  "BandwidthPerPixelPhaseEncode": 18.939,
  "BaseResolution": 96,
  "BodyPartExamined": "BRAIN",
  "ConsistencyInfo": "N4_VE11C_LATEST_20160120",
  "ConversionSoftware": "dcm2niix",
  "ConversionSoftwareVersion": "v1.0.20170923 (OpenJPEG build) GCC6.3.0",
  "DerivedVendorReportedEchoSpacing": 0.000550011,
  "DeviceSerialNumber": "66112",
  "DwellTime": 2.3e-06,
  "EchoTime": 0.033,
  "EchoTrainLength": 96,
  "EffectiveEchoSpacing": 0.000550011,
  "FlipAngle": 64,
  "ImageType": [
    "ORIGINAL",
    "PRIMARY",
    "FMRI",
    "NONE",
    "ND",
    "NORM",
    "MOSAIC"
],
  "InstitutionAddress": "Maynard_3_Hanover_NH_US_03755",
  "InstitutionName": "Dartmouth_College_-_PBS",
  "MagneticFieldStrength": 3,
  "Manufacturer": "Siemens",
  "ManufacturersModelName": "Prisma",
  "Modality": "MR",
  "MultibandAccelerationFactor": 4,
  "PartialFourier": 1,
  "PercentPhaseFOV": 100,
  "PhaseEncodingDirection": "j-",
  "PhaseEncodingSteps": 96,
  "PhaseResolution": 1,
  "ProcedureStepDescription": "Gobbini_Matteo_1017_famface-angles",
  "ProtocolName": "func_run-04_task-fam1back",
  "PulseSequenceDetails": "%SiemensSeq%_ep2d_bold",
  "ReceiveCoilActiveElements": "HEA;HEP",
  "ReceiveCoilName": "Head_32",
  "ReconMatrixPE": 96,
  "RepetitionTime": 1.25,
  "ScanOptions": "FS",
  "ScanningSequence": "EP",
  "SequenceName": "_epfid2d1_96",
  "SequenceVariant": "SK",
  "SeriesDescription": "func_run-04_task-fam1back",
  "SliceTiming": [0.88, 0, 0.615, 0.09, 0.705, 0.1775, 0.7925, 0.3525, 0.9675, 0.44, 1.055, 0.5275, 1.1425, 0.265, 0.88, 0, 0.615, 0.09, 0.705, 0.1775, 0.7925, 0.3525, 0.9675, 0.44, 1.055, 0.5275, 1.1425, 0.265, 0.88, 0, 0.615, 0.09, 0.705, 0.1775, 0.7925, 0.3525, 0.9675, 0.44, 1.055, 0.5275, 1.1425, 0.265, 0.88, 0, 0.615, 0.09, 0.705, 0.1775, 0.7925, 0.3525, 0.9675, 0.44, 1.055, 0.5275, 1.1425, 0.265],
  "SoftwareVersions": "syngo_MR_E11",
  "StationName": "AWP66112",
  "TaskName": "fam1back",
  "TotalReadoutTime": 0.0522511,
  "dcmmeta_affine": [
    [-2.498541831970215, -0.05015570670366287, -0.06908868998289108, 122.44061279296875],
    [-0.0549558587372303, 2.4930810928344727, 0.17755819857120514, -100.65892791748047],
    [-0.06533525884151459, -0.17897336184978485, 2.492729425430298, -65.88418579101562],
    [0.0, 0.0, 0.0, 1.0]
],
  "dcmmeta_reorient_transform": [
    [0.0, -1.0, 0.0, 95.0],
    [1.0, 0.0, 0.0, 0.0],
    [0.0, 0.0, 1.0, 0.0],
    [0.0, 0.0, 0.0, 1.0]
],
  "dcmmeta_shape": [96, 96, 56, 280],
  "dcmmeta_slice_dim": 2,
  "dcmmeta_version": 0.6,
  "global": {
    "const": {
      "AccessionNumber": "A000394",
      "AcquisitionMatrix": [96, 0, 0, 96],
      "AngioFlag": "N",
      "BitsAllocated": 16,
      "BitsStored": 12,
      "BodyPartExamined": "BRAIN",
      "Columns": 768,
      "EchoNumbers": 1,
      "EchoTime": 33.0,
      "EchoTrainLength": 96,
      "FlipAngle": 64.0,
      "HighBit": 11,
      "ImageOrientationPatient": [0.99941672252964, 0.02198234304115, -0.026134102673, -0.0200622834263, 0.99723240547613, 0.07158934454241],
      "ImagePositionPatient": [-940.3335507977, -992.32415502129, -121.06906191871],
      "ImageType": [
        "ORIGINAL",
        "PRIMARY",
        "FMRI",
        "NONE",
        "ND",
        "NORM",
        "MOSAIC"
],
      "ImagedNucleus": "1H",
      "ImagingFrequency": 123.252354,
      "InPlanePhaseEncodingDirection": "COL",
      "MRAcquisitionType": "2D",
      "MagneticFieldStrength": 3.0,
      "Manufacturer": "SIEMENS",
      "ManufacturerModelName": "Prisma",
      "Modality": "MR",
      "NumberOfAverages": 1.0,
      "NumberOfPhaseEncodingSteps": 96,
      "PercentPhaseFieldOfView": 100.0,
      "PercentSampling": 100.0,
      "PerformedProcedureStepStartTime": "150606.464000",
      "PhotometricInterpretation": "MONOCHROME2",
      "PixelBandwidth": 2265.0,
      "PixelRepresentation": 0,
      "PixelSpacing": [2.5, 2.5],
      "PositionReferenceIndicator": "",
      "ProtocolName": "func_run-04_task-fam1back",
      "RepetitionTime": 1250.0,
      "Rows": 768,
      "SAR": 0.05247607974312,
      "SamplesPerPixel": 1,
      "ScanOptions": "FS",
      "ScanningSequence": "EP",
      "SequenceName": "*epfid2d1_96",
      "SequenceVariant": "SK",
      "SeriesDescription": "func_run-04_task-fam1back",
      "SeriesNumber": 32,
      "SeriesTime": "153834.158000",
      "SliceLocation": -76.225414082247,
      "SliceThickness": 2.5,
      "SmallestImagePixelValue": 0,
      "SoftwareVersions": "syngo MR E11",
      "SpacingBetweenSlices": 2.4999999999156,
      "SpecificCharacterSet": "ISO_IR 100",
      "StudyID": "2",
      "StudyTime": "150606.404000",
      "TransmitCoilName": "Body",
      "VariableFlipAngleFlag": "N",
      "WindowCenterWidthExplanation": "Algo1",
      "dBdt": 0.0},
    "slices": {}
  },
  "time": {
    "samples": {
      "AcquisitionNumber": [1, 2, 3, 4, 5, 6, 7, 8, 9, 10, 11, 12, 13, 14, 15, 16, 17, 18, 19, 20, 21, 22, 23, 24, 25, 26, 27, 28, 29, 30, 31, 32, 33, 34, 35, 36, 37, 38, 39, 40, 41, 42, 43, 44, 45, 46, 47, 48, 49, 50, 51, 52, 53, 54, 55, 56, 57, 58, 59, 60, 61, 62, 63, 64, 65, 66, 67, 68, 69, 70, 71, 72, 73, 74, 75, 76, 77, 78, 79, 80, 81, 82, 83, 84, 85, 86, 87, 88, 89, 90, 91, 92, 93, 94, 95, 96, 97, 98, 99, 100, 101, 102, 103, 104, 105, 106, 107, 108, 109, 110, 111, 112, 113, 114, 115, 116, 117, 118, 119, 120, 121, 122, 123, 124, 125, 126, 127, 128, 129, 130, 131, 132, 133, 134, 135, 136, 137, 138, 139, 140, 141, 142, 143, 144, 145, 146, 147, 148, 149, 150, 151, 152, 153, 154, 155, 156, 157, 158, 159, 160, 161, 162, 163, 164, 165, 166, 167, 168, 169, 170, 171, 172, 173, 174, 175, 176, 177, 178, 179, 180, 181, 182, 183, 184, 185, 186, 187, 188, 189, 190, 191, 192, 193, 194, 195, 196, 197, 198, 199, 200, 201, 202, 203, 204, 205, 206, 207, 208, 209, 210, 211, 212, 213, 214, 215, 216, 217, 218, 219, 220, 221, 222, 223, 224, 225, 226, 227, 228, 229, 230, 231, 232, 233, 234, 235, 236, 237, 238, 239, 240, 241, 242, 243, 244, 245, 246, 247, 248, 249, 250, 251, 252, 253, 254, 255, 256, 257, 258, 259, 260, 261, 262, 263, 264, 265, 266, 267, 268, 269, 270, 271, 272, 273, 274, 275, 276, 277, 278, 279, 280],
      "AcquisitionTime": ["153832.295000", "153833.545000", "153834.795000", "153836.045000", "153837.295000", "153838.545000", "153839.795000", "153841.045000", "153842.295000", "153843.545000", "153844.795000", "153846.045000", "153847.295000", "153848.545000", "153849.795000", "153851.045000", "153852.295000", "153853.545000", "153854.795000", "153856.045000", "153857.295000", "153858.545000", "153859.795000", "153901.045000", "153902.295000", "153903.545000", "153904.795000", "153906.045000", "153907.295000", "153908.545000", "153909.795000", "153911.045000", "153912.295000", "153913.545000", "153914.795000", "153916.045000", "153917.295000", "153918.545000", "153919.795000", "153921.045000", "153922.295000", "153923.545000", "153924.795000", "153926.045000", "153927.295000", "153928.545000", "153929.795000", "153931.045000", "153932.295000", "153933.545000", "153934.795000", "153936.045000", "153937.295000", "153938.545000", "153939.795000", "153941.045000", "153942.295000", "153943.545000", "153944.795000", "153946.045000", "153947.295000", "153948.545000", "153949.795000", "153951.045000", "153952.295000", "153953.545000", "153954.795000", "153956.045000", "153957.295000", "153958.545000", "153959.795000", "154001.045000", "154002.295000", "154003.545000", "154004.795000", "154006.045000", "154007.295000", "154008.545000", "154009.795000", "154011.045000", "154012.295000", "154013.545000", "154014.795000", "154016.045000", "154017.295000", "154018.545000", "154019.795000", "154021.045000", "154022.295000", "154023.545000", "154024.795000", "154026.045000", "154027.295000", "154028.545000", "154029.795000", "154031.045000", "154032.295000", "154033.545000", "154034.795000", "154036.045000", "154037.295000", "154038.545000", "154039.795000", "154041.045000", "154042.295000", "154043.545000", "154044.795000", "154046.045000", "154047.295000", "154048.545000", "154049.795000", "154051.045000", "154052.295000", "154053.545000", "154054.795000", "154056.045000", "154057.295000", "154058.545000", "154059.795000", "154101.045000", "154102.295000", "154103.545000", "154104.795000", "154106.045000", "154107.295000", "154108.545000", "154109.795000", "154111.045000", "154112.295000", "154113.545000", "154114.795000", "154116.045000", "154117.295000", "154118.545000", "154119.795000", "154121.045000", "154122.295000", "154123.545000", "154124.795000", "154126.045000", "154127.295000", "154128.545000", "154129.795000", "154131.045000", "154132.295000", "154133.545000", "154134.795000", "154136.045000", "154137.295000", "154138.545000", "154139.795000", "154141.045000", "154142.295000", "154143.545000", "154144.795000", "154146.045000", "154147.295000", "154148.545000", "154149.795000", "154151.045000", "154152.295000", "154153.545000", "154154.795000", "154156.045000", "154157.295000", "154158.545000", "154159.795000", "154201.045000", "154202.295000", "154203.545000", "154204.795000", "154206.045000", "154207.295000", "154208.545000", "154209.795000", "154211.045000", "154212.295000", "154213.545000", "154214.795000", "154216.045000", "154217.295000", "154218.545000", "154219.795000", "154221.045000", "154222.295000", "154223.545000", "154224.795000", "154226.045000", "154227.295000", "154228.545000", "154229.795000", "154231.045000", "154232.295000", "154233.545000", "154234.795000", "154236.045000", "154237.295000", "154238.545000", "154239.795000", "154241.045000", "154242.295000", "154243.545000", "154244.795000", "154246.045000", "154247.295000", "154248.545000", "154249.795000", "154251.045000", "154252.295000", "154253.545000", "154254.795000", "154256.045000", "154257.295000", "154258.545000", "154259.795000", "154301.045000", "154302.295000", "154303.545000", "154304.795000", "154306.045000", "154307.295000", "154308.545000", "154309.795000", "154311.045000", "154312.295000", "154313.545000", "154314.795000", "154316.045000", "154317.295000", "154318.545000", "154319.795000", "154321.045000", "154322.295000", "154323.545000", "154324.795000", "154326.045000", "154327.295000", "154328.545000", "154329.795000", "154331.045000", "154332.295000", "154333.545000", "154334.795000", "154336.045000", "154337.295000", "154338.545000", "154339.795000", "154341.045000", "154342.295000", "154343.545000", "154344.795000", "154346.045000", "154347.295000", "154348.545000", "154349.795000", "154351.045000", "154352.295000", "154353.545000", "154354.795000", "154356.045000", "154357.295000", "154358.545000", "154359.795000", "154401.045000", "154402.295000", "154403.545000", "154404.795000", "154406.045000", "154407.295000", "154408.545000", "154409.795000", "154411.045000", "154412.295000", "154413.545000", "154414.795000", "154416.045000", "154417.295000", "154418.545000", "154419.795000", "154421.045000"],
      "ContentTime": ["153834.162000", "153835.224000", "153836.470000", "153837.696000", "153838.967000", "153840.207000", "153841.472000", "153842.704000", "153843.960000", "153845.215000", "153846.460000", "153847.735000", "153848.987000", "153850.234000", "153851.490000", "153852.708000", "153853.946000", "153855.192000", "153856.466000", "153857.716000", "153859.017000", "153900.239000", "153901.470000", "153902.723000", "153904.039000", "153905.214000", "153906.469000", "153907.733000", "153908.959000", "153910.210000", "153911.457000", "153912.707000", "153913.970000", "153915.202000", "153916.480000", "153917.705000", "153918.955000", "153920.218000", "153921.456000", "153922.748000", "153923.969000", "153925.190000", "153926.451000", "153927.738000", "153929.020000", "153930.218000", "153931.459000", "153932.733000", "153934.052000", "153935.220000", "153936.486000", "153937.745000", "153938.985000", "153940.239000", "153941.445000", "153942.757000", "153943.969000", "153945.216000", "153946.475000", "153947.705000", "153948.971000", "153950.208000", "153951.505000", "153952.712000", "153953.969000", "153955.221000", "153956.465000", "153957.710000", "153958.947000", "154000.212000", "154001.476000", "154002.709000", "154003.949000", "154005.228000", "154006.501000", "154007.718000", "154008.975000", "154010.309000", "154011.478000", "154012.704000", "154013.969000", "154015.213000", "154016.469000", "154017.704000", "154018.975000", "154020.274000", "154021.494000", "154022.728000", "154023.950000", "154025.213000", "154026.469000", "154027.695000", "154028.956000", "154030.225000", "154031.462000", "154032.728000", "154033.975000", "154035.228000", "154036.461000", "154037.730000", "154038.968000", "154040.226000", "154041.482000", "154042.733000", "154044.014000", "154045.224000", "154046.475000", "154047.713000", "154048.985000", "154050.210000", "154051.493000", "154052.752000", "154054.016000", "154055.228000", "154056.485000", "154057.683000", "154058.994000", "154100.237000", "154101.473000", "154102.729000", "154103.994000", "154105.224000", "154106.478000", "154107.713000", "154108.972000", "154110.226000", "154111.508000", "154112.727000", "154113.996000", "154115.255000", "154116.496000", "154117.718000", "154118.988000", "154120.211000", "154121.483000", "154122.786000", "154123.988000", "154125.280000", "154126.476000", "154127.741000", "154128.978000", "154130.206000", "154131.485000", "154132.742000", "154133.996000", "154135.209000", "154136.525000", "154137.724000", "154138.962000", "154140.237000", "154141.480000", "154142.715000", "154143.950000", "154145.228000", "154146.464000", "154147.725000", "154148.964000", "154150.235000", "154151.460000", "154152.743000", "154154.003000", "154155.239000", "154156.478000", "154157.720000", "154158.971000", "154200.246000", "154201.472000", "154202.737000", "154203.959000", "154205.212000", "154206.476000", "154207.793000", "154209.003000", "154210.208000", "154211.474000", "154212.702000", "154214.036000", "154215.217000", "154216.564000", "154217.745000", "154218.963000", "154220.231000", "154221.460000", "154222.737000", "154223.984000", "154225.223000", "154226.488000", "154227.719000", "154229.008000", "154230.212000", "154231.479000", "154232.756000", "154234.007000", "154235.253000", "154236.463000", "154237.723000", "154238.966000", "154240.225000", "154241.464000", "154242.722000", "154243.968000", "154245.203000", "154246.488000", "154247.757000", "154249.011000", "154250.260000", "154251.473000", "154252.708000", "154253.975000", "154255.238000", "154256.464000", "154257.751000", "154258.977000", "154300.313000", "154301.547000", "154302.807000", "154303.974000", "154305.221000", "154306.492000", "154307.731000", "154308.989000", "154310.227000", "154311.463000", "154312.702000", "154313.970000", "154315.216000", "154316.472000", "154317.716000", "154318.979000", "154320.241000", "154321.482000", "154322.734000", "154323.996000", "154325.211000", "154326.458000", "154327.741000", "154328.963000", "154330.222000", "154331.480000", "154332.742000", "154333.971000", "154335.204000", "154336.452000", "154337.746000", "154338.997000", "154340.212000", "154341.481000", "154342.718000", "154344.039000", "154345.256000", "154346.484000", "154347.709000", "154348.981000", "154350.233000", "154351.528000", "154352.714000", "154353.951000", "154355.207000", "154356.478000", "154357.696000", "154358.995000", "154400.229000", "154401.491000", "154402.732000", "154403.971000", "154405.222000", "154406.465000", "154407.742000", "154408.973000", "154410.228000", "154411.522000", "154412.742000", "154413.971000", "154415.258000", "154416.472000", "154417.701000", "154418.973000", "154420.225000", "154421.503000", "154422.818000"],
      "InstanceCreationTime": ["153834.162000", "153835.224000", "153836.470000", "153837.696000", "153838.967000", "153840.207000", "153841.472000", "153842.704000", "153843.960000", "153845.215000", "153846.460000", "153847.735000", "153848.987000", "153850.234000", "153851.490000", "153852.708000", "153853.946000", "153855.192000", "153856.466000", "153857.716000", "153859.017000", "153900.239000", "153901.470000", "153902.723000", "153904.039000", "153905.214000", "153906.469000", "153907.733000", "153908.959000", "153910.210000", "153911.457000", "153912.707000", "153913.970000", "153915.202000", "153916.480000", "153917.705000", "153918.955000", "153920.218000", "153921.456000", "153922.748000", "153923.969000", "153925.190000", "153926.451000", "153927.738000", "153929.020000", "153930.218000", "153931.459000", "153932.733000", "153934.052000", "153935.220000", "153936.486000", "153937.745000", "153938.985000", "153940.239000", "153941.445000", "153942.757000", "153943.969000", "153945.216000", "153946.475000", "153947.705000", "153948.971000", "153950.208000", "153951.505000", "153952.712000", "153953.969000", "153955.221000", "153956.465000", "153957.710000", "153958.947000", "154000.212000", "154001.476000", "154002.709000", "154003.949000", "154005.228000", "154006.501000", "154007.718000", "154008.975000", "154010.309000", "154011.478000", "154012.704000", "154013.969000", "154015.213000", "154016.469000", "154017.704000", "154018.975000", "154020.274000", "154021.494000", "154022.728000", "154023.950000", "154025.213000", "154026.469000", "154027.695000", "154028.956000", "154030.225000", "154031.462000", "154032.728000", "154033.975000", "154035.228000", "154036.461000", "154037.730000", "154038.968000", "154040.226000", "154041.482000", "154042.733000", "154044.014000", "154045.224000", "154046.475000", "154047.713000", "154048.985000", "154050.210000", "154051.493000", "154052.752000", "154054.016000", "154055.228000", "154056.485000", "154057.683000", "154058.994000", "154100.237000", "154101.473000", "154102.729000", "154103.994000", "154105.224000", "154106.478000", "154107.713000", "154108.972000", "154110.226000", "154111.508000", "154112.727000", "154113.996000", "154115.255000", "154116.496000", "154117.718000", "154118.988000", "154120.211000", "154121.483000", "154122.786000", "154123.988000", "154125.280000", "154126.476000", "154127.741000", "154128.978000", "154130.206000", "154131.485000", "154132.742000", "154133.996000", "154135.209000", "154136.525000", "154137.724000", "154138.962000", "154140.237000", "154141.480000", "154142.715000", "154143.950000", "154145.228000", "154146.464000", "154147.725000", "154148.964000", "154150.235000", "154151.460000", "154152.743000", "154154.003000", "154155.239000", "154156.478000", "154157.720000", "154158.971000", "154200.246000", "154201.472000", "154202.737000", "154203.959000", "154205.212000", "154206.476000", "154207.793000", "154209.003000", "154210.208000", "154211.474000", "154212.702000", "154214.036000", "154215.217000", "154216.564000", "154217.745000", "154218.963000", "154220.231000", "154221.460000", "154222.737000", "154223.984000", "154225.223000", "154226.488000", "154227.719000", "154229.008000", "154230.212000", "154231.479000", "154232.756000", "154234.007000", "154235.253000", "154236.463000", "154237.723000", "154238.966000", "154240.225000", "154241.464000", "154242.722000", "154243.968000", "154245.203000", "154246.488000", "154247.757000", "154249.011000", "154250.260000", "154251.473000", "154252.708000", "154253.975000", "154255.238000", "154256.464000", "154257.751000", "154258.977000", "154300.313000", "154301.547000", "154302.807000", "154303.974000", "154305.221000", "154306.492000", "154307.731000", "154308.989000", "154310.227000", "154311.463000", "154312.702000", "154313.970000", "154315.216000", "154316.472000", "154317.716000", "154318.979000", "154320.241000", "154321.482000", "154322.734000", "154323.996000", "154325.211000", "154326.458000", "154327.741000", "154328.963000", "154330.222000", "154331.480000", "154332.742000", "154333.971000", "154335.204000", "154336.452000", "154337.746000", "154338.997000", "154340.212000", "154341.481000", "154342.718000", "154344.039000", "154345.256000", "154346.484000", "154347.709000", "154348.981000", "154350.233000", "154351.528000", "154352.714000", "154353.951000", "154355.207000", "154356.478000", "154357.696000", "154358.995000", "154400.229000", "154401.491000", "154402.732000", "154403.971000", "154405.222000", "154406.465000", "154407.742000", "154408.973000", "154410.228000", "154411.522000", "154412.742000", "154413.971000", "154415.258000", "154416.472000", "154417.701000", "154418.973000", "154420.225000", "154421.503000", "154422.818000"],
      "InstanceNumber": [1, 2, 3, 4, 5, 6, 7, 8, 9, 10, 11, 12, 13, 14, 15, 16, 17, 18, 19, 20, 21, 22, 23, 24, 25, 26, 27, 28, 29, 30, 31, 32, 33, 34, 35, 36, 37, 38, 39, 40, 41, 42, 43, 44, 45, 46, 47, 48, 49, 50, 51, 52, 53, 54, 55, 56, 57, 58, 59, 60, 61, 62, 63, 64, 65, 66, 67, 68, 69, 70, 71, 72, 73, 74, 75, 76, 77, 78, 79, 80, 81, 82, 83, 84, 85, 86, 87, 88, 89, 90, 91, 92, 93, 94, 95, 96, 97, 98, 99, 100, 101, 102, 103, 104, 105, 106, 107, 108, 109, 110, 111, 112, 113, 114, 115, 116, 117, 118, 119, 120, 121, 122, 123, 124, 125, 126, 127, 128, 129, 130, 131, 132, 133, 134, 135, 136, 137, 138, 139, 140, 141, 142, 143, 144, 145, 146, 147, 148, 149, 150, 151, 152, 153, 154, 155, 156, 157, 158, 159, 160, 161, 162, 163, 164, 165, 166, 167, 168, 169, 170, 171, 172, 173, 174, 175, 176, 177, 178, 179, 180, 181, 182, 183, 184, 185, 186, 187, 188, 189, 190, 191, 192, 193, 194, 195, 196, 197, 198, 199, 200, 201, 202, 203, 204, 205, 206, 207, 208, 209, 210, 211, 212, 213, 214, 215, 216, 217, 218, 219, 220, 221, 222, 223, 224, 225, 226, 227, 228, 229, 230, 231, 232, 233, 234, 235, 236, 237, 238, 239, 240, 241, 242, 243, 244, 245, 246, 247, 248, 249, 250, 251, 252, 253, 254, 255, 256, 257, 258, 259, 260, 261, 262, 263, 264, 265, 266, 267, 268, 269, 270, 271, 272, 273, 274, 275, 276, 277, 278, 279, 280],
      "LargestImagePixelValue": [1459, 1204, 1652, 1406, 1556, 1216, 1356, 1391, 1414, 1457, 1437, 1072, 1171, 1181, 1321, 1151, 1406, 1292, 1497, 1459, 1187, 1511, 1249, 1667, 1382, 1377, 1266, 1170, 1067, 1565, 1306, 1496, 1270, 1226, 1364, 1119, 1613, 1323, 1441, 1148, 1278, 1330, 1201, 1480, 1224, 1499, 1166, 1240, 1524, 1315, 1457, 1312, 1277, 1048, 1556, 1404, 1068, 1515, 1121, 1442, 1247, 1049, 1634, 1225, 1357, 1301, 1211, 1616, 1094, 1550, 1405, 1497, 1376, 1102, 1502, 1274, 1274, 1492, 1432, 1122, 1510, 1398, 1349, 1338, 1060, 1546, 1361, 1522, 1334, 1073, 1531, 1161, 1323, 1265, 1085, 1183, 1152, 1262, 1301, 1128, 1247, 1376, 1281, 1385, 1038, 1209, 1233, 1244, 1177, 1579, 1140, 1491, 1351, 1656, 1375, 1184, 1518, 1439, 1494, 1276, 1584, 1230, 1134, 1540, 1110, 1113, 1445, 1152, 1576, 1450, 1548, 1240, 1051, 1651, 1236, 1384, 1082, 1441, 1104, 1253, 1166, 1116, 1610, 1488, 1211, 1485, 1244, 1305, 1064, 1180, 1368, 1044, 1312, 1252, 1699, 1339, 1375, 1428, 1346, 1133, 1403, 1102, 1012, 1134, 1245, 1276, 1348, 1090, 1626, 1433, 1066, 1498, 1408, 1364, 1511, 1121, 1052, 1350, 1296, 1048, 1472, 1349, 1496, 1380, 1611, 1366, 1332, 1204, 1423, 1527, 1192, 1126, 1396, 1073, 1290, 1130, 1032, 1128, 1286, 1325, 1274, 1312, 1594, 1312, 1478, 1383, 1165, 1158, 1362, 1459, 1268, 1516, 1303, 1105, 1583, 1302, 1525, 1373, 1516, 1112, 1695, 1125, 1121, 1200, 1086, 1295, 1207, 1375, 1440, 1119, 1517, 1196, 1437, 1151, 1298, 1068, 1344, 1326, 1296, 1390, 1110, 1796, 1384, 1492, 1439, 1354, 1445, 1242, 1629, 1217, 1648, 1260, 1435, 1111, 1103, 1341, 1066, 1669, 1237, 1477, 1430, 1093, 1731, 1420, 1455, 1436, 1094, 1605, 1191, 1326, 1373, 1288, 1310, 1096, 1407, 1102, 1618, 1293, 1379, 1388],
      "WindowCenter": [423.0, 419.0, 422.0, 420.0, 421.0, 419.0, 419.0, 419.0, 419.0, 419.0, 418.0, 416.0, 418.0, 418.0, 420.0, 420.0, 421.0, 420.0, 421.0, 421.0, 419.0, 421.0, 420.0, 422.0, 420.0, 419.0, 418.0, 418.0, 417.0, 421.0, 420.0, 420.0, 419.0, 418.0, 419.0, 418.0, 421.0, 419.0, 420.0, 418.0, 419.0, 419.0, 418.0, 420.0, 418.0, 420.0, 418.0, 419.0, 421.0, 420.0, 420.0, 419.0, 419.0, 417.0, 421.0, 420.0, 417.0, 421.0, 419.0, 420.0, 419.0, 417.0, 421.0, 418.0, 420.0, 420.0, 419.0, 421.0, 418.0, 421.0, 420.0, 420.0, 420.0, 418.0, 421.0, 419.0, 419.0, 421.0, 420.0, 418.0, 420.0, 420.0, 420.0, 420.0, 417.0, 420.0, 419.0, 420.0, 419.0, 417.0, 420.0, 418.0, 419.0, 419.0, 417.0, 418.0, 418.0, 419.0, 420.0, 418.0, 419.0, 420.0, 420.0, 420.0, 418.0, 419.0, 418.0, 419.0, 418.0, 421.0, 419.0, 421.0, 420.0, 421.0, 420.0, 419.0, 420.0, 420.0, 420.0, 419.0, 420.0, 419.0, 418.0, 421.0, 418.0, 419.0, 422.0, 419.0, 421.0, 420.0, 420.0, 418.0, 417.0, 421.0, 418.0, 419.0, 417.0, 420.0, 418.0, 419.0, 418.0, 419.0, 422.0, 421.0, 420.0, 421.0, 419.0, 419.0, 417.0, 419.0, 420.0, 418.0, 420.0, 420.0, 422.0, 420.0, 419.0, 419.0, 418.0, 416.0, 419.0, 417.0, 417.0, 418.0, 419.0, 419.0, 420.0, 418.0, 422.0, 421.0, 418.0, 421.0, 420.0, 420.0, 421.0, 418.0, 417.0, 420.0, 420.0, 418.0, 421.0, 421.0, 422.0, 421.0, 421.0, 419.0, 419.0, 418.0, 419.0, 420.0, 418.0, 417.0, 418.0, 415.0, 418.0, 417.0, 417.0, 418.0, 420.0, 420.0, 420.0, 421.0, 422.0, 421.0, 421.0, 421.0, 419.0, 419.0, 421.0, 421.0, 420.0, 421.0, 419.0, 418.0, 421.0, 420.0, 420.0, 419.0, 419.0, 416.0, 420.0, 417.0, 417.0, 419.0, 419.0, 420.0, 420.0, 421.0, 420.0, 418.0, 421.0, 418.0, 420.0, 417.0, 419.0, 417.0, 420.0, 420.0, 420.0, 421.0, 419.0, 423.0, 421.0, 422.0, 421.0, 419.0, 420.0, 419.0, 421.0, 419.0, 420.0, 418.0, 420.0, 417.0, 417.0, 420.0, 418.0, 422.0, 419.0, 421.0, 421.0, 419.0, 423.0, 422.0, 421.0, 421.0, 418.0, 422.0, 419.0, 419.0, 420.0, 419.0, 419.0, 417.0, 421.0, 419.0, 423.0, 421.0, 421.0, 420.0],
      "WindowWidth": [892.0, 885.0, 889.0, 886.0, 886.0, 884.0, 884.0, 884.0, 883.0, 883.0, 882.0, 879.0, 882.0, 883.0, 885.0, 886.0, 886.0, 885.0, 887.0, 886.0, 884.0, 887.0, 885.0, 888.0, 885.0, 884.0, 882.0, 882.0, 882.0, 887.0, 886.0, 886.0, 885.0, 883.0, 884.0, 882.0, 886.0, 884.0, 884.0, 883.0, 884.0, 885.0, 883.0, 885.0, 882.0, 885.0, 883.0, 884.0, 887.0, 885.0, 886.0, 884.0, 883.0, 881.0, 887.0, 885.0, 882.0, 887.0, 883.0, 886.0, 884.0, 881.0, 886.0, 883.0, 884.0, 886.0, 884.0, 887.0, 883.0, 887.0, 885.0, 885.0, 885.0, 882.0, 887.0, 885.0, 884.0, 887.0, 886.0, 882.0, 885.0, 885.0, 885.0, 885.0, 881.0, 885.0, 883.0, 884.0, 883.0, 880.0, 885.0, 882.0, 883.0, 884.0, 881.0, 882.0, 883.0, 884.0, 886.0, 882.0, 885.0, 886.0, 886.0, 885.0, 882.0, 884.0, 883.0, 884.0, 883.0, 886.0, 884.0, 887.0, 885.0, 887.0, 885.0, 884.0, 886.0, 885.0, 884.0, 883.0, 885.0, 883.0, 882.0, 887.0, 884.0, 885.0, 889.0, 885.0, 888.0, 886.0, 886.0, 883.0, 880.0, 886.0, 882.0, 884.0, 880.0, 885.0, 882.0, 884.0, 883.0, 885.0, 889.0, 888.0, 885.0, 887.0, 884.0, 884.0, 881.0, 883.0, 885.0, 882.0, 885.0, 886.0, 889.0, 885.0, 885.0, 884.0, 882.0, 879.0, 883.0, 881.0, 880.0, 883.0, 884.0, 885.0, 885.0, 883.0, 889.0, 887.0, 883.0, 887.0, 886.0, 885.0, 887.0, 883.0, 882.0, 886.0, 886.0, 882.0, 887.0, 887.0, 888.0, 887.0, 887.0, 884.0, 883.0, 882.0, 883.0, 884.0, 882.0, 880.0, 882.0, 878.0, 882.0, 881.0, 881.0, 883.0, 885.0, 886.0, 886.0, 887.0, 888.0, 887.0, 888.0, 887.0, 884.0, 883.0, 887.0, 887.0, 885.0, 886.0, 885.0, 883.0, 887.0, 885.0, 886.0, 883.0, 883.0, 879.0, 885.0, 881.0, 881.0, 884.0, 884.0, 886.0, 886.0, 886.0, 886.0, 883.0, 886.0, 883.0, 885.0, 881.0, 883.0, 881.0, 885.0, 886.0, 886.0, 887.0, 885.0, 891.0, 887.0, 888.0, 887.0, 884.0, 885.0, 883.0, 886.0, 883.0, 885.0, 882.0, 885.0, 881.0, 882.0, 885.0, 883.0, 889.0, 884.0, 887.0, 887.0, 884.0, 890.0, 888.0, 887.0, 887.0, 882.0, 888.0, 884.0, 885.0, 885.0, 883.0, 883.0, 881.0, 886.0, 885.0, 891.0, 887.0, 887.0, 886.0]
    },
    "slices": {}
  }
}