{
  "AcquisitionMatrixPE": 96,
  "AcquisitionNumber": 1,
  "AcquisitionTime": "16:05:5.455000",
  "BandwidthPerPixelPhaseEncode": 18.939,
  "BaseResolution": 96,
  "BodyPartExamined": "BRAIN",
  "ConsistencyInfo": "N4_VE11C_LATEST_20160120",
  "ConversionSoftware": "dcm2niix",
  "ConversionSoftwareVersion": "v1.0.20170923 (OpenJPEG build) GCC6.3.0",
  "DerivedVendorReportedEchoSpacing": 0.000550011,
  "DeviceSerialNumber": "66112",
  "DwellTime": 2.3e-06,
  "EchoTime": 0.033,
  "EchoTrainLength": 96,
  "EffectiveEchoSpacing": 0.000550011,
  "FlipAngle": 64,
  "ImageType": [
    "ORIGINAL",
    "PRIMARY",
    "FMRI",
    "NONE",
    "ND",
    "NORM",
    "MOSAIC"
],
  "InstitutionAddress": "Maynard_3_Hanover_NH_US_03755",
  "InstitutionName": "Dartmouth_College_-_PBS",
  "MagneticFieldStrength": 3,
  "Manufacturer": "Siemens",
  "ManufacturersModelName": "Prisma",
  "Modality": "MR",
  "MultibandAccelerationFactor": 4,
  "PartialFourier": 1,
  "PercentPhaseFOV": 100,
  "PhaseEncodingDirection": "j-",
  "PhaseEncodingSteps": 96,
  "PhaseResolution": 1,
  "ProcedureStepDescription": "Gobbini_Matteo_1017_famface-angles",
  "ProtocolName": "func_run-08_task-str1back",
  "PulseSequenceDetails": "%SiemensSeq%_ep2d_bold",
  "ReceiveCoilActiveElements": "HEA;HEP",
  "ReceiveCoilName": "Head_32",
  "ReconMatrixPE": 96,
  "RepetitionTime": 1.25,
  "ScanOptions": "FS",
  "ScanningSequence": "EP",
  "SequenceName": "_epfid2d1_96",
  "SequenceVariant": "SK",
  "SeriesDescription": "func_run-08_task-str1back",
  "SliceTiming": [0.88, 0, 0.615, 0.0875, 0.7025, 0.175, 0.79, 0.3525, 0.9675, 0.44, 1.055, 0.5275, 1.1425, 0.265, 0.88, 0, 0.615, 0.0875, 0.7025, 0.175, 0.79, 0.3525, 0.9675, 0.44, 1.055, 0.5275, 1.1425, 0.265, 0.88, 0, 0.615, 0.0875, 0.7025, 0.175, 0.79, 0.3525, 0.9675, 0.44, 1.055, 0.5275, 1.1425, 0.265, 0.88, 0, 0.615, 0.0875, 0.7025, 0.175, 0.79, 0.3525, 0.9675, 0.44, 1.055, 0.5275, 1.1425, 0.265],
  "SoftwareVersions": "syngo_MR_E11",
  "StationName": "AWP66112",
  "TaskName": "str1back",
  "TotalReadoutTime": 0.0522511,
  "dcmmeta_affine": [
    [-2.498541831970215, -0.05015570670366287, -0.06908868998289108, 122.44061279296875],
    [-0.0549558587372303, 2.4930810928344727, 0.17755819857120514, -100.65892791748047],
    [-0.06533525884151459, -0.17897336184978485, 2.492729425430298, -65.88418579101562],
    [0.0, 0.0, 0.0, 1.0]
],
  "dcmmeta_reorient_transform": [
    [0.0, -1.0, 0.0, 95.0],
    [1.0, 0.0, 0.0, 0.0],
    [0.0, 0.0, 1.0, 0.0],
    [0.0, 0.0, 0.0, 1.0]
],
  "dcmmeta_shape": [96, 96, 56, 280],
  "dcmmeta_slice_dim": 2,
  "dcmmeta_version": 0.6,
  "global": {
    "const": {
      "AccessionNumber": "A000394",
      "AcquisitionMatrix": [96, 0, 0, 96],
      "AngioFlag": "N",
      "BitsAllocated": 16,
      "BitsStored": 12,
      "BodyPartExamined": "BRAIN",
      "Columns": 768,
      "EchoNumbers": 1,
      "EchoTime": 33.0,
      "EchoTrainLength": 96,
      "FlipAngle": 64.0,
      "HighBit": 11,
      "ImageOrientationPatient": [0.99941672252964, 0.02198234304115, -0.026134102673, -0.0200622834263, 0.99723240547613, 0.07158934454241],
      "ImagePositionPatient": [-940.3335507977, -992.32415502129, -121.06906191871],
      "ImageType": [
        "ORIGINAL",
        "PRIMARY",
        "FMRI",
        "NONE",
        "ND",
        "NORM",
        "MOSAIC"
],
      "ImagedNucleus": "1H",
      "ImagingFrequency": 123.252357,
      "InPlanePhaseEncodingDirection": "COL",
      "MRAcquisitionType": "2D",
      "MagneticFieldStrength": 3.0,
      "Manufacturer": "SIEMENS",
      "ManufacturerModelName": "Prisma",
      "Modality": "MR",
      "NumberOfAverages": 1.0,
      "NumberOfPhaseEncodingSteps": 96,
      "PercentPhaseFieldOfView": 100.0,
      "PercentSampling": 100.0,
      "PerformedProcedureStepStartTime": "150606.464000",
      "PhotometricInterpretation": "MONOCHROME2",
      "PixelBandwidth": 2265.0,
      "PixelRepresentation": 0,
      "PixelSpacing": [2.5, 2.5],
      "PositionReferenceIndicator": "",
      "ProtocolName": "func_run-08_task-str1back",
      "RepetitionTime": 1250.0,
      "Rows": 768,
      "SAR": 0.05247607974312,
      "SamplesPerPixel": 1,
      "ScanOptions": "FS",
      "ScanningSequence": "EP",
      "SequenceName": "*epfid2d1_96",
      "SequenceVariant": "SK",
      "SeriesDescription": "func_run-08_task-str1back",
      "SeriesNumber": 60,
      "SeriesTime": "160507.144000",
      "SliceLocation": -76.225414082247,
      "SliceThickness": 2.5,
      "SmallestImagePixelValue": 0,
      "SoftwareVersions": "syngo MR E11",
      "SpacingBetweenSlices": 2.4999999999156,
      "SpecificCharacterSet": "ISO_IR 100",
      "StudyID": "2",
      "StudyTime": "150606.404000",
      "TransmitCoilName": "Body",
      "VariableFlipAngleFlag": "N",
      "WindowCenterWidthExplanation": "Algo1",
      "dBdt": 0.0},
    "slices": {}
  },
  "time": {
    "samples": {
      "AcquisitionNumber": [1, 2, 3, 4, 5, 6, 7, 8, 9, 10, 11, 12, 13, 14, 15, 16, 17, 18, 19, 20, 21, 22, 23, 24, 25, 26, 27, 28, 29, 30, 31, 32, 33, 34, 35, 36, 37, 38, 39, 40, 41, 42, 43, 44, 45, 46, 47, 48, 49, 50, 51, 52, 53, 54, 55, 56, 57, 58, 59, 60, 61, 62, 63, 64, 65, 66, 67, 68, 69, 70, 71, 72, 73, 74, 75, 76, 77, 78, 79, 80, 81, 82, 83, 84, 85, 86, 87, 88, 89, 90, 91, 92, 93, 94, 95, 96, 97, 98, 99, 100, 101, 102, 103, 104, 105, 106, 107, 108, 109, 110, 111, 112, 113, 114, 115, 116, 117, 118, 119, 120, 121, 122, 123, 124, 125, 126, 127, 128, 129, 130, 131, 132, 133, 134, 135, 136, 137, 138, 139, 140, 141, 142, 143, 144, 145, 146, 147, 148, 149, 150, 151, 152, 153, 154, 155, 156, 157, 158, 159, 160, 161, 162, 163, 164, 165, 166, 167, 168, 169, 170, 171, 172, 173, 174, 175, 176, 177, 178, 179, 180, 181, 182, 183, 184, 185, 186, 187, 188, 189, 190, 191, 192, 193, 194, 195, 196, 197, 198, 199, 200, 201, 202, 203, 204, 205, 206, 207, 208, 209, 210, 211, 212, 213, 214, 215, 216, 217, 218, 219, 220, 221, 222, 223, 224, 225, 226, 227, 228, 229, 230, 231, 232, 233, 234, 235, 236, 237, 238, 239, 240, 241, 242, 243, 244, 245, 246, 247, 248, 249, 250, 251, 252, 253, 254, 255, 256, 257, 258, 259, 260, 261, 262, 263, 264, 265, 266, 267, 268, 269, 270, 271, 272, 273, 274, 275, 276, 277, 278, 279, 280],
      "AcquisitionTime": ["160505.455000", "160506.705000", "160507.955000", "160509.205000", "160510.455000", "160511.705000", "160512.955000", "160514.205000", "160515.455000", "160516.705000", "160517.955000", "160519.205000", "160520.455000", "160521.705000", "160522.955000", "160524.205000", "160525.455000", "160526.705000", "160527.955000", "160529.205000", "160530.455000", "160531.705000", "160532.955000", "160534.205000", "160535.455000", "160536.705000", "160537.955000", "160539.205000", "160540.455000", "160541.705000", "160542.955000", "160544.205000", "160545.455000", "160546.705000", "160547.955000", "160549.205000", "160550.455000", "160551.705000", "160552.955000", "160554.205000", "160555.455000", "160556.705000", "160557.955000", "160559.205000", "160600.455000", "160601.705000", "160602.955000", "160604.205000", "160605.455000", "160606.705000", "160607.955000", "160609.205000", "160610.455000", "160611.705000", "160612.955000", "160614.205000", "160615.455000", "160616.705000", "160617.955000", "160619.205000", "160620.455000", "160621.705000", "160622.955000", "160624.205000", "160625.455000", "160626.705000", "160627.955000", "160629.205000", "160630.455000", "160631.705000", "160632.955000", "160634.205000", "160635.455000", "160636.705000", "160637.955000", "160639.205000", "160640.455000", "160641.705000", "160642.955000", "160644.205000", "160645.455000", "160646.705000", "160647.955000", "160649.205000", "160650.455000", "160651.705000", "160652.955000", "160654.205000", "160655.455000", "160656.705000", "160657.955000", "160659.205000", "160700.455000", "160701.705000", "160702.955000", "160704.205000", "160705.455000", "160706.705000", "160707.955000", "160709.205000", "160710.455000", "160711.705000", "160712.955000", "160714.205000", "160715.455000", "160716.705000", "160717.955000", "160719.205000", "160720.455000", "160721.705000", "160722.955000", "160724.205000", "160725.455000", "160726.705000", "160727.955000", "160729.205000", "160730.455000", "160731.705000", "160732.955000", "160734.205000", "160735.455000", "160736.705000", "160737.955000", "160739.205000", "160740.455000", "160741.705000", "160742.955000", "160744.205000", "160745.455000", "160746.705000", "160747.955000", "160749.205000", "160750.455000", "160751.705000", "160752.955000", "160754.205000", "160755.455000", "160756.705000", "160757.955000", "160759.205000", "160800.455000", "160801.705000", "160802.955000", "160804.205000", "160805.455000", "160806.705000", "160807.955000", "160809.205000", "160810.455000", "160811.705000", "160812.955000", "160814.205000", "160815.455000", "160816.705000", "160817.955000", "160819.205000", "160820.455000", "160821.705000", "160822.955000", "160824.205000", "160825.455000", "160826.705000", "160827.955000", "160829.205000", "160830.455000", "160831.705000", "160832.955000", "160834.205000", "160835.455000", "160836.705000", "160837.955000", "160839.205000", "160840.455000", "160841.705000", "160842.955000", "160844.205000", "160845.455000", "160846.705000", "160847.955000", "160849.205000", "160850.455000", "160851.705000", "160852.955000", "160854.205000", "160855.455000", "160856.705000", "160857.955000", "160859.205000", "160900.455000", "160901.705000", "160902.955000", "160904.205000", "160905.455000", "160906.705000", "160907.955000", "160909.205000", "160910.455000", "160911.705000", "160912.955000", "160914.205000", "160915.455000", "160916.705000", "160917.955000", "160919.205000", "160920.455000", "160921.705000", "160922.955000", "160924.205000", "160925.455000", "160926.705000", "160927.955000", "160929.205000", "160930.455000", "160931.705000", "160932.955000", "160934.205000", "160935.455000", "160936.705000", "160937.955000", "160939.205000", "160940.455000", "160941.705000", "160942.955000", "160944.205000", "160945.455000", "160946.705000", "160947.955000", "160949.205000", "160950.455000", "160951.705000", "160952.955000", "160954.205000", "160955.455000", "160956.705000", "160957.955000", "160959.205000", "161000.455000", "161001.705000", "161002.955000", "161004.205000", "161005.455000", "161006.705000", "161007.955000", "161009.205000", "161010.455000", "161011.705000", "161012.955000", "161014.205000", "161015.455000", "161016.705000", "161017.955000", "161019.205000", "161020.455000", "161021.705000", "161022.955000", "161024.205000", "161025.455000", "161026.705000", "161027.955000", "161029.205000", "161030.455000", "161031.705000", "161032.955000", "161034.205000", "161035.455000", "161036.705000", "161037.955000", "161039.205000", "161040.455000", "161041.705000", "161042.955000", "161044.205000", "161045.455000", "161046.705000", "161047.955000", "161049.205000", "161050.455000", "161051.705000", "161052.955000", "161054.205000"],
      "ContentTime": ["160507.148000", "160508.210000", "160509.440000", "160510.732000", "160511.970000", "160513.158000", "160514.412000", "160515.700000", "160516.929000", "160518.240000", "160519.450000", "160520.696000", "160521.938000", "160523.225000", "160524.433000", "160525.680000", "160526.921000", "160528.175000", "160529.436000", "160530.686000", "160531.956000", "160533.207000", "160534.448000", "160535.688000", "160536.925000", "160538.188000", "160539.445000", "160540.692000", "160541.939000", "160543.184000", "160544.444000", "160545.684000", "160546.948000", "160548.182000", "160549.421000", "160550.677000", "160551.931000", "160553.179000", "160554.522000", "160555.682000", "160556.961000", "160558.159000", "160559.452000", "160600.675000", "160601.902000", "160603.183000", "160604.449000", "160605.718000", "160606.931000", "160608.224000", "160609.431000", "160610.668000", "160611.955000", "160613.188000", "160614.461000", "160615.689000", "160616.948000", "160618.193000", "160619.449000", "160620.701000", "160621.913000", "160623.183000", "160624.461000", "160625.668000", "160626.925000", "160628.197000", "160629.444000", "160630.668000", "160631.960000", "160633.189000", "160634.423000", "160635.662000", "160636.925000", "160638.173000", "160639.430000", "160640.711000", "160641.927000", "160643.189000", "160644.427000", "160645.692000", "160646.913000", "160648.178000", "160649.427000", "160650.674000", "160651.946000", "160653.170000", "160654.448000", "160655.662000", "160656.972000", "160658.185000", "160659.437000", "160700.682000", "160701.971000", "160703.228000", "160704.419000", "160705.697000", "160706.916000", "160708.236000", "160709.419000", "160710.689000", "160711.982000", "160713.194000", "160714.439000", "160715.701000", "160716.933000", "160718.207000", "160719.413000", "160720.695000", "160721.950000", "160723.195000", "160724.456000", "160725.693000", "160726.948000", "160728.194000", "160729.428000", "160730.704000", "160731.956000", "160733.195000", "160734.439000", "160735.699000", "160736.954000", "160738.194000", "160739.464000", "160740.790000", "160741.968000", "160743.227000", "160744.436000", "160745.693000", "160747.032000", "160748.191000", "160749.496000", "160750.681000", "160751.953000", "160753.206000", "160754.449000", "160755.701000", "160756.947000", "160758.163000", "160759.465000", "160800.694000", "160801.964000", "160803.189000", "160804.431000", "160805.693000", "160806.943000", "160808.195000", "160809.454000", "160810.727000", "160811.945000", "160813.191000", "160814.444000", "160815.696000", "160817.021000", "160818.198000", "160819.455000", "160820.716000", "160821.942000", "160823.201000", "160824.461000", "160825.687000", "160826.931000", "160828.230000", "160829.441000", "160830.653000", "160831.949000", "160833.183000", "160834.440000", "160835.675000", "160836.951000", "160838.207000", "160839.450000", "160840.699000", "160841.930000", "160843.186000", "160844.450000", "160845.684000", "160846.959000", "160848.198000", "160849.431000", "160850.681000", "160851.970000", "160853.186000", "160854.439000", "160855.698000", "160857.007000", "160858.208000", "160859.448000", "160900.691000", "160901.945000", "160903.211000", "160904.455000", "160905.667000", "160906.928000", "160908.170000", "160909.437000", "160910.713000", "160911.935000", "160913.175000", "160914.442000", "160915.700000", "160916.953000", "160918.159000", "160919.441000", "160920.683000", "160921.926000", "160923.135000", "160924.453000", "160925.733000", "160926.922000", "160928.192000", "160929.449000", "160930.705000", "160931.949000", "160933.191000", "160934.446000", "160935.668000", "160936.953000", "160938.195000", "160939.452000", "160940.683000", "160941.940000", "160943.220000", "160944.432000", "160945.687000", "160946.942000", "160948.224000", "160949.437000", "160950.688000", "160951.932000", "160953.183000", "160954.409000", "160955.688000", "160956.949000", "160958.199000", "160959.449000", "161000.696000", "161001.944000", "161003.200000", "161004.414000", "161005.675000", "161006.945000", "161008.207000", "161009.441000", "161010.711000", "161011.925000", "161013.179000", "161014.444000", "161015.701000", "161016.961000", "161018.225000", "161019.453000", "161020.700000", "161021.931000", "161023.158000", "161024.453000", "161025.723000", "161026.979000", "161028.158000", "161029.442000", "161030.668000", "161031.921000", "161033.357000", "161034.429000", "161035.678000", "161036.938000", "161038.187000", "161039.440000", "161040.688000", "161041.972000", "161043.190000", "161044.452000", "161045.695000", "161046.948000", "161048.186000", "161049.426000", "161050.682000", "161051.933000", "161053.191000", "161054.440000", "161055.717000"],
      "InstanceCreationTime": ["160507.148000", "160508.210000", "160509.440000", "160510.732000", "160511.970000", "160513.158000", "160514.412000", "160515.700000", "160516.929000", "160518.240000", "160519.450000", "160520.696000", "160521.938000", "160523.225000", "160524.433000", "160525.680000", "160526.921000", "160528.175000", "160529.436000", "160530.686000", "160531.956000", "160533.207000", "160534.448000", "160535.688000", "160536.925000", "160538.188000", "160539.445000", "160540.692000", "160541.939000", "160543.184000", "160544.444000", "160545.684000", "160546.948000", "160548.182000", "160549.421000", "160550.677000", "160551.931000", "160553.179000", "160554.522000", "160555.682000", "160556.961000", "160558.159000", "160559.452000", "160600.675000", "160601.902000", "160603.183000", "160604.449000", "160605.718000", "160606.931000", "160608.224000", "160609.431000", "160610.668000", "160611.955000", "160613.188000", "160614.461000", "160615.689000", "160616.948000", "160618.193000", "160619.449000", "160620.701000", "160621.913000", "160623.183000", "160624.461000", "160625.668000", "160626.925000", "160628.197000", "160629.444000", "160630.668000", "160631.960000", "160633.189000", "160634.423000", "160635.662000", "160636.925000", "160638.173000", "160639.430000", "160640.711000", "160641.927000", "160643.189000", "160644.427000", "160645.692000", "160646.913000", "160648.178000", "160649.427000", "160650.674000", "160651.946000", "160653.170000", "160654.448000", "160655.662000", "160656.972000", "160658.185000", "160659.437000", "160700.682000", "160701.971000", "160703.228000", "160704.419000", "160705.697000", "160706.916000", "160708.236000", "160709.419000", "160710.689000", "160711.982000", "160713.194000", "160714.439000", "160715.701000", "160716.933000", "160718.207000", "160719.413000", "160720.695000", "160721.950000", "160723.195000", "160724.456000", "160725.693000", "160726.948000", "160728.194000", "160729.428000", "160730.704000", "160731.956000", "160733.195000", "160734.439000", "160735.699000", "160736.954000", "160738.194000", "160739.464000", "160740.790000", "160741.968000", "160743.227000", "160744.436000", "160745.693000", "160747.032000", "160748.191000", "160749.496000", "160750.681000", "160751.953000", "160753.206000", "160754.449000", "160755.701000", "160756.947000", "160758.163000", "160759.465000", "160800.694000", "160801.964000", "160803.189000", "160804.431000", "160805.693000", "160806.943000", "160808.195000", "160809.454000", "160810.727000", "160811.945000", "160813.191000", "160814.444000", "160815.696000", "160817.021000", "160818.198000", "160819.455000", "160820.716000", "160821.942000", "160823.201000", "160824.461000", "160825.687000", "160826.931000", "160828.230000", "160829.441000", "160830.653000", "160831.949000", "160833.183000", "160834.440000", "160835.675000", "160836.951000", "160838.207000", "160839.450000", "160840.699000", "160841.930000", "160843.186000", "160844.450000", "160845.684000", "160846.959000", "160848.198000", "160849.431000", "160850.681000", "160851.970000", "160853.186000", "160854.439000", "160855.698000", "160857.007000", "160858.208000", "160859.448000", "160900.691000", "160901.945000", "160903.211000", "160904.455000", "160905.667000", "160906.928000", "160908.170000", "160909.437000", "160910.713000", "160911.935000", "160913.175000", "160914.442000", "160915.700000", "160916.953000", "160918.159000", "160919.441000", "160920.683000", "160921.926000", "160923.135000", "160924.453000", "160925.733000", "160926.922000", "160928.192000", "160929.449000", "160930.705000", "160931.949000", "160933.191000", "160934.446000", "160935.668000", "160936.953000", "160938.195000", "160939.452000", "160940.683000", "160941.940000", "160943.220000", "160944.432000", "160945.687000", "160946.942000", "160948.224000", "160949.437000", "160950.688000", "160951.932000", "160953.183000", "160954.409000", "160955.688000", "160956.949000", "160958.199000", "160959.449000", "161000.696000", "161001.944000", "161003.200000", "161004.414000", "161005.675000", "161006.945000", "161008.207000", "161009.441000", "161010.711000", "161011.925000", "161013.179000", "161014.444000", "161015.701000", "161016.961000", "161018.225000", "161019.453000", "161020.700000", "161021.931000", "161023.158000", "161024.453000", "161025.723000", "161026.979000", "161028.158000", "161029.442000", "161030.668000", "161031.921000", "161033.357000", "161034.429000", "161035.678000", "161036.938000", "161038.187000", "161039.440000", "161040.688000", "161041.972000", "161043.190000", "161044.452000", "161045.695000", "161046.948000", "161048.186000", "161049.426000", "161050.682000", "161051.933000", "161053.191000", "161054.440000", "161055.717000"],
      "InstanceNumber": [1, 2, 3, 4, 5, 6, 7, 8, 9, 10, 11, 12, 13, 14, 15, 16, 17, 18, 19, 20, 21, 22, 23, 24, 25, 26, 27, 28, 29, 30, 31, 32, 33, 34, 35, 36, 37, 38, 39, 40, 41, 42, 43, 44, 45, 46, 47, 48, 49, 50, 51, 52, 53, 54, 55, 56, 57, 58, 59, 60, 61, 62, 63, 64, 65, 66, 67, 68, 69, 70, 71, 72, 73, 74, 75, 76, 77, 78, 79, 80, 81, 82, 83, 84, 85, 86, 87, 88, 89, 90, 91, 92, 93, 94, 95, 96, 97, 98, 99, 100, 101, 102, 103, 104, 105, 106, 107, 108, 109, 110, 111, 112, 113, 114, 115, 116, 117, 118, 119, 120, 121, 122, 123, 124, 125, 126, 127, 128, 129, 130, 131, 132, 133, 134, 135, 136, 137, 138, 139, 140, 141, 142, 143, 144, 145, 146, 147, 148, 149, 150, 151, 152, 153, 154, 155, 156, 157, 158, 159, 160, 161, 162, 163, 164, 165, 166, 167, 168, 169, 170, 171, 172, 173, 174, 175, 176, 177, 178, 179, 180, 181, 182, 183, 184, 185, 186, 187, 188, 189, 190, 191, 192, 193, 194, 195, 196, 197, 198, 199, 200, 201, 202, 203, 204, 205, 206, 207, 208, 209, 210, 211, 212, 213, 214, 215, 216, 217, 218, 219, 220, 221, 222, 223, 224, 225, 226, 227, 228, 229, 230, 231, 232, 233, 234, 235, 236, 237, 238, 239, 240, 241, 242, 243, 244, 245, 246, 247, 248, 249, 250, 251, 252, 253, 254, 255, 256, 257, 258, 259, 260, 261, 262, 263, 264, 265, 266, 267, 268, 269, 270, 271, 272, 273, 274, 275, 276, 277, 278, 279, 280],
      "LargestImagePixelValue": [1170, 1573, 1078, 1655, 1118, 1441, 1345, 1162, 1534, 1115, 1434, 1375, 1208, 1598, 1111, 1305, 1223, 1146, 1061, 1645, 1075, 1571, 1274, 1234, 1517, 1035, 1319, 1114, 1076, 1625, 1117, 1137, 1455, 1053, 1415, 1063, 1390, 1218, 1328, 1075, 1434, 1149, 1467, 1086, 1704, 1156, 1383, 1246, 1057, 1492, 1135, 1671, 1105, 1549, 1366, 1432, 1093, 1407, 1109, 1320, 1138, 1253, 1269, 1599, 1085, 1234, 1499, 1348, 1573, 1363, 1186, 1431, 1425, 1333, 1013, 1335, 1146, 1074, 1563, 1178, 1449, 1460, 1138, 1123, 1437, 1066, 1417, 1128, 1283, 1236, 1329, 1085, 1456, 1096, 1528, 1259, 1423, 1161, 1113, 1245, 1010, 1169, 1121, 1051, 1572, 1067, 1393, 1507, 1412, 1451, 1056, 1463, 1055, 1315, 1128, 1248, 1363, 1591, 1071, 1496, 1105, 1240, 1279, 1073, 1447, 1126, 1642, 1127, 1068, 1450, 1186, 1397, 1400, 1134, 1612, 1139, 1446, 1079, 1483, 1064, 1182, 1517, 1056, 1375, 1089, 1518, 1354, 1358, 1468, 1441, 1369, 1071, 1335, 1323, 1302, 1067, 1156, 1278, 1211, 1556, 1171, 1076, 1658, 1085, 1356, 1048, 1537, 1100, 1189, 1343, 1565, 1303, 1336, 1595, 1401, 1300, 1082, 1651, 1081, 1111, 1249, 1028, 1541, 1228, 1422, 1210, 1338, 1370, 1296, 1101, 1495, 1083, 1326, 1120, 1087, 1436, 1053, 1333, 1187, 1508, 1455, 1483, 1234, 1308, 1106, 1049, 1144, 1319, 958, 1663, 1208, 1260, 1518, 1123, 1422, 1154, 1102, 1336, 1062, 1185, 1183, 1280, 1210, 1501, 1180, 1440, 1216, 1207, 1419, 1058, 1669, 1096, 1286, 1431, 1148, 1576, 1159, 1334, 1333, 1101, 1109, 1127, 1105, 1262, 1187, 1277, 1261, 1393, 1118, 1381, 1026, 1457, 1181, 1515, 1276, 1244, 1119, 1212, 1114, 1145, 1309, 1582, 1545, 1111, 1484, 1171, 1169, 1494, 1080, 1591, 1145, 1640, 1321, 1261, 1262, 1027, 1397, 1232, 1362, 1292],
      "WindowCenter": [421.0, 423.0, 419.0, 423.0, 419.0, 422.0, 420.0, 419.0, 421.0, 418.0, 420.0, 420.0, 418.0, 421.0, 418.0, 419.0, 418.0, 419.0, 418.0, 423.0, 419.0, 423.0, 420.0, 420.0, 421.0, 417.0, 420.0, 419.0, 418.0, 422.0, 418.0, 418.0, 421.0, 418.0, 420.0, 417.0, 420.0, 419.0, 420.0, 418.0, 420.0, 418.0, 420.0, 418.0, 422.0, 419.0, 421.0, 419.0, 418.0, 422.0, 419.0, 423.0, 419.0, 422.0, 420.0, 421.0, 418.0, 420.0, 418.0, 420.0, 418.0, 420.0, 420.0, 422.0, 419.0, 419.0, 422.0, 421.0, 422.0, 421.0, 419.0, 421.0, 421.0, 420.0, 417.0, 420.0, 419.0, 418.0, 422.0, 419.0, 420.0, 419.0, 417.0, 417.0, 420.0, 417.0, 420.0, 418.0, 419.0, 419.0, 420.0, 418.0, 421.0, 418.0, 421.0, 419.0, 420.0, 418.0, 418.0, 419.0, 418.0, 420.0, 419.0, 419.0, 422.0, 419.0, 422.0, 422.0, 421.0, 421.0, 418.0, 421.0, 417.0, 419.0, 418.0, 419.0, 420.0, 422.0, 418.0, 421.0, 418.0, 419.0, 420.0, 418.0, 421.0, 419.0, 422.0, 418.0, 418.0, 421.0, 419.0, 420.0, 420.0, 417.0, 420.0, 417.0, 419.0, 417.0, 421.0, 418.0, 418.0, 421.0, 419.0, 421.0, 420.0, 423.0, 421.0, 421.0, 421.0, 421.0, 420.0, 417.0, 420.0, 419.0, 420.0, 416.0, 417.0, 418.0, 419.0, 420.0, 418.0, 418.0, 421.0, 418.0, 419.0, 418.0, 421.0, 418.0, 419.0, 421.0, 422.0, 419.0, 419.0, 420.0, 419.0, 418.0, 417.0, 421.0, 417.0, 418.0, 420.0, 418.0, 422.0, 420.0, 421.0, 419.0, 420.0, 420.0, 419.0, 417.0, 420.0, 417.0, 418.0, 417.0, 418.0, 420.0, 418.0, 420.0, 419.0, 421.0, 421.0, 421.0, 419.0, 419.0, 417.0, 417.0, 419.0, 420.0, 417.0, 422.0, 419.0, 419.0, 421.0, 418.0, 420.0, 418.0, 418.0, 420.0, 417.0, 419.0, 419.0, 420.0, 419.0, 421.0, 419.0, 420.0, 419.0, 419.0, 421.0, 418.0, 422.0, 419.0, 420.0, 421.0, 419.0, 421.0, 419.0, 420.0, 420.0, 417.0, 417.0, 418.0, 417.0, 419.0, 418.0, 420.0, 419.0, 420.0, 418.0, 421.0, 418.0, 422.0, 420.0, 421.0, 419.0, 419.0, 418.0, 419.0, 418.0, 419.0, 421.0, 422.0, 421.0, 418.0, 420.0, 418.0, 418.0, 420.0, 418.0, 422.0, 419.0, 421.0, 419.0, 418.0, 418.0, 417.0, 420.0, 419.0, 420.0, 420.0],
      "WindowWidth": [889.0, 891.0, 885.0, 891.0, 885.0, 888.0, 886.0, 884.0, 887.0, 883.0, 885.0, 884.0, 882.0, 886.0, 882.0, 883.0, 883.0, 884.0, 884.0, 890.0, 886.0, 890.0, 887.0, 886.0, 888.0, 881.0, 885.0, 884.0, 884.0, 888.0, 883.0, 883.0, 887.0, 883.0, 886.0, 881.0, 885.0, 883.0, 885.0, 882.0, 886.0, 882.0, 885.0, 882.0, 888.0, 884.0, 887.0, 885.0, 884.0, 889.0, 885.0, 890.0, 885.0, 889.0, 886.0, 887.0, 883.0, 886.0, 882.0, 885.0, 883.0, 886.0, 886.0, 889.0, 884.0, 885.0, 888.0, 887.0, 888.0, 887.0, 885.0, 886.0, 887.0, 886.0, 882.0, 885.0, 884.0, 884.0, 889.0, 884.0, 886.0, 884.0, 880.0, 880.0, 885.0, 881.0, 885.0, 882.0, 884.0, 884.0, 886.0, 883.0, 887.0, 883.0, 887.0, 884.0, 886.0, 882.0, 882.0, 884.0, 883.0, 885.0, 884.0, 884.0, 890.0, 885.0, 889.0, 889.0, 888.0, 887.0, 883.0, 887.0, 882.0, 885.0, 882.0, 884.0, 886.0, 888.0, 883.0, 888.0, 883.0, 884.0, 885.0, 883.0, 887.0, 884.0, 888.0, 883.0, 882.0, 887.0, 884.0, 886.0, 885.0, 881.0, 884.0, 881.0, 883.0, 881.0, 886.0, 882.0, 883.0, 888.0, 884.0, 888.0, 886.0, 890.0, 888.0, 888.0, 887.0, 887.0, 885.0, 882.0, 885.0, 884.0, 885.0, 880.0, 881.0, 883.0, 884.0, 885.0, 883.0, 882.0, 887.0, 882.0, 885.0, 882.0, 887.0, 883.0, 885.0, 887.0, 889.0, 885.0, 885.0, 886.0, 883.0, 883.0, 881.0, 886.0, 881.0, 882.0, 885.0, 883.0, 889.0, 885.0, 887.0, 884.0, 885.0, 884.0, 884.0, 881.0, 885.0, 880.0, 882.0, 880.0, 882.0, 886.0, 882.0, 886.0, 885.0, 888.0, 887.0, 887.0, 884.0, 884.0, 881.0, 881.0, 884.0, 887.0, 882.0, 888.0, 885.0, 884.0, 887.0, 883.0, 885.0, 883.0, 882.0, 885.0, 881.0, 884.0, 883.0, 885.0, 885.0, 888.0, 885.0, 886.0, 884.0, 883.0, 887.0, 882.0, 888.0, 884.0, 885.0, 887.0, 884.0, 887.0, 884.0, 885.0, 885.0, 882.0, 882.0, 883.0, 882.0, 884.0, 883.0, 886.0, 884.0, 885.0, 883.0, 887.0, 884.0, 889.0, 886.0, 888.0, 884.0, 884.0, 883.0, 884.0, 883.0, 884.0, 887.0, 889.0, 888.0, 883.0, 886.0, 883.0, 882.0, 886.0, 882.0, 888.0, 884.0, 887.0, 884.0, 882.0, 883.0, 881.0, 886.0, 884.0, 886.0, 885.0]
    },
    "slices": {}
  }
}