{
  "AcquisitionMatrixPE": 96,
  "AcquisitionNumber": 1,
  "AcquisitionTime": "15:51:29.792500",
  "BandwidthPerPixelPhaseEncode": 18.939,
  "BaseResolution": 96,
  "BodyPartExamined": "BRAIN",
  "ConsistencyInfo": "N4_VE11C_LATEST_20160120",
  "ConversionSoftware": "dcm2niix",
  "ConversionSoftwareVersion": "v1.0.20170923 (OpenJPEG build) GCC6.3.0",
  "DerivedVendorReportedEchoSpacing": 0.000550011,
  "DeviceSerialNumber": "66112",
  "DwellTime": 2.3e-06,
  "EchoTime": 0.033,
  "EchoTrainLength": 96,
  "EffectiveEchoSpacing": 0.000550011,
  "FlipAngle": 64,
  "ImageType": [
    "ORIGINAL",
    "PRIMARY",
    "FMRI",
    "NONE",
    "ND",
    "NORM",
    "MOSAIC"
],
  "InstitutionAddress": "Maynard_3_Hanover_NH_US_03755",
  "InstitutionName": "Dartmouth_College_-_PBS",
  "MagneticFieldStrength": 3,
  "Manufacturer": "Siemens",
  "ManufacturersModelName": "Prisma",
  "Modality": "MR",
  "MultibandAccelerationFactor": 4,
  "PartialFourier": 1,
  "PercentPhaseFOV": 100,
  "PhaseEncodingDirection": "j-",
  "PhaseEncodingSteps": 96,
  "PhaseResolution": 1,
  "ProcedureStepDescription": "Gobbini_Matteo_1017_famface-angles",
  "ProtocolName": "func_run-06_task-localizer",
  "PulseSequenceDetails": "%SiemensSeq%_ep2d_bold",
  "ReceiveCoilActiveElements": "HEA;HEP",
  "ReceiveCoilName": "Head_32",
  "ReconMatrixPE": 96,
  "RepetitionTime": 1.25,
  "ScanOptions": "FS",
  "ScanningSequence": "EP",
  "SequenceName": "_epfid2d1_96",
  "SequenceVariant": "SK",
  "SeriesDescription": "func_run-06_task-localizer",
  "SliceTiming": [0.88, 0, 0.615, 0.09, 0.705, 0.1775, 0.7925, 0.3525, 0.9675, 0.44, 1.055, 0.5275, 1.1425, 0.265, 0.88, 0, 0.615, 0.09, 0.705, 0.1775, 0.7925, 0.3525, 0.9675, 0.44, 1.055, 0.5275, 1.1425, 0.265, 0.88, 0, 0.615, 0.09, 0.705, 0.1775, 0.7925, 0.3525, 0.9675, 0.44, 1.055, 0.5275, 1.1425, 0.265, 0.88, 0, 0.615, 0.09, 0.705, 0.1775, 0.7925, 0.3525, 0.9675, 0.44, 1.055, 0.5275, 1.1425, 0.265],
  "SoftwareVersions": "syngo_MR_E11",
  "StationName": "AWP66112",
  "TaskName": "localizer",
  "TotalReadoutTime": 0.0522511,
  "dcmmeta_affine": [
    [-2.498541831970215, -0.05015570670366287, -0.06908868998289108, 122.44061279296875],
    [-0.0549558587372303, 2.4930810928344727, 0.17755819857120514, -100.65892791748047],
    [-0.06533525884151459, -0.17897336184978485, 2.492729425430298, -65.88418579101562],
    [0.0, 0.0, 0.0, 1.0]
],
  "dcmmeta_reorient_transform": [
    [0.0, -1.0, 0.0, 95.0],
    [1.0, 0.0, 0.0, 0.0],
    [0.0, 0.0, 1.0, 0.0],
    [0.0, 0.0, 0.0, 1.0]
],
  "dcmmeta_shape": [96, 96, 56, 325],
  "dcmmeta_slice_dim": 2,
  "dcmmeta_version": 0.6,
  "global": {
    "const": {
      "AccessionNumber": "A000394",
      "AcquisitionMatrix": [96, 0, 0, 96],
      "AngioFlag": "N",
      "BitsAllocated": 16,
      "BitsStored": 12,
      "BodyPartExamined": "BRAIN",
      "Columns": 768,
      "EchoNumbers": 1,
      "EchoTime": 33.0,
      "EchoTrainLength": 96,
      "FlipAngle": 64.0,
      "HighBit": 11,
      "ImageOrientationPatient": [0.99941672252964, 0.02198234304115, -0.026134102673, -0.0200622834263, 0.99723240547613, 0.07158934454241],
      "ImagePositionPatient": [-940.3335507977, -992.32415502129, -121.06906191871],
      "ImageType": [
        "ORIGINAL",
        "PRIMARY",
        "FMRI",
        "NONE",
        "ND",
        "NORM",
        "MOSAIC"
],
      "ImagedNucleus": "1H",
      "ImagingFrequency": 123.252356,
      "InPlanePhaseEncodingDirection": "COL",
      "MRAcquisitionType": "2D",
      "MagneticFieldStrength": 3.0,
      "Manufacturer": "SIEMENS",
      "ManufacturerModelName": "Prisma",
      "Modality": "MR",
      "NumberOfAverages": 1.0,
      "NumberOfPhaseEncodingSteps": 96,
      "PercentPhaseFieldOfView": 100.0,
      "PercentSampling": 100.0,
      "PerformedProcedureStepStartTime": "150606.464000",
      "PhotometricInterpretation": "MONOCHROME2",
      "PixelBandwidth": 2265.0,
      "PixelRepresentation": 0,
      "PixelSpacing": [2.5, 2.5],
      "PositionReferenceIndicator": "",
      "ProtocolName": "func_run-06_task-localizer",
      "RepetitionTime": 1250.0,
      "Rows": 768,
      "SAR": 0.05254744665263,
      "SamplesPerPixel": 1,
      "ScanOptions": "FS",
      "ScanningSequence": "EP",
      "SequenceName": "*epfid2d1_96",
      "SequenceVariant": "SK",
      "SeriesDescription": "func_run-06_task-localizer",
      "SeriesNumber": 46,
      "SeriesTime": "155131.313000",
      "SliceLocation": -76.225414082247,
      "SliceThickness": 2.5,
      "SmallestImagePixelValue": 0,
      "SoftwareVersions": "syngo MR E11",
      "SpacingBetweenSlices": 2.4999999999156,
      "SpecificCharacterSet": "ISO_IR 100",
      "StudyID": "2",
      "StudyTime": "150606.404000",
      "TransmitCoilName": "Body",
      "VariableFlipAngleFlag": "N",
      "WindowCenterWidthExplanation": "Algo1",
      "dBdt": 0.0},
    "slices": {}
  },
  "time": {
    "samples": {
      "AcquisitionNumber": [1, 2, 3, 4, 5, 6, 7, 8, 9, 10, 11, 12, 13, 14, 15, 16, 17, 18, 19, 20, 21, 22, 23, 24, 25, 26, 27, 28, 29, 30, 31, 32, 33, 34, 35, 36, 37, 38, 39, 40, 41, 42, 43, 44, 45, 46, 47, 48, 49, 50, 51, 52, 53, 54, 55, 56, 57, 58, 59, 60, 61, 62, 63, 64, 65, 66, 67, 68, 69, 70, 71, 72, 73, 74, 75, 76, 77, 78, 79, 80, 81, 82, 83, 84, 85, 86, 87, 88, 89, 90, 91, 92, 93, 94, 95, 96, 97, 98, 99, 100, 101, 102, 103, 104, 105, 106, 107, 108, 109, 110, 111, 112, 113, 114, 115, 116, 117, 118, 119, 120, 121, 122, 123, 124, 125, 126, 127, 128, 129, 130, 131, 132, 133, 134, 135, 136, 137, 138, 139, 140, 141, 142, 143, 144, 145, 146, 147, 148, 149, 150, 151, 152, 153, 154, 155, 156, 157, 158, 159, 160, 161, 162, 163, 164, 165, 166, 167, 168, 169, 170, 171, 172, 173, 174, 175, 176, 177, 178, 179, 180, 181, 182, 183, 184, 185, 186, 187, 188, 189, 190, 191, 192, 193, 194, 195, 196, 197, 198, 199, 200, 201, 202, 203, 204, 205, 206, 207, 208, 209, 210, 211, 212, 213, 214, 215, 216, 217, 218, 219, 220, 221, 222, 223, 224, 225, 226, 227, 228, 229, 230, 231, 232, 233, 234, 235, 236, 237, 238, 239, 240, 241, 242, 243, 244, 245, 246, 247, 248, 249, 250, 251, 252, 253, 254, 255, 256, 257, 258, 259, 260, 261, 262, 263, 264, 265, 266, 267, 268, 269, 270, 271, 272, 273, 274, 275, 276, 277, 278, 279, 280, 281, 282, 283, 284, 285, 286, 287, 288, 289, 290, 291, 292, 293, 294, 295, 296, 297, 298, 299, 300, 301, 302, 303, 304, 305, 306, 307, 308, 309, 310, 311, 312, 313, 314, 315, 316, 317, 318, 319, 320, 321, 322, 323, 324, 325],
      "AcquisitionTime": ["155129.792500", "155131.042500", "155132.292500", "155133.542500", "155134.792500", "155136.042500", "155137.292500", "155138.542500", "155139.792500", "155141.042500", "155142.292500", "155143.542500", "155144.792500", "155146.042500", "155147.292500", "155148.542500", "155149.792500", "155151.042500", "155152.292500", "155153.542500", "155154.792500", "155156.042500", "155157.292500", "155158.542500", "155159.792500", "155201.042500", "155202.292500", "155203.542500", "155204.792500", "155206.042500", "155207.292500", "155208.542500", "155209.792500", "155211.042500", "155212.292500", "155213.542500", "155214.792500", "155216.042500", "155217.292500", "155218.542500", "155219.792500", "155221.042500", "155222.292500", "155223.542500", "155224.792500", "155226.042500", "155227.292500", "155228.542500", "155229.792500", "155231.042500", "155232.292500", "155233.542500", "155234.792500", "155236.042500", "155237.292500", "155238.542500", "155239.792500", "155241.042500", "155242.292500", "155243.542500", "155244.792500", "155246.042500", "155247.292500", "155248.542500", "155249.792500", "155251.042500", "155252.292500", "155253.542500", "155254.792500", "155256.042500", "155257.292500", "155258.542500", "155259.792500", "155301.042500", "155302.292500", "155303.542500", "155304.792500", "155306.042500", "155307.292500", "155308.542500", "155309.792500", "155311.042500", "155312.292500", "155313.542500", "155314.792500", "155316.042500", "155317.292500", "155318.542500", "155319.792500", "155321.042500", "155322.292500", "155323.542500", "155324.792500", "155326.042500", "155327.292500", "155328.542500", "155329.792500", "155331.042500", "155332.292500", "155333.542500", "155334.792500", "155336.042500", "155337.292500", "155338.542500", "155339.792500", "155341.042500", "155342.292500", "155343.542500", "155344.792500", "155346.042500", "155347.292500", "155348.542500", "155349.792500", "155351.042500", "155352.292500", "155353.542500", "155354.792500", "155356.042500", "155357.292500", "155358.542500", "155359.792500", "155401.042500", "155402.292500", "155403.542500", "155404.792500", "155406.042500", "155407.292500", "155408.542500", "155409.792500", "155411.042500", "155412.292500", "155413.542500", "155414.792500", "155416.042500", "155417.292500", "155418.542500", "155419.792500", "155421.042500", "155422.292500", "155423.542500", "155424.792500", "155426.042500", "155427.292500", "155428.542500", "155429.792500", "155431.042500", "155432.292500", "155433.542500", "155434.792500", "155436.042500", "155437.292500", "155438.542500", "155439.792500", "155441.042500", "155442.292500", "155443.542500", "155444.792500", "155446.042500", "155447.292500", "155448.542500", "155449.792500", "155451.042500", "155452.292500", "155453.542500", "155454.792500", "155456.042500", "155457.292500", "155458.542500", "155459.792500", "155501.042500", "155502.292500", "155503.542500", "155504.792500", "155506.042500", "155507.292500", "155508.542500", "155509.792500", "155511.042500", "155512.292500", "155513.542500", "155514.792500", "155516.042500", "155517.292500", "155518.542500", "155519.792500", "155521.042500", "155522.292500", "155523.542500", "155524.792500", "155526.042500", "155527.292500", "155528.542500", "155529.792500", "155531.042500", "155532.292500", "155533.542500", "155534.792500", "155536.042500", "155537.292500", "155538.542500", "155539.792500", "155541.042500", "155542.292500", "155543.542500", "155544.792500", "155546.042500", "155547.292500", "155548.542500", "155549.792500", "155551.042500", "155552.292500", "155553.542500", "155554.792500", "155556.042500", "155557.292500", "155558.542500", "155559.792500", "155601.042500", "155602.292500", "155603.542500", "155604.792500", "155606.042500", "155607.292500", "155608.542500", "155609.792500", "155611.042500", "155612.292500", "155613.542500", "155614.792500", "155616.042500", "155617.292500", "155618.542500", "155619.792500", "155621.042500", "155622.292500", "155623.542500", "155624.792500", "155626.042500", "155627.292500", "155628.542500", "155629.792500", "155631.042500", "155632.292500", "155633.542500", "155634.792500", "155636.042500", "155637.292500", "155638.542500", "155639.792500", "155641.042500", "155642.292500", "155643.542500", "155644.792500", "155646.042500", "155647.292500", "155648.542500", "155649.792500", "155651.042500", "155652.292500", "155653.542500", "155654.792500", "155656.042500", "155657.292500", "155658.542500", "155659.792500", "155701.042500", "155702.292500", "155703.542500", "155704.792500", "155706.042500", "155707.292500", "155708.542500", "155709.792500", "155711.042500", "155712.292500", "155713.542500", "155714.792500", "155716.042500", "155717.292500", "155718.542500", "155719.792500", "155721.042500", "155722.292500", "155723.542500", "155724.792500", "155726.042500", "155727.292500", "155728.542500", "155729.792500", "155731.042500", "155732.292500", "155733.542500", "155734.792500", "155736.042500", "155737.292500", "155738.542500", "155739.792500", "155741.042500", "155742.292500", "155743.542500", "155744.792500", "155746.042500", "155747.292500", "155748.542500", "155749.792500", "155751.042500", "155752.292500", "155753.542500", "155754.792500", "155756.042500", "155757.292500", "155758.542500", "155759.792500", "155801.042500", "155802.292500", "155803.542500", "155804.792500", "155806.042500", "155807.292500", "155808.542500", "155809.792500", "155811.042500", "155812.292500", "155813.542500", "155814.792500"],
      "ContentTime": ["155131.317000", "155132.401000", "155133.616000", "155134.881000", "155136.110000", "155137.363000", "155138.609000", "155139.883000", "155141.155000", "155142.395000", "155143.626000", "155144.870000", "155146.125000", "155147.383000", "155148.633000", "155149.862000", "155151.100000", "155152.365000", "155153.625000", "155154.933000", "155156.131000", "155157.372000", "155158.621000", "155159.853000", "155201.127000", "155202.369000", "155203.638000", "155204.848000", "155206.137000", "155207.349000", "155208.624000", "155209.850000", "155211.137000", "155212.388000", "155213.620000", "155214.877000", "155216.110000", "155217.366000", "155218.619000", "155219.868000", "155221.129000", "155222.359000", "155223.618000", "155224.922000", "155226.149000", "155227.394000", "155228.620000", "155229.872000", "155231.133000", "155232.361000", "155233.611000", "155234.858000", "155236.121000", "155237.356000", "155238.635000", "155239.890000", "155241.140000", "155242.327000", "155243.650000", "155244.868000", "155246.113000", "155247.354000", "155248.630000", "155249.862000", "155251.112000", "155252.399000", "155253.613000", "155254.884000", "155256.117000", "155257.386000", "155258.621000", "155259.915000", "155301.165000", "155302.375000", "155303.613000", "155304.867000", "155306.111000", "155307.359000", "155308.615000", "155309.875000", "155311.112000", "155312.350000", "155313.580000", "155314.854000", "155316.132000", "155317.369000", "155318.609000", "155319.890000", "155321.188000", "155322.398000", "155323.610000", "155324.904000", "155326.112000", "155327.408000", "155328.610000", "155329.867000", "155331.158000", "155332.352000", "155333.619000", "155334.881000", "155336.111000", "155337.391000", "155338.640000", "155339.902000", "155341.152000", "155342.422000", "155343.670000", "155344.910000", "155346.116000", "155347.387000", "155348.650000", "155349.890000", "155351.150000", "155352.394000", "155353.614000", "155354.871000", "155356.153000", "155357.382000", "155358.637000", "155359.864000", "155401.131000", "155402.374000", "155403.610000", "155404.895000", "155406.124000", "155407.437000", "155408.627000", "155409.883000", "155411.127000", "155412.413000", "155413.620000", "155414.868000", "155416.116000", "155417.431000", "155418.639000", "155419.874000", "155421.141000", "155422.390000", "155423.603000", "155424.910000", "155426.134000", "155427.392000", "155428.624000", "155429.873000", "155431.138000", "155432.392000", "155433.622000", "155434.898000", "155436.173000", "155437.357000", "155438.641000", "155439.834000", "155441.158000", "155442.388000", "155443.625000", "155444.865000", "155446.142000", "155447.396000", "155448.615000", "155449.872000", "155451.133000", "155452.403000", "155453.674000", "155454.876000", "155456.145000", "155457.421000", "155458.630000", "155459.902000", "155501.132000", "155502.406000", "155503.638000", "155504.886000", "155506.129000", "155507.413000", "155508.597000", "155509.872000", "155511.140000", "155512.381000", "155513.647000", "155514.886000", "155516.134000", "155517.383000", "155518.634000", "155519.845000", "155521.115000", "155522.375000", "155523.633000", "155524.869000", "155526.128000", "155527.360000", "155528.627000", "155529.860000", "155531.129000", "155532.382000", "155533.650000", "155534.888000", "155536.108000", "155537.362000", "155538.618000", "155539.867000", "155541.142000", "155542.384000", "155543.624000", "155544.876000", "155546.112000", "155547.367000", "155548.637000", "155549.879000", "155551.100000", "155552.355000", "155553.580000", "155554.875000", "155556.142000", "155557.368000", "155558.622000", "155559.881000", "155601.133000", "155602.396000", "155603.636000", "155604.891000", "155606.117000", "155607.354000", "155608.646000", "155609.876000", "155611.151000", "155612.398000", "155613.640000", "155614.877000", "155616.119000", "155617.402000", "155618.603000", "155619.865000", "155621.114000", "155622.381000", "155623.624000", "155624.846000", "155626.134000", "155627.379000", "155628.646000", "155629.921000", "155631.151000", "155632.362000", "155633.644000", "155634.873000", "155636.122000", "155637.374000", "155638.635000", "155639.866000", "155641.130000", "155642.380000", "155643.638000", "155644.881000", "155646.121000", "155647.363000", "155648.627000", "155649.877000", "155651.137000", "155652.373000", "155653.658000", "155654.916000", "155656.166000", "155657.374000", "155658.624000", "155659.871000", "155701.137000", "155702.367000", "155703.657000", "155704.861000", "155706.095000", "155707.379000", "155708.613000", "155709.883000", "155711.128000", "155712.355000", "155713.611000", "155714.882000", "155716.139000", "155717.379000", "155718.663000", "155719.885000", "155721.123000", "155722.381000", "155723.631000", "155724.873000", "155726.110000", "155727.353000", "155728.633000", "155729.873000", "155731.123000", "155732.361000", "155733.628000", "155734.867000", "155736.115000", "155737.371000", "155738.629000", "155739.875000", "155741.131000", "155742.405000", "155743.659000", "155744.891000", "155746.138000", "155747.388000", "155748.625000", "155749.876000", "155751.136000", "155752.357000", "155753.620000", "155754.870000", "155756.116000", "155757.368000", "155758.635000", "155759.944000", "155801.104000", "155802.377000", "155803.636000", "155804.873000", "155806.151000", "155807.377000", "155808.626000", "155809.857000", "155811.117000", "155812.362000", "155813.628000", "155814.882000", "155816.209000"],
      "InstanceCreationTime": ["155131.317000", "155132.401000", "155133.616000", "155134.881000", "155136.110000", "155137.363000", "155138.609000", "155139.883000", "155141.155000", "155142.395000", "155143.626000", "155144.870000", "155146.125000", "155147.383000", "155148.633000", "155149.862000", "155151.100000", "155152.365000", "155153.625000", "155154.933000", "155156.131000", "155157.372000", "155158.621000", "155159.853000", "155201.127000", "155202.369000", "155203.638000", "155204.848000", "155206.137000", "155207.349000", "155208.624000", "155209.850000", "155211.137000", "155212.388000", "155213.620000", "155214.877000", "155216.110000", "155217.366000", "155218.619000", "155219.868000", "155221.129000", "155222.359000", "155223.618000", "155224.922000", "155226.149000", "155227.394000", "155228.620000", "155229.872000", "155231.133000", "155232.361000", "155233.611000", "155234.858000", "155236.121000", "155237.356000", "155238.635000", "155239.890000", "155241.140000", "155242.327000", "155243.650000", "155244.868000", "155246.113000", "155247.354000", "155248.630000", "155249.862000", "155251.112000", "155252.399000", "155253.613000", "155254.884000", "155256.117000", "155257.386000", "155258.621000", "155259.915000", "155301.165000", "155302.375000", "155303.613000", "155304.867000", "155306.111000", "155307.359000", "155308.615000", "155309.875000", "155311.112000", "155312.350000", "155313.580000", "155314.854000", "155316.132000", "155317.369000", "155318.609000", "155319.890000", "155321.188000", "155322.398000", "155323.610000", "155324.904000", "155326.112000", "155327.408000", "155328.610000", "155329.867000", "155331.158000", "155332.352000", "155333.619000", "155334.881000", "155336.111000", "155337.391000", "155338.640000", "155339.902000", "155341.152000", "155342.422000", "155343.670000", "155344.910000", "155346.116000", "155347.387000", "155348.650000", "155349.890000", "155351.150000", "155352.394000", "155353.614000", "155354.871000", "155356.153000", "155357.382000", "155358.637000", "155359.864000", "155401.131000", "155402.374000", "155403.610000", "155404.895000", "155406.124000", "155407.437000", "155408.627000", "155409.883000", "155411.127000", "155412.413000", "155413.620000", "155414.868000", "155416.116000", "155417.431000", "155418.639000", "155419.874000", "155421.141000", "155422.390000", "155423.603000", "155424.910000", "155426.134000", "155427.392000", "155428.624000", "155429.873000", "155431.138000", "155432.392000", "155433.622000", "155434.898000", "155436.173000", "155437.357000", "155438.641000", "155439.834000", "155441.158000", "155442.388000", "155443.625000", "155444.865000", "155446.142000", "155447.396000", "155448.615000", "155449.872000", "155451.133000", "155452.403000", "155453.674000", "155454.876000", "155456.145000", "155457.421000", "155458.630000", "155459.902000", "155501.132000", "155502.406000", "155503.638000", "155504.886000", "155506.129000", "155507.413000", "155508.597000", "155509.872000", "155511.140000", "155512.381000", "155513.647000", "155514.886000", "155516.134000", "155517.383000", "155518.634000", "155519.845000", "155521.115000", "155522.375000", "155523.633000", "155524.869000", "155526.128000", "155527.360000", "155528.627000", "155529.860000", "155531.129000", "155532.382000", "155533.650000", "155534.888000", "155536.108000", "155537.362000", "155538.618000", "155539.867000", "155541.142000", "155542.384000", "155543.624000", "155544.876000", "155546.112000", "155547.367000", "155548.637000", "155549.879000", "155551.100000", "155552.355000", "155553.580000", "155554.875000", "155556.142000", "155557.368000", "155558.622000", "155559.881000", "155601.133000", "155602.396000", "155603.636000", "155604.891000", "155606.117000", "155607.354000", "155608.646000", "155609.876000", "155611.151000", "155612.398000", "155613.640000", "155614.877000", "155616.119000", "155617.402000", "155618.603000", "155619.865000", "155621.114000", "155622.381000", "155623.624000", "155624.846000", "155626.134000", "155627.379000", "155628.646000", "155629.921000", "155631.151000", "155632.362000", "155633.644000", "155634.873000", "155636.122000", "155637.374000", "155638.635000", "155639.866000", "155641.130000", "155642.380000", "155643.638000", "155644.881000", "155646.121000", "155647.363000", "155648.627000", "155649.877000", "155651.137000", "155652.373000", "155653.658000", "155654.916000", "155656.166000", "155657.374000", "155658.624000", "155659.871000", "155701.137000", "155702.367000", "155703.657000", "155704.861000", "155706.095000", "155707.379000", "155708.613000", "155709.883000", "155711.128000", "155712.355000", "155713.611000", "155714.882000", "155716.139000", "155717.379000", "155718.663000", "155719.885000", "155721.123000", "155722.381000", "155723.631000", "155724.873000", "155726.110000", "155727.353000", "155728.633000", "155729.873000", "155731.123000", "155732.361000", "155733.628000", "155734.867000", "155736.115000", "155737.371000", "155738.629000", "155739.875000", "155741.131000", "155742.405000", "155743.659000", "155744.891000", "155746.138000", "155747.388000", "155748.625000", "155749.876000", "155751.136000", "155752.357000", "155753.620000", "155754.870000", "155756.116000", "155757.368000", "155758.635000", "155759.944000", "155801.104000", "155802.377000", "155803.636000", "155804.873000", "155806.151000", "155807.377000", "155808.626000", "155809.857000", "155811.117000", "155812.362000", "155813.628000", "155814.882000", "155816.209000"],
      "InstanceNumber": [1, 2, 3, 4, 5, 6, 7, 8, 9, 10, 11, 12, 13, 14, 15, 16, 17, 18, 19, 20, 21, 22, 23, 24, 25, 26, 27, 28, 29, 30, 31, 32, 33, 34, 35, 36, 37, 38, 39, 40, 41, 42, 43, 44, 45, 46, 47, 48, 49, 50, 51, 52, 53, 54, 55, 56, 57, 58, 59, 60, 61, 62, 63, 64, 65, 66, 67, 68, 69, 70, 71, 72, 73, 74, 75, 76, 77, 78, 79, 80, 81, 82, 83, 84, 85, 86, 87, 88, 89, 90, 91, 92, 93, 94, 95, 96, 97, 98, 99, 100, 101, 102, 103, 104, 105, 106, 107, 108, 109, 110, 111, 112, 113, 114, 115, 116, 117, 118, 119, 120, 121, 122, 123, 124, 125, 126, 127, 128, 129, 130, 131, 132, 133, 134, 135, 136, 137, 138, 139, 140, 141, 142, 143, 144, 145, 146, 147, 148, 149, 150, 151, 152, 153, 154, 155, 156, 157, 158, 159, 160, 161, 162, 163, 164, 165, 166, 167, 168, 169, 170, 171, 172, 173, 174, 175, 176, 177, 178, 179, 180, 181, 182, 183, 184, 185, 186, 187, 188, 189, 190, 191, 192, 193, 194, 195, 196, 197, 198, 199, 200, 201, 202, 203, 204, 205, 206, 207, 208, 209, 210, 211, 212, 213, 214, 215, 216, 217, 218, 219, 220, 221, 222, 223, 224, 225, 226, 227, 228, 229, 230, 231, 232, 233, 234, 235, 236, 237, 238, 239, 240, 241, 242, 243, 244, 245, 246, 247, 248, 249, 250, 251, 252, 253, 254, 255, 256, 257, 258, 259, 260, 261, 262, 263, 264, 265, 266, 267, 268, 269, 270, 271, 272, 273, 274, 275, 276, 277, 278, 279, 280, 281, 282, 283, 284, 285, 286, 287, 288, 289, 290, 291, 292, 293, 294, 295, 296, 297, 298, 299, 300, 301, 302, 303, 304, 305, 306, 307, 308, 309, 310, 311, 312, 313, 314, 315, 316, 317, 318, 319, 320, 321, 322, 323, 324, 325],
      "LargestImagePixelValue": [1516, 1391, 1230, 1464, 1018, 1726, 1321, 1574, 1443, 1337, 1444, 1291, 1187, 1308, 1412, 1494, 1060, 977, 1645, 1329, 1522, 1200, 1568, 1166, 1076, 1460, 1077, 1700, 1160, 1579, 1216, 1317, 1386, 1145, 1373, 1481, 1203, 1461, 1041, 1376, 1102, 1040, 1382, 1031, 1429, 1525, 1299, 1460, 1398, 1263, 1504, 1298, 1432, 1438, 1120, 1098, 1104, 1139, 1088, 1601, 1116, 1570, 1181, 1124, 1495, 1052, 1663, 1124, 1333, 1414, 1109, 1437, 1203, 1457, 1065, 1434, 1392, 1358, 1226, 1175, 1129, 1363, 1170, 1473, 1154, 1436, 1157, 1356, 1335, 1321, 1341, 1428, 1431, 1444, 1077, 1348, 1040, 1688, 1167, 1112, 1491, 1410, 1089, 1550, 1283, 1122, 1562, 1082, 1548, 1066, 1485, 1066, 1451, 1056, 1504, 1176, 1311, 1311, 1148, 1144, 1217, 1253, 1496, 1285, 1118, 1339, 1304, 1438, 1256, 1604, 1213, 1232, 1167, 1171, 1204, 1284, 1162, 1043, 1071, 1515, 1345, 1434, 1313, 1255, 1498, 1105, 1372, 1177, 1546, 1284, 1537, 1326, 1334, 1203, 1190, 1087, 1029, 1194, 1025, 1026, 1469, 1448, 1139, 1497, 1290, 1572, 1196, 1520, 1352, 1388, 1130, 1319, 1092, 1364, 1042, 1616, 1379, 1420, 1294, 1274, 1473, 1225, 1423, 1209, 1195, 1469, 1132, 1482, 1104, 1428, 1170, 1067, 1230, 1008, 1077, 1074, 1192, 1511, 1219, 1538, 1443, 1655, 1443, 1329, 1151, 1207, 1228, 1058, 1207, 1571, 1067, 1319, 1142, 1106, 1372, 1085, 1484, 1196, 1449, 1360, 1260, 1392, 1127, 1604, 1110, 1451, 1361, 1074, 1493, 1079, 1577, 1120, 1646, 1201, 1455, 1195, 1082, 1536, 1290, 1549, 1014, 1471, 1242, 1102, 1228, 1023, 1418, 1209, 1374, 1425, 1521, 1127, 1065, 1190, 1009, 1225, 1044, 990, 1317, 1251, 1073, 1567, 1121, 1252, 1569, 1196, 1574, 1181, 1581, 1320, 1253, 1363, 1309, 1085, 1222, 1100, 1603, 1114, 1250, 1335, 1044, 1670, 1221, 1508, 1213, 1386, 1414, 1047, 1490, 1094, 1519, 1113, 1012, 1440, 1155, 1562, 1300, 1540, 1277, 1044, 1447, 1172, 1605, 1432, 1509, 1260, 1282, 1251, 1021, 1097, 990, 1386, 1247, 1214, 1484, 1072, 1418, 1507, 1461, 1373, 1299, 1480, 1093, 1664, 1025],
      "WindowCenter": [424.0, 422.0, 420.0, 422.0, 419.0, 423.0, 421.0, 423.0, 421.0, 420.0, 421.0, 420.0, 419.0, 420.0, 421.0, 422.0, 418.0, 418.0, 423.0, 422.0, 423.0, 420.0, 422.0, 419.0, 419.0, 422.0, 420.0, 423.0, 420.0, 422.0, 419.0, 420.0, 421.0, 419.0, 421.0, 421.0, 419.0, 420.0, 418.0, 421.0, 419.0, 419.0, 422.0, 419.0, 422.0, 422.0, 420.0, 421.0, 420.0, 419.0, 421.0, 420.0, 420.0, 419.0, 417.0, 418.0, 418.0, 419.0, 419.0, 422.0, 419.0, 422.0, 419.0, 419.0, 422.0, 419.0, 423.0, 420.0, 421.0, 421.0, 418.0, 421.0, 419.0, 421.0, 418.0, 421.0, 421.0, 421.0, 419.0, 420.0, 419.0, 422.0, 421.0, 422.0, 420.0, 421.0, 418.0, 420.0, 420.0, 420.0, 420.0, 420.0, 420.0, 420.0, 418.0, 420.0, 419.0, 423.0, 419.0, 418.0, 421.0, 421.0, 418.0, 421.0, 420.0, 418.0, 421.0, 417.0, 420.0, 417.0, 420.0, 418.0, 421.0, 418.0, 421.0, 419.0, 420.0, 420.0, 419.0, 420.0, 420.0, 421.0, 422.0, 420.0, 419.0, 420.0, 420.0, 420.0, 419.0, 421.0, 418.0, 418.0, 417.0, 419.0, 419.0, 419.0, 418.0, 417.0, 419.0, 422.0, 421.0, 421.0, 420.0, 419.0, 421.0, 418.0, 420.0, 419.0, 421.0, 419.0, 421.0, 419.0, 419.0, 417.0, 418.0, 417.0, 418.0, 420.0, 419.0, 420.0, 422.0, 422.0, 419.0, 421.0, 420.0, 422.0, 419.0, 421.0, 420.0, 420.0, 418.0, 420.0, 418.0, 420.0, 419.0, 422.0, 422.0, 422.0, 420.0, 420.0, 420.0, 418.0, 419.0, 418.0, 419.0, 421.0, 418.0, 420.0, 417.0, 419.0, 418.0, 416.0, 418.0, 417.0, 418.0, 419.0, 421.0, 423.0, 421.0, 422.0, 421.0, 422.0, 420.0, 419.0, 417.0, 418.0, 418.0, 417.0, 419.0, 420.0, 417.0, 420.0, 418.0, 417.0, 421.0, 419.0, 421.0, 420.0, 421.0, 420.0, 419.0, 420.0, 418.0, 421.0, 419.0, 421.0, 420.0, 418.0, 421.0, 418.0, 421.0, 418.0, 422.0, 419.0, 421.0, 419.0, 417.0, 421.0, 420.0, 421.0, 417.0, 421.0, 418.0, 417.0, 418.0, 417.0, 421.0, 419.0, 420.0, 420.0, 421.0, 417.0, 417.0, 418.0, 417.0, 419.0, 417.0, 417.0, 420.0, 420.0, 419.0, 422.0, 418.0, 420.0, 421.0, 419.0, 421.0, 419.0, 421.0, 419.0, 418.0, 419.0, 419.0, 417.0, 419.0, 418.0, 420.0, 417.0, 418.0, 420.0, 417.0, 422.0, 419.0, 421.0, 419.0, 420.0, 420.0, 417.0, 421.0, 418.0, 421.0, 418.0, 418.0, 421.0, 419.0, 421.0, 420.0, 421.0, 419.0, 418.0, 421.0, 419.0, 422.0, 421.0, 421.0, 419.0, 418.0, 418.0, 417.0, 418.0, 418.0, 421.0, 420.0, 420.0, 422.0, 418.0, 421.0, 422.0, 421.0, 420.0, 419.0, 420.0, 418.0, 421.0, 417.0],
