{
  "AcquisitionMatrixPE": 96,
  "AcquisitionNumber": 1,
  "AcquisitionTime": "15:44:48.355000",
  "BandwidthPerPixelPhaseEncode": 18.939,
  "BaseResolution": 96,
  "BodyPartExamined": "BRAIN",
  "ConsistencyInfo": "N4_VE11C_LATEST_20160120",
  "ConversionSoftware": "dcm2niix",
  "ConversionSoftwareVersion": "v1.0.20170923 (OpenJPEG build) GCC6.3.0",
  "DerivedVendorReportedEchoSpacing": 0.000550011,
  "DeviceSerialNumber": "66112",
  "DwellTime": 2.3e-06,
  "EchoTime": 0.033,
  "EchoTrainLength": 96,
  "EffectiveEchoSpacing": 0.000550011,
  "FlipAngle": 64,
  "ImageType": [
    "ORIGINAL",
    "PRIMARY",
    "FMRI",
    "NONE",
    "ND",
    "NORM",
    "MOSAIC"
],
  "InstitutionAddress": "Maynard_3_Hanover_NH_US_03755",
  "InstitutionName": "Dartmouth_College_-_PBS",
  "MagneticFieldStrength": 3,
  "Manufacturer": "Siemens",
  "ManufacturersModelName": "Prisma",
  "Modality": "MR",
  "MultibandAccelerationFactor": 4,
  "PartialFourier": 1,
  "PercentPhaseFOV": 100,
  "PhaseEncodingDirection": "j-",
  "PhaseEncodingSteps": 96,
  "PhaseResolution": 1,
  "ProcedureStepDescription": "Gobbini_Matteo_1017_famface-angles",
  "ProtocolName": "func_run-05_task-str1back",
  "PulseSequenceDetails": "%SiemensSeq%_ep2d_bold",
  "ReceiveCoilActiveElements": "HEA;HEP",
  "ReceiveCoilName": "Head_32",
  "ReconMatrixPE": 96,
  "RepetitionTime": 1.25,
  "ScanOptions": "FS",
  "ScanningSequence": "EP",
  "SequenceName": "_epfid2d1_96",
  "SequenceVariant": "SK",
  "SeriesDescription": "func_run-05_task-str1back",
  "SliceTiming": [0.8775, 0, 0.615, 0.0875, 0.7025, 0.175, 0.79, 0.35, 0.965, 0.4375, 1.0525, 0.5275, 1.1425, 0.2625, 0.8775, 0, 0.615, 0.0875, 0.7025, 0.175, 0.79, 0.35, 0.965, 0.4375, 1.0525, 0.5275, 1.1425, 0.2625, 0.8775, 0, 0.615, 0.0875, 0.7025, 0.175, 0.79, 0.35, 0.965, 0.4375, 1.0525, 0.5275, 1.1425, 0.2625, 0.8775, 0, 0.615, 0.0875, 0.7025, 0.175, 0.79, 0.35, 0.965, 0.4375, 1.0525, 0.5275, 1.1425, 0.2625],
  "SoftwareVersions": "syngo_MR_E11",
  "StationName": "AWP66112",
  "TaskName": "str1back",
  "TotalReadoutTime": 0.0522511,
  "dcmmeta_affine": [
    [-2.498541831970215, -0.05015570670366287, -0.06908868998289108, 122.44061279296875],
    [-0.0549558587372303, 2.4930810928344727, 0.17755819857120514, -100.65892791748047],
    [-0.06533525884151459, -0.17897336184978485, 2.492729425430298, -65.88418579101562],
    [0.0, 0.0, 0.0, 1.0]
],
  "dcmmeta_reorient_transform": [
    [0.0, -1.0, 0.0, 95.0],
    [1.0, 0.0, 0.0, 0.0],
    [0.0, 0.0, 1.0, 0.0],
    [0.0, 0.0, 0.0, 1.0]
],
  "dcmmeta_shape": [96, 96, 56, 280],
  "dcmmeta_slice_dim": 2,
  "dcmmeta_version": 0.6,
  "global": {
    "const": {
      "AccessionNumber": "A000394",
      "AcquisitionMatrix": [96, 0, 0, 96],
      "AngioFlag": "N",
      "BitsAllocated": 16,
      "BitsStored": 12,
      "BodyPartExamined": "BRAIN",
      "Columns": 768,
      "EchoNumbers": 1,
      "EchoTime": 33.0,
      "EchoTrainLength": 96,
      "FlipAngle": 64.0,
      "HighBit": 11,
      "ImageOrientationPatient": [0.99941672252964, 0.02198234304115, -0.026134102673, -0.0200622834263, 0.99723240547613, 0.07158934454241],
      "ImagePositionPatient": [-940.3335507977, -992.32415502129, -121.06906191871],
      "ImageType": [
        "ORIGINAL",
        "PRIMARY",
        "FMRI",
        "NONE",
        "ND",
        "NORM",
        "MOSAIC"
],
      "ImagedNucleus": "1H",
      "ImagingFrequency": 123.252354,
      "InPlanePhaseEncodingDirection": "COL",
      "MRAcquisitionType": "2D",
      "MagneticFieldStrength": 3.0,
      "Manufacturer": "SIEMENS",
      "ManufacturerModelName": "Prisma",
      "Modality": "MR",
      "NumberOfAverages": 1.0,
      "NumberOfPhaseEncodingSteps": 96,
      "PercentPhaseFieldOfView": 100.0,
      "PercentSampling": 100.0,
      "PerformedProcedureStepStartTime": "150606.464000",
      "PhotometricInterpretation": "MONOCHROME2",
      "PixelBandwidth": 2265.0,
      "PixelRepresentation": 0,
      "PixelSpacing": [2.5, 2.5],
      "PositionReferenceIndicator": "",
      "ProtocolName": "func_run-05_task-str1back",
      "RepetitionTime": 1250.0,
      "Rows": 768,
      "SAR": 0.05247607974312,
      "SamplesPerPixel": 1,
      "ScanOptions": "FS",
      "ScanningSequence": "EP",
      "SequenceName": "*epfid2d1_96",
      "SequenceVariant": "SK",
      "SeriesDescription": "func_run-05_task-str1back",
      "SeriesNumber": 39,
      "SeriesTime": "154449.446000",
      "SliceLocation": -76.225414082247,
      "SliceThickness": 2.5,
      "SmallestImagePixelValue": 0,
      "SoftwareVersions": "syngo MR E11",
      "SpacingBetweenSlices": 2.4999999999156,
      "SpecificCharacterSet": "ISO_IR 100",
      "StudyID": "2",
      "StudyTime": "150606.404000",
      "TransmitCoilName": "Body",
      "VariableFlipAngleFlag": "N",
      "WindowCenterWidthExplanation": "Algo1",
      "dBdt": 0.0},
    "slices": {}
  },
  "time": {
    "samples": {
      "AcquisitionNumber": [1, 2, 3, 4, 5, 6, 7, 8, 9, 10, 11, 12, 13, 14, 15, 16, 17, 18, 19, 20, 21, 22, 23, 24, 25, 26, 27, 28, 29, 30, 31, 32, 33, 34, 35, 36, 37, 38, 39, 40, 41, 42, 43, 44, 45, 46, 47, 48, 49, 50, 51, 52, 53, 54, 55, 56, 57, 58, 59, 60, 61, 62, 63, 64, 65, 66, 67, 68, 69, 70, 71, 72, 73, 74, 75, 76, 77, 78, 79, 80, 81, 82, 83, 84, 85, 86, 87, 88, 89, 90, 91, 92, 93, 94, 95, 96, 97, 98, 99, 100, 101, 102, 103, 104, 105, 106, 107, 108, 109, 110, 111, 112, 113, 114, 115, 116, 117, 118, 119, 120, 121, 122, 123, 124, 125, 126, 127, 128, 129, 130, 131, 132, 133, 134, 135, 136, 137, 138, 139, 140, 141, 142, 143, 144, 145, 146, 147, 148, 149, 150, 151, 152, 153, 154, 155, 156, 157, 158, 159, 160, 161, 162, 163, 164, 165, 166, 167, 168, 169, 170, 171, 172, 173, 174, 175, 176, 177, 178, 179, 180, 181, 182, 183, 184, 185, 186, 187, 188, 189, 190, 191, 192, 193, 194, 195, 196, 197, 198, 199, 200, 201, 202, 203, 204, 205, 206, 207, 208, 209, 210, 211, 212, 213, 214, 215, 216, 217, 218, 219, 220, 221, 222, 223, 224, 225, 226, 227, 228, 229, 230, 231, 232, 233, 234, 235, 236, 237, 238, 239, 240, 241, 242, 243, 244, 245, 246, 247, 248, 249, 250, 251, 252, 253, 254, 255, 256, 257, 258, 259, 260, 261, 262, 263, 264, 265, 266, 267, 268, 269, 270, 271, 272, 273, 274, 275, 276, 277, 278, 279, 280],
      "AcquisitionTime": ["154448.355000", "154449.605000", "154450.855000", "154452.105000", "154453.355000", "154454.605000", "154455.855000", "154457.105000", "154458.355000", "154459.605000", "154500.855000", "154502.105000", "154503.355000", "154504.605000", "154505.855000", "154507.105000", "154508.355000", "154509.605000", "154510.855000", "154512.105000", "154513.355000", "154514.605000", "154515.855000", "154517.105000", "154518.355000", "154519.605000", "154520.855000", "154522.105000", "154523.355000", "154524.605000", "154525.855000", "154527.105000", "154528.355000", "154529.605000", "154530.855000", "154532.105000", "154533.355000", "154534.605000", "154535.855000", "154537.105000", "154538.355000", "154539.605000", "154540.855000", "154542.105000", "154543.355000", "154544.605000", "154545.855000", "154547.105000", "154548.355000", "154549.605000", "154550.855000", "154552.105000", "154553.355000", "154554.605000", "154555.855000", "154557.105000", "154558.355000", "154559.605000", "154600.855000", "154602.105000", "154603.355000", "154604.605000", "154605.855000", "154607.105000", "154608.355000", "154609.605000", "154610.855000", "154612.105000", "154613.355000", "154614.605000", "154615.855000", "154617.105000", "154618.355000", "154619.605000", "154620.855000", "154622.105000", "154623.355000", "154624.605000", "154625.855000", "154627.105000", "154628.355000", "154629.605000", "154630.855000", "154632.105000", "154633.355000", "154634.605000", "154635.855000", "154637.105000", "154638.355000", "154639.605000", "154640.855000", "154642.105000", "154643.355000", "154644.605000", "154645.855000", "154647.105000", "154648.355000", "154649.605000", "154650.855000", "154652.105000", "154653.355000", "154654.605000", "154655.855000", "154657.105000", "154658.355000", "154659.605000", "154700.855000", "154702.105000", "154703.355000", "154704.605000", "154705.855000", "154707.105000", "154708.355000", "154709.605000", "154710.855000", "154712.105000", "154713.355000", "154714.605000", "154715.855000", "154717.105000", "154718.355000", "154719.605000", "154720.855000", "154722.105000", "154723.355000", "154724.605000", "154725.855000", "154727.105000", "154728.355000", "154729.605000", "154730.855000", "154732.105000", "154733.355000", "154734.605000", "154735.855000", "154737.105000", "154738.355000", "154739.605000", "154740.855000", "154742.105000", "154743.355000", "154744.605000", "154745.855000", "154747.105000", "154748.355000", "154749.605000", "154750.855000", "154752.105000", "154753.355000", "154754.605000", "154755.855000", "154757.105000", "154758.355000", "154759.605000", "154800.855000", "154802.105000", "154803.355000", "154804.605000", "154805.855000", "154807.105000", "154808.355000", "154809.605000", "154810.855000", "154812.105000", "154813.355000", "154814.605000", "154815.855000", "154817.105000", "154818.355000", "154819.605000", "154820.855000", "154822.105000", "154823.355000", "154824.605000", "154825.855000", "154827.105000", "154828.355000", "154829.605000", "154830.855000", "154832.105000", "154833.355000", "154834.605000", "154835.855000", "154837.105000", "154838.355000", "154839.605000", "154840.855000", "154842.105000", "154843.355000", "154844.605000", "154845.855000", "154847.105000", "154848.355000", "154849.605000", "154850.855000", "154852.105000", "154853.355000", "154854.605000", "154855.855000", "154857.105000", "154858.355000", "154859.605000", "154900.855000", "154902.105000", "154903.355000", "154904.605000", "154905.855000", "154907.105000", "154908.355000", "154909.605000", "154910.855000", "154912.105000", "154913.355000", "154914.605000", "154915.855000", "154917.105000", "154918.355000", "154919.605000", "154920.855000", "154922.105000", "154923.355000", "154924.605000", "154925.855000", "154927.105000", "154928.355000", "154929.605000", "154930.855000", "154932.105000", "154933.355000", "154934.605000", "154935.855000", "154937.105000", "154938.355000", "154939.605000", "154940.855000", "154942.105000", "154943.355000", "154944.605000", "154945.855000", "154947.105000", "154948.355000", "154949.605000", "154950.855000", "154952.105000", "154953.355000", "154954.605000", "154955.855000", "154957.105000", "154958.355000", "154959.605000", "155000.855000", "155002.105000", "155003.355000", "155004.605000", "155005.855000", "155007.105000", "155008.355000", "155009.605000", "155010.855000", "155012.105000", "155013.355000", "155014.605000", "155015.855000", "155017.105000", "155018.355000", "155019.605000", "155020.855000", "155022.105000", "155023.355000", "155024.605000", "155025.855000", "155027.105000", "155028.355000", "155029.605000", "155030.855000", "155032.105000", "155033.355000", "155034.605000", "155035.855000", "155037.105000"],
      "ContentTime": ["154449.450000", "154450.567000", "154451.816000", "154453.061000", "154454.309000", "154455.561000", "154456.812000", "154458.087000", "154459.351000", "154500.571000", "154501.807000", "154503.050000", "154504.314000", "154505.575000", "154506.824000", "154508.104000", "154509.331000", "154510.548000", "154511.785000", "154513.057000", "154514.296000", "154515.565000", "154516.794000", "154518.068000", "154519.309000", "154520.543000", "154521.794000", "154523.059000", "154524.300000", "154525.620000", "154526.816000", "154528.055000", "154529.311000", "154530.532000", "154531.791000", "154533.039000", "154534.288000", "154535.537000", "154536.823000", "154538.054000", "154539.312000", "154540.565000", "154541.781000", "154543.082000", "154544.312000", "154545.569000", "154546.796000", "154548.078000", "154549.319000", "154550.585000", "154551.814000", "154553.048000", "154554.327000", "154555.555000", "154556.813000", "154558.032000", "154559.302000", "154600.551000", "154601.821000", "154603.085000", "154604.300000", "154605.577000", "154606.847000", "154608.104000", "154609.291000", "154610.558000", "154611.807000", "154612.993000", "154614.319000", "154615.556000", "154616.808000", "154618.049000", "154619.306000", "154620.576000", "154621.807000", "154623.045000", "154624.298000", "154625.562000", "154626.801000", "154628.056000", "154629.319000", "154630.548000", "154631.805000", "154633.088000", "154634.313000", "154635.578000", "154636.802000", "154638.025000", "154639.332000", "154640.587000", "154641.808000", "154643.050000", "154644.322000", "154645.552000", "154646.817000", "154648.069000", "154649.361000", "154650.559000", "154651.838000", "154653.055000", "154654.316000", "154655.577000", "154656.817000", "154658.058000", "154659.378000", "154700.548000", "154701.800000", "154703.057000", "154704.311000", "154705.614000", "154706.829000", "154708.088000", "154709.324000", "154710.573000", "154711.814000", "154713.071000", "154714.335000", "154715.548000", "154716.811000", "154718.081000", "154719.322000", "154720.593000", "154721.813000", "154723.071000", "154724.284000", "154725.562000", "154726.799000", "154728.068000", "154729.318000", "154730.554000", "154731.818000", "154733.096000", "154734.334000", "154735.572000", "154736.836000", "154738.047000", "154739.349000", "154740.573000", "154741.820000", "154743.051000", "154744.349000", "154745.566000", "154746.833000", "154748.067000", "154749.327000", "154750.551000", "154751.821000", "154753.060000", "154754.319000", "154755.557000", "154756.813000", "154758.088000", "154759.310000", "154800.537000", "154801.812000", "154803.063000", "154804.320000", "154805.551000", "154806.808000", "154808.088000", "154809.317000", "154810.566000", "154811.832000", "154813.063000", "154814.324000", "154815.549000", "154816.832000", "154818.062000", "154819.339000", "154820.620000", "154821.825000", "154823.065000", "154824.322000", "154825.579000", "154826.777000", "154828.049000", "154829.304000", "154830.596000", "154831.784000", "154833.045000", "154834.324000", "154835.573000", "154836.807000", "154838.070000", "154839.269000", "154840.567000", "154841.838000", "154843.138000", "154844.292000", "154845.549000", "154846.849000", "154848.067000", "154849.315000", "154850.549000", "154851.815000", "154853.068000", "154854.325000", "154855.563000", "154856.826000", "154858.098000", "154859.314000", "154900.575000", "154901.828000", "154903.058000", "154904.317000", "154905.545000", "154906.825000", "154908.076000", "154909.351000", "154910.592000", "154911.809000", "154913.079000", "154914.305000", "154915.581000", "154916.802000", "154918.049000", "154919.307000", "154920.560000", "154921.801000", "154923.073000", "154924.326000", "154925.577000", "154926.816000", "154928.054000", "154929.301000", "154930.557000", "154931.831000", "154933.059000", "154934.331000", "154935.593000", "154936.810000", "154938.064000", "154939.323000", "154940.534000", "154941.823000", "154943.056000", "154944.346000", "154945.555000", "154946.800000", "154948.120000", "154949.321000", "154950.591000", "154951.806000", "154953.065000", "154954.326000", "154955.554000", "154956.808000", "154958.093000", "154959.331000", "155000.587000", "155001.818000", "155003.066000", "155004.330000", "155005.561000", "155006.823000", "155008.042000", "155009.304000", "155010.558000", "155011.815000", "155013.062000", "155014.332000", "155015.552000", "155016.814000", "155018.032000", "155019.314000", "155020.550000", "155021.806000", "155023.048000", "155024.313000", "155025.581000", "155026.812000", "155028.057000", "155029.312000", "155030.554000", "155031.830000", "155033.070000", "155034.297000", "155035.563000", "155036.823000", "155038.111000"],
      "InstanceCreationTime": ["154449.450000", "154450.567000", "154451.816000", "154453.061000", "154454.309000", "154455.561000", "154456.812000", "154458.087000", "154459.351000", "154500.571000", "154501.807000", "154503.050000", "154504.314000", "154505.575000", "154506.824000", "154508.104000", "154509.331000", "154510.548000", "154511.785000", "154513.057000", "154514.296000", "154515.565000", "154516.794000", "154518.068000", "154519.309000", "154520.543000", "154521.794000", "154523.059000", "154524.300000", "154525.620000", "154526.816000", "154528.055000", "154529.311000", "154530.532000", "154531.791000", "154533.039000", "154534.288000", "154535.537000", "154536.823000", "154538.054000", "154539.312000", "154540.565000", "154541.781000", "154543.082000", "154544.312000", "154545.569000", "154546.796000", "154548.078000", "154549.319000", "154550.585000", "154551.814000", "154553.048000", "154554.327000", "154555.555000", "154556.813000", "154558.032000", "154559.302000", "154600.551000", "154601.821000", "154603.085000", "154604.300000", "154605.577000", "154606.847000", "154608.104000", "154609.291000", "154610.558000", "154611.807000", "154612.993000", "154614.319000", "154615.556000", "154616.808000", "154618.049000", "154619.306000", "154620.576000", "154621.807000", "154623.045000", "154624.298000", "154625.562000", "154626.801000", "154628.056000", "154629.319000", "154630.548000", "154631.805000", "154633.088000", "154634.313000", "154635.578000", "154636.802000", "154638.025000", "154639.332000", "154640.587000", "154641.808000", "154643.050000", "154644.322000", "154645.552000", "154646.817000", "154648.069000", "154649.361000", "154650.559000", "154651.838000", "154653.055000", "154654.316000", "154655.577000", "154656.817000", "154658.058000", "154659.378000", "154700.548000", "154701.800000", "154703.057000", "154704.311000", "154705.614000", "154706.829000", "154708.088000", "154709.324000", "154710.573000", "154711.814000", "154713.071000", "154714.335000", "154715.548000", "154716.811000", "154718.081000", "154719.322000", "154720.593000", "154721.813000", "154723.071000", "154724.284000", "154725.562000", "154726.799000", "154728.068000", "154729.318000", "154730.554000", "154731.818000", "154733.096000", "154734.334000", "154735.572000", "154736.836000", "154738.047000", "154739.349000", "154740.573000", "154741.820000", "154743.051000", "154744.349000", "154745.566000", "154746.833000", "154748.067000", "154749.327000", "154750.551000", "154751.821000", "154753.060000", "154754.319000", "154755.557000", "154756.813000", "154758.088000", "154759.310000", "154800.537000", "154801.812000", "154803.063000", "154804.320000", "154805.551000", "154806.808000", "154808.088000", "154809.317000", "154810.566000", "154811.832000", "154813.063000", "154814.324000", "154815.549000", "154816.832000", "154818.062000", "154819.339000", "154820.620000", "154821.825000", "154823.065000", "154824.322000", "154825.579000", "154826.777000", "154828.049000", "154829.304000", "154830.596000", "154831.784000", "154833.045000", "154834.324000", "154835.573000", "154836.807000", "154838.070000", "154839.269000", "154840.567000", "154841.838000", "154843.138000", "154844.292000", "154845.549000", "154846.849000", "154848.067000", "154849.315000", "154850.549000", "154851.815000", "154853.068000", "154854.325000", "154855.563000", "154856.826000", "154858.098000", "154859.314000", "154900.575000", "154901.828000", "154903.058000", "154904.317000", "154905.545000", "154906.825000", "154908.076000", "154909.351000", "154910.592000", "154911.809000", "154913.079000", "154914.305000", "154915.581000", "154916.802000", "154918.049000", "154919.307000", "154920.560000", "154921.801000", "154923.073000", "154924.326000", "154925.577000", "154926.816000", "154928.054000", "154929.301000", "154930.557000", "154931.831000", "154933.059000", "154934.331000", "154935.593000", "154936.810000", "154938.064000", "154939.323000", "154940.534000", "154941.823000", "154943.056000", "154944.346000", "154945.555000", "154946.800000", "154948.120000", "154949.321000", "154950.591000", "154951.806000", "154953.065000", "154954.326000", "154955.554000", "154956.808000", "154958.093000", "154959.331000", "155000.587000", "155001.818000", "155003.066000", "155004.330000", "155005.561000", "155006.823000", "155008.042000", "155009.304000", "155010.558000", "155011.815000", "155013.062000", "155014.332000", "155015.552000", "155016.814000", "155018.032000", "155019.314000", "155020.550000", "155021.806000", "155023.048000", "155024.313000", "155025.581000", "155026.812000", "155028.057000", "155029.312000", "155030.554000", "155031.830000", "155033.070000", "155034.297000", "155035.563000", "155036.823000", "155038.111000"],
      "InstanceNumber": [1, 2, 3, 4, 5, 6, 7, 8, 9, 10, 11, 12, 13, 14, 15, 16, 17, 18, 19, 20, 21, 22, 23, 24, 25, 26, 27, 28, 29, 30, 31, 32, 33, 34, 35, 36, 37, 38, 39, 40, 41, 42, 43, 44, 45, 46, 47, 48, 49, 50, 51, 52, 53, 54, 55, 56, 57, 58, 59, 60, 61, 62, 63, 64, 65, 66, 67, 68, 69, 70, 71, 72, 73, 74, 75, 76, 77, 78, 79, 80, 81, 82, 83, 84, 85, 86, 87, 88, 89, 90, 91, 92, 93, 94, 95, 96, 97, 98, 99, 100, 101, 102, 103, 104, 105, 106, 107, 108, 109, 110, 111, 112, 113, 114, 115, 116, 117, 118, 119, 120, 121, 122, 123, 124, 125, 126, 127, 128, 129, 130, 131, 132, 133, 134, 135, 136, 137, 138, 139, 140, 141, 142, 143, 144, 145, 146, 147, 148, 149, 150, 151, 152, 153, 154, 155, 156, 157, 158, 159, 160, 161, 162, 163, 164, 165, 166, 167, 168, 169, 170, 171, 172, 173, 174, 175, 176, 177, 178, 179, 180, 181, 182, 183, 184, 185, 186, 187, 188, 189, 190, 191, 192, 193, 194, 195, 196, 197, 198, 199, 200, 201, 202, 203, 204, 205, 206, 207, 208, 209, 210, 211, 212, 213, 214, 215, 216, 217, 218, 219, 220, 221, 222, 223, 224, 225, 226, 227, 228, 229, 230, 231, 232, 233, 234, 235, 236, 237, 238, 239, 240, 241, 242, 243, 244, 245, 246, 247, 248, 249, 250, 251, 252, 253, 254, 255, 256, 257, 258, 259, 260, 261, 262, 263, 264, 265, 266, 267, 268, 269, 270, 271, 272, 273, 274, 275, 276, 277, 278, 279, 280],
      "LargestImagePixelValue": [1094, 1681, 1157, 1113, 1181, 1151, 1066, 1269, 1296, 1639, 1363, 1095, 1595, 1413, 1173, 1554, 1256, 1500, 1241, 1134, 1018, 1439, 1250, 1592, 1335, 1456, 1212, 1057, 1367, 1328, 1071, 1772, 1262, 1325, 1512, 1151, 1069, 1177, 1378, 1216, 1514, 1437, 1039, 1392, 1115, 1051, 1607, 1187, 1450, 1516, 1361, 1487, 1489, 1285, 1293, 1101, 1018, 1382, 1288, 1140, 1601, 1277, 1519, 1329, 1050, 1286, 1092, 1244, 1264, 1095, 1477, 1224, 1696, 1350, 1290, 1288, 1391, 1347, 1310, 1080, 1402, 1140, 1265, 1513, 1124, 1658, 1366, 1122, 1533, 1450, 1121, 1544, 1406, 1119, 1579, 1341, 1304, 1467, 1168, 1609, 1371, 1647, 1426, 1497, 1381, 1041, 1541, 1216, 1535, 1278, 1475, 1140, 1345, 1224, 999, 1581, 1349, 1255, 1509, 1075, 1651, 1228, 1158, 1500, 1080, 1559, 1115, 1115, 1326, 1546, 1226, 1410, 1398, 1401, 1623, 1154, 1187, 1234, 1154, 1130, 1290, 1307, 1406, 1082, 1532, 1132, 1012, 1564, 1239, 1533, 1334, 1556, 1364, 1129, 1587, 1308, 1510, 1163, 1307, 1372, 1503, 1136, 1061, 1108, 1091, 1040, 1491, 1262, 1452, 1488, 1108, 1337, 1125, 1438, 1262, 1528, 1369, 1182, 1527, 1262, 1051, 1379, 1222, 1132, 1259, 1219, 1186, 1092, 1028, 1194, 1143, 1329, 1247, 1306, 1690, 1194, 1426, 1346, 1136, 1554, 1228, 1565, 1228, 1166, 1455, 1137, 1555, 1354, 1267, 1353, 1302, 1024, 1497, 1482, 1316, 1055, 1563, 1259, 1050, 1078, 1176, 1081, 1505, 1265, 1402, 1553, 1159, 1280, 1206, 1497, 1162, 1039, 1175, 1434, 1369, 1289, 1440, 1141, 1233, 1218, 1398, 1496, 1504, 1393, 1475, 1313, 1086, 1122, 1053, 1357, 1310, 1397, 1161, 1142, 1231, 1030, 1204, 1229, 1062, 1337, 1492, 1434, 1563, 1221, 1067, 1550, 1133, 1481, 1241, 1401, 1424, 1172, 1533, 1154, 1050, 1055, 1107, 1611, 1536, 1582],
      "WindowCenter": [419.0, 422.0, 419.0, 417.0, 419.0, 418.0, 417.0, 420.0, 420.0, 421.0, 419.0, 418.0, 421.0, 420.0, 418.0, 421.0, 420.0, 420.0, 419.0, 418.0, 418.0, 421.0, 420.0, 422.0, 420.0, 420.0, 418.0, 417.0, 420.0, 419.0, 418.0, 422.0, 420.0, 420.0, 421.0, 418.0, 417.0, 419.0, 421.0, 419.0, 421.0, 421.0, 417.0, 421.0, 419.0, 418.0, 422.0, 419.0, 421.0, 420.0, 420.0, 420.0, 420.0, 418.0, 418.0, 418.0, 418.0, 421.0, 420.0, 419.0, 422.0, 420.0, 420.0, 419.0, 416.0, 419.0, 417.0, 419.0, 420.0, 419.0, 422.0, 421.0, 424.0, 421.0, 420.0, 420.0, 420.0, 419.0, 419.0, 417.0, 420.0, 419.0, 420.0, 422.0, 419.0, 422.0, 421.0, 418.0, 422.0, 421.0, 419.0, 421.0, 420.0, 419.0, 421.0, 420.0, 420.0, 421.0, 418.0, 421.0, 420.0, 421.0, 420.0, 420.0, 419.0, 417.0, 420.0, 418.0, 420.0, 418.0, 419.0, 417.0, 419.0, 419.0, 417.0, 422.0, 421.0, 421.0, 421.0, 418.0, 422.0, 419.0, 418.0, 420.0, 417.0, 420.0, 418.0, 418.0, 420.0, 422.0, 420.0, 420.0, 420.0, 419.0, 421.0, 418.0, 419.0, 419.0, 418.0, 418.0, 420.0, 419.0, 419.0, 417.0, 420.0, 419.0, 418.0, 422.0, 420.0, 421.0, 420.0, 421.0, 420.0, 418.0, 421.0, 420.0, 420.0, 417.0, 418.0, 419.0, 420.0, 417.0, 416.0, 417.0, 417.0, 418.0, 421.0, 420.0, 421.0, 421.0, 418.0, 419.0, 419.0, 421.0, 419.0, 421.0, 419.0, 418.0, 420.0, 418.0, 417.0, 420.0, 418.0, 418.0, 419.0, 418.0, 418.0, 417.0, 417.0, 419.0, 418.0, 420.0, 420.0, 420.0, 422.0, 420.0, 421.0, 421.0, 419.0, 422.0, 419.0, 421.0, 419.0, 418.0, 421.0, 418.0, 421.0, 420.0, 419.0, 419.0, 419.0, 416.0, 420.0, 420.0, 419.0, 417.0, 420.0, 419.0, 417.0, 417.0, 419.0, 418.0, 421.0, 420.0, 420.0, 420.0, 417.0, 419.0, 418.0, 420.0, 418.0, 417.0, 419.0, 421.0, 421.0, 420.0, 420.0, 419.0, 419.0, 420.0, 421.0, 421.0, 421.0, 420.0, 421.0, 419.0, 416.0, 417.0, 417.0, 420.0, 419.0, 420.0, 418.0, 419.0, 419.0, 417.0, 420.0, 420.0, 419.0, 421.0, 421.0, 420.0, 420.0, 418.0, 418.0, 421.0, 419.0, 421.0, 420.0, 421.0, 421.0, 418.0, 420.0, 419.0, 418.0, 418.0, 419.0, 423.0, 421.0, 420.0],
      "WindowWidth": [885.0, 888.0, 884.0, 881.0, 883.0, 883.0, 882.0, 885.0, 885.0, 887.0, 884.0, 882.0, 887.0, 885.0, 882.0, 887.0, 885.0, 886.0, 884.0, 883.0, 882.0, 888.0, 885.0, 888.0, 885.0, 885.0, 882.0, 881.0, 885.0, 885.0, 882.0, 889.0, 885.0, 886.0, 888.0, 883.0, 882.0, 885.0, 887.0, 884.0, 887.0, 886.0, 881.0, 886.0, 884.0, 883.0, 889.0, 885.0, 886.0, 886.0, 885.0, 885.0, 885.0, 883.0, 882.0, 882.0, 882.0, 887.0, 886.0, 884.0, 889.0, 885.0, 886.0, 883.0, 880.0, 883.0, 881.0, 884.0, 885.0, 885.0, 888.0, 887.0, 891.0, 887.0, 887.0, 885.0, 885.0, 883.0, 883.0, 881.0, 886.0, 884.0, 885.0, 888.0, 885.0, 890.0, 887.0, 883.0, 888.0, 888.0, 885.0, 887.0, 886.0, 884.0, 887.0, 886.0, 885.0, 886.0, 883.0, 887.0, 885.0, 887.0, 885.0, 885.0, 884.0, 881.0, 886.0, 882.0, 885.0, 882.0, 884.0, 881.0, 884.0, 883.0, 881.0, 888.0, 887.0, 888.0, 888.0, 883.0, 889.0, 884.0, 883.0, 885.0, 881.0, 885.0, 882.0, 883.0, 886.0, 888.0, 886.0, 886.0, 886.0, 884.0, 886.0, 882.0, 883.0, 884.0, 883.0, 882.0, 885.0, 884.0, 884.0, 881.0, 885.0, 884.0, 882.0, 889.0, 886.0, 888.0, 886.0, 887.0, 886.0, 883.0, 887.0, 885.0, 885.0, 881.0, 882.0, 883.0, 884.0, 880.0, 880.0, 880.0, 882.0, 883.0, 887.0, 886.0, 886.0, 887.0, 882.0, 885.0, 884.0, 887.0, 884.0, 886.0, 884.0, 882.0, 884.0, 883.0, 880.0, 885.0, 883.0, 882.0, 884.0, 882.0, 882.0, 882.0, 881.0, 884.0, 883.0, 886.0, 885.0, 886.0, 889.0, 885.0, 888.0, 887.0, 884.0, 889.0, 885.0, 887.0, 884.0, 882.0, 886.0, 883.0, 886.0, 885.0, 883.0, 885.0, 883.0, 879.0, 885.0, 885.0, 884.0, 881.0, 886.0, 884.0, 881.0, 882.0, 884.0, 883.0, 887.0, 885.0, 885.0, 886.0, 881.0, 883.0, 883.0, 886.0, 882.0, 881.0, 885.0, 886.0, 887.0, 885.0, 886.0, 883.0, 884.0, 886.0, 887.0, 888.0, 888.0, 885.0, 886.0, 883.0, 879.0, 881.0, 881.0, 886.0, 884.0, 885.0, 882.0, 884.0, 884.0, 882.0, 886.0, 886.0, 885.0, 888.0, 887.0, 886.0, 886.0, 883.0, 882.0, 887.0, 884.0, 887.0, 885.0, 886.0, 887.0, 883.0, 885.0, 885.0, 884.0, 883.0, 885.0, 890.0, 887.0, 886.0]
    },
    "slices": {}
  }
}