{
  "AcquisitionMatrixPE": 96,
  "AcquisitionNumber": 1,
  "AcquisitionTime": "16:41:25.025000",
  "BandwidthPerPixelPhaseEncode": 18.939,
  "BaseResolution": 96,
  "BodyPartExamined": "BRAIN",
  "ConsistencyInfo": "N4_VE11C_LATEST_20160120",
  "ConversionSoftware": "dcm2niix",
  "ConversionSoftwareVersion": "v1.0.20170923 (OpenJPEG build) GCC6.3.0",
  "DerivedVendorReportedEchoSpacing": 0.000550011,
  "DeviceSerialNumber": "66112",
  "DwellTime": 2.3e-06,
  "EchoTime": 0.033,
  "EchoTrainLength": 96,
  "EffectiveEchoSpacing": 0.000550011,
  "FlipAngle": 64,
  "ImageType": [
    "ORIGINAL",
    "PRIMARY",
    "FMRI",
    "NONE",
    "ND",
    "NORM",
    "MOSAIC"
],
  "InstitutionAddress": "Maynard_3_Hanover_NH_US_03755",
  "InstitutionName": "Dartmouth_College_-_PBS",
  "MagneticFieldStrength": 3,
  "Manufacturer": "Siemens",
  "ManufacturersModelName": "Prisma",
  "Modality": "MR",
  "MultibandAccelerationFactor": 4,
  "PartialFourier": 1,
  "PercentPhaseFOV": 100,
  "PhaseEncodingDirection": "j-",
  "PhaseEncodingSteps": 96,
  "PhaseResolution": 1,
  "ProcedureStepDescription": "Gobbini_Matteo_1017_famface-angles",
  "ProtocolName": "func_run-05_task-str1back",
  "PulseSequenceDetails": "%SiemensSeq%_ep2d_bold",
  "ReceiveCoilActiveElements": "HEA;HEP",
  "ReceiveCoilName": "Head_32",
  "ReconMatrixPE": 96,
  "RepetitionTime": 1.25,
  "ScanOptions": "FS",
  "ScanningSequence": "EP",
  "SequenceName": "_epfid2d1_96",
  "SequenceVariant": "SK",
  "SeriesDescription": "func_run-05_task-str1back",
  "SliceTiming": [0.8775, 0, 0.615, 0.0875, 0.7025, 0.175, 0.79, 0.35, 0.965, 0.4375, 1.0525, 0.525, 1.14, 0.2625, 0.8775, 0, 0.615, 0.0875, 0.7025, 0.175, 0.79, 0.35, 0.965, 0.4375, 1.0525, 0.525, 1.14, 0.2625, 0.8775, 0, 0.615, 0.0875, 0.7025, 0.175, 0.79, 0.35, 0.965, 0.4375, 1.0525, 0.525, 1.14, 0.2625, 0.8775, 0, 0.615, 0.0875, 0.7025, 0.175, 0.79, 0.35, 0.965, 0.4375, 1.0525, 0.525, 1.14, 0.2625],
  "SoftwareVersions": "syngo_MR_E11",
  "StationName": "AWP66112",
  "TaskName": "str1back",
  "TotalReadoutTime": 0.0522511,
  "dcmmeta_affine": [
    [-2.4968180656433105, -0.09504520893096924, 0.08286155015230179, 126.8009033203125],
    [-0.09264481067657471, 2.4972221851348877, 0.0727931410074234, -110.70008087158203],
    [0.08553693443536758, -0.06962981820106506, 2.497565746307373, -79.99674224853516],
    [0.0, 0.0, 0.0, 1.0]
],
  "dcmmeta_reorient_transform": [
    [0.0, -1.0, 0.0, 95.0],
    [1.0, 0.0, 0.0, 0.0],
    [0.0, 0.0, 1.0, 0.0],
    [0.0, 0.0, 0.0, 1.0]
],
  "dcmmeta_shape": [96, 96, 56, 280],
  "dcmmeta_slice_dim": 2,
  "dcmmeta_version": 0.6,
  "global": {
    "const": {
      "AccessionNumber": "A000239",
      "AcquisitionMatrix": [96, 0, 0, 96],
      "AngioFlag": "N",
      "BitsAllocated": 16,
      "BitsStored": 12,
      "BodyPartExamined": "BRAIN",
      "Columns": 768,
      "EchoNumbers": 1,
      "EchoTime": 33.0,
      "EchoTrainLength": 96,
      "FlipAngle": 64.0,
      "HighBit": 11,
      "ImageOrientationPatient": [0.99872721977866, 0.03705792414142, 0.03421477358565, -0.0380180825564, 0.9988888304209, 0.02785192738566],
      "ImagePositionPatient": [-924.76728725537, -996.73128933664, -138.74760715121],
      "ImageType": [
        "ORIGINAL",
        "PRIMARY",
        "FMRI",
        "NONE",
        "ND",
        "NORM",
        "MOSAIC"
],
      "ImagedNucleus": "1H",
      "ImagingFrequency": 123.252394,
      "InPlanePhaseEncodingDirection": "COL",
      "MRAcquisitionType": "2D",
      "MagneticFieldStrength": 3.0,
      "Manufacturer": "SIEMENS",
      "ManufacturerModelName": "Prisma",
      "Modality": "MR",
      "NumberOfAverages": 1.0,
      "NumberOfPhaseEncodingSteps": 96,
      "PercentPhaseFieldOfView": 100.0,
      "PercentSampling": 100.0,
      "PerformedProcedureStepStartTime": "160145.008000",
      "PhotometricInterpretation": "MONOCHROME2",
      "PixelBandwidth": 2265.0,
      "PixelRepresentation": 0,
      "PixelSpacing": [2.5, 2.5],
      "PositionReferenceIndicator": "",
      "ProtocolName": "func_run-05_task-str1back",
      "RepetitionTime": 1250.0,
      "Rows": 768,
      "SAR": 0.05586939788993,
      "SamplesPerPixel": 1,
      "ScanOptions": "FS",
      "ScanningSequence": "EP",
      "SequenceName": "*epfid2d1_96",
      "SequenceVariant": "SK",
      "SeriesDescription": "func_run-05_task-str1back",
      "SeriesNumber": 36,
      "SeriesTime": "164126.513000",
      "SliceLocation": -78.93937051997,
      "SliceThickness": 2.5,
      "SmallestImagePixelValue": 0,
      "SoftwareVersions": "syngo MR E11",
      "SpacingBetweenSlices": 2.4999999678755,
      "SpecificCharacterSet": "ISO_IR 100",
      "StudyID": "1",
      "StudyTime": "160144.944000",
      "TransmitCoilName": "Body",
      "VariableFlipAngleFlag": "N",
      "WindowCenterWidthExplanation": "Algo1",
      "dBdt": 0.0},
    "slices": {}
  },
  "time": {
    "samples": {
      "AcquisitionNumber": [1, 2, 3, 4, 5, 6, 7, 8, 9, 10, 11, 12, 13, 14, 15, 16, 17, 18, 19, 20, 21, 22, 23, 24, 25, 26, 27, 28, 29, 30, 31, 32, 33, 34, 35, 36, 37, 38, 39, 40, 41, 42, 43, 44, 45, 46, 47, 48, 49, 50, 51, 52, 53, 54, 55, 56, 57, 58, 59, 60, 61, 62, 63, 64, 65, 66, 67, 68, 69, 70, 71, 72, 73, 74, 75, 76, 77, 78, 79, 80, 81, 82, 83, 84, 85, 86, 87, 88, 89, 90, 91, 92, 93, 94, 95, 96, 97, 98, 99, 100, 101, 102, 103, 104, 105, 106, 107, 108, 109, 110, 111, 112, 113, 114, 115, 116, 117, 118, 119, 120, 121, 122, 123, 124, 125, 126, 127, 128, 129, 130, 131, 132, 133, 134, 135, 136, 137, 138, 139, 140, 141, 142, 143, 144, 145, 146, 147, 148, 149, 150, 151, 152, 153, 154, 155, 156, 157, 158, 159, 160, 161, 162, 163, 164, 165, 166, 167, 168, 169, 170, 171, 172, 173, 174, 175, 176, 177, 178, 179, 180, 181, 182, 183, 184, 185, 186, 187, 188, 189, 190, 191, 192, 193, 194, 195, 196, 197, 198, 199, 200, 201, 202, 203, 204, 205, 206, 207, 208, 209, 210, 211, 212, 213, 214, 215, 216, 217, 218, 219, 220, 221, 222, 223, 224, 225, 226, 227, 228, 229, 230, 231, 232, 233, 234, 235, 236, 237, 238, 239, 240, 241, 242, 243, 244, 245, 246, 247, 248, 249, 250, 251, 252, 253, 254, 255, 256, 257, 258, 259, 260, 261, 262, 263, 264, 265, 266, 267, 268, 269, 270, 271, 272, 273, 274, 275, 276, 277, 278, 279, 280],
      "AcquisitionTime": ["164125.025000", "164126.275000", "164127.525000", "164128.775000", "164130.025000", "164131.275000", "164132.525000", "164133.775000", "164135.025000", "164136.275000", "164137.525000", "164138.775000", "164140.025000", "164141.275000", "164142.525000", "164143.775000", "164145.025000", "164146.275000", "164147.525000", "164148.775000", "164150.025000", "164151.275000", "164152.525000", "164153.775000", "164155.025000", "164156.275000", "164157.525000", "164158.775000", "164200.025000", "164201.275000", "164202.525000", "164203.775000", "164205.025000", "164206.275000", "164207.525000", "164208.775000", "164210.025000", "164211.275000", "164212.525000", "164213.775000", "164215.025000", "164216.275000", "164217.525000", "164218.775000", "164220.025000", "164221.275000", "164222.525000", "164223.775000", "164225.025000", "164226.275000", "164227.525000", "164228.775000", "164230.025000", "164231.275000", "164232.525000", "164233.775000", "164235.025000", "164236.275000", "164237.525000", "164238.775000", "164240.025000", "164241.275000", "164242.525000", "164243.775000", "164245.025000", "164246.275000", "164247.525000", "164248.775000", "164250.025000", "164251.275000", "164252.525000", "164253.775000", "164255.025000", "164256.275000", "164257.525000", "164258.775000", "164300.025000", "164301.275000", "164302.525000", "164303.775000", "164305.025000", "164306.275000", "164307.525000", "164308.775000", "164310.025000", "164311.275000", "164312.525000", "164313.775000", "164315.025000", "164316.275000", "164317.525000", "164318.775000", "164320.025000", "164321.275000", "164322.525000", "164323.775000", "164325.025000", "164326.275000", "164327.525000", "164328.775000", "164330.025000", "164331.275000", "164332.525000", "164333.775000", "164335.025000", "164336.275000", "164337.525000", "164338.775000", "164340.025000", "164341.275000", "164342.525000", "164343.775000", "164345.025000", "164346.275000", "164347.525000", "164348.775000", "164350.025000", "164351.275000", "164352.525000", "164353.775000", "164355.025000", "164356.275000", "164357.525000", "164358.775000", "164400.025000", "164401.275000", "164402.525000", "164403.775000", "164405.025000", "164406.275000", "164407.525000", "164408.775000", "164410.025000", "164411.275000", "164412.525000", "164413.775000", "164415.025000", "164416.275000", "164417.525000", "164418.775000", "164420.025000", "164421.275000", "164422.525000", "164423.775000", "164425.025000", "164426.275000", "164427.525000", "164428.775000", "164430.025000", "164431.275000", "164432.525000", "164433.775000", "164435.025000", "164436.275000", "164437.525000", "164438.775000", "164440.025000", "164441.275000", "164442.525000", "164443.775000", "164445.025000", "164446.275000", "164447.525000", "164448.775000", "164450.025000", "164451.275000", "164452.525000", "164453.775000", "164455.025000", "164456.275000", "164457.525000", "164458.775000", "164500.025000", "164501.275000", "164502.525000", "164503.775000", "164505.025000", "164506.275000", "164507.525000", "164508.775000", "164510.025000", "164511.275000", "164512.525000", "164513.775000", "164515.025000", "164516.275000", "164517.525000", "164518.775000", "164520.025000", "164521.275000", "164522.525000", "164523.775000", "164525.025000", "164526.275000", "164527.525000", "164528.775000", "164530.025000", "164531.275000", "164532.525000", "164533.775000", "164535.025000", "164536.275000", "164537.525000", "164538.775000", "164540.025000", "164541.275000", "164542.525000", "164543.775000", "164545.025000", "164546.275000", "164547.525000", "164548.775000", "164550.025000", "164551.275000", "164552.525000", "164553.775000", "164555.025000", "164556.275000", "164557.525000", "164558.775000", "164600.025000", "164601.275000", "164602.525000", "164603.775000", "164605.025000", "164606.275000", "164607.525000", "164608.775000", "164610.025000", "164611.275000", "164612.525000", "164613.775000", "164615.025000", "164616.275000", "164617.525000", "164618.775000", "164620.025000", "164621.275000", "164622.525000", "164623.775000", "164625.025000", "164626.275000", "164627.525000", "164628.775000", "164630.025000", "164631.275000", "164632.525000", "164633.775000", "164635.025000", "164636.275000", "164637.525000", "164638.775000", "164640.025000", "164641.275000", "164642.525000", "164643.775000", "164645.025000", "164646.275000", "164647.525000", "164648.775000", "164650.025000", "164651.275000", "164652.525000", "164653.775000", "164655.025000", "164656.275000", "164657.525000", "164658.775000", "164700.025000", "164701.275000", "164702.525000", "164703.775000", "164705.025000", "164706.275000", "164707.525000", "164708.775000", "164710.025000", "164711.275000", "164712.525000", "164713.775000"],
      "ContentTime": ["164126.517000", "164127.615000", "164128.821000", "164130.043000", "164131.300000", "164132.606000", "164133.816000", "164135.101000", "164136.309000", "164137.559000", "164138.797000", "164140.133000", "164141.299000", "164142.569000", "164143.811000", "164145.077000", "164146.303000", "164147.571000", "164148.793000", "164150.063000", "164151.327000", "164152.619000", "164153.799000", "164155.071000", "164156.319000", "164157.541000", "164158.839000", "164200.043000", "164201.288000", "164202.571000", "164203.847000", "164205.049000", "164206.324000", "164207.567000", "164208.838000", "164210.064000", "164211.311000", "164212.554000", "164213.819000", "164215.052000", "164216.310000", "164217.546000", "164218.808000", "164220.069000", "164221.315000", "164222.612000", "164223.882000", "164225.038000", "164226.319000", "164227.574000", "164228.791000", "164230.057000", "164231.298000", "164232.498000", "164233.827000", "164235.069000", "164236.326000", "164237.575000", "164238.803000", "164240.047000", "164241.369000", "164242.546000", "164243.810000", "164245.049000", "164246.304000", "164247.595000", "164248.823000", "164250.104000", "164251.298000", "164252.572000", "164253.791000", "164255.075000", "164256.308000", "164257.544000", "164258.803000", "164300.074000", "164301.307000", "164302.549000", "164303.775000", "164305.086000", "164306.293000", "164307.567000", "164308.808000", "164310.065000", "164311.327000", "164312.542000", "164313.795000", "164315.072000", "164316.304000", "164317.565000", "164318.834000", "164320.080000", "164321.331000", "164322.611000", "164323.828000", "164325.069000", "164326.318000", "164327.585000", "164328.790000", "164330.046000", "164331.316000", "164332.597000", "164333.778000", "164335.062000", "164336.308000", "164337.644000", "164338.836000", "164340.046000", "164341.328000", "164342.569000", "164343.776000", "164345.081000", "164346.287000", "164347.606000", "164348.836000", "164350.048000", "164351.302000", "164352.556000", "164353.825000", "164355.051000", "164356.347000", "164357.556000", "164358.795000", "164400.065000", "164401.304000", "164402.557000", "164403.852000", "164405.035000", "164406.321000", "164407.564000", "164408.894000", "164410.074000", "164411.319000", "164412.555000", "164413.854000", "164415.110000", "164416.353000", "164417.576000", "164418.834000", "164420.048000", "164421.324000", "164422.560000", "164423.845000", "164425.077000", "164426.339000", "164427.593000", "164428.791000", "164430.109000", "164431.340000", "164432.596000", "164433.813000", "164435.048000", "164436.333000", "164437.588000", "164438.813000", "164440.055000", "164441.344000", "164442.555000", "164443.808000", "164445.063000", "164446.278000", "164447.552000", "164448.827000", "164450.035000", "164451.359000", "164452.559000", "164453.832000", "164455.073000", "164456.322000", "164457.625000", "164458.817000", "164500.057000", "164501.324000", "164502.597000", "164503.813000", "164505.066000", "164506.378000", "164507.547000", "164508.805000", "164510.093000", "164511.313000", "164512.569000", "164513.804000", "164515.069000", "164516.305000", "164517.574000", "164518.825000", "164520.122000", "164521.342000", "164522.543000", "164523.829000", "164525.067000", "164526.302000", "164527.569000", "164528.821000", "164530.060000", "164531.297000", "164532.568000", "164533.808000", "164535.055000", "164536.295000", "164537.550000", "164538.805000", "164540.052000", "164541.317000", "164542.572000", "164543.830000", "164545.112000", "164546.325000", "164547.596000", "164548.820000", "164550.043000", "164551.295000", "164552.557000", "164553.791000", "164555.063000", "164556.324000", "164557.555000", "164558.815000", "164600.144000", "164601.287000", "164602.586000", "164603.903000", "164605.108000", "164606.376000", "164607.569000", "164608.795000", "164610.056000", "164611.323000", "164612.640000", "164613.809000", "164615.092000", "164616.302000", "164617.558000", "164618.787000", "164620.055000", "164621.335000", "164622.551000", "164623.823000", "164625.051000", "164626.324000", "164627.543000", "164628.824000", "164630.132000", "164631.285000", "164632.557000", "164633.813000", "164635.030000", "164636.318000", "164637.555000", "164638.794000", "164640.084000", "164641.314000", "164642.549000", "164643.793000", "164645.039000", "164646.308000", "164647.555000", "164648.819000", "164650.106000", "164651.293000", "164652.570000", "164653.817000", "164655.078000", "164656.344000", "164657.572000", "164658.806000", "164700.022000", "164701.320000", "164702.557000", "164703.806000", "164705.046000", "164706.307000", "164707.624000", "164708.817000", "164710.060000", "164711.363000", "164712.611000", "164713.820000", "164715.067000"],
      "InstanceCreationTime": ["164126.517000", "164127.615000", "164128.821000", "164130.043000", "164131.300000", "164132.606000", "164133.816000", "164135.101000", "164136.309000", "164137.559000", "164138.797000", "164140.133000", "164141.299000", "164142.569000", "164143.811000", "164145.077000", "164146.303000", "164147.571000", "164148.793000", "164150.063000", "164151.327000", "164152.619000", "164153.799000", "164155.071000", "164156.319000", "164157.541000", "164158.839000", "164200.043000", "164201.288000", "164202.571000", "164203.847000", "164205.049000", "164206.324000", "164207.567000", "164208.838000", "164210.064000", "164211.311000", "164212.554000", "164213.819000", "164215.052000", "164216.310000", "164217.546000", "164218.808000", "164220.069000", "164221.315000", "164222.612000", "164223.882000", "164225.038000", "164226.319000", "164227.574000", "164228.791000", "164230.057000", "164231.298000", "164232.498000", "164233.827000", "164235.069000", "164236.326000", "164237.575000", "164238.803000", "164240.047000", "164241.369000", "164242.546000", "164243.810000", "164245.049000", "164246.304000", "164247.595000", "164248.823000", "164250.104000", "164251.298000", "164252.572000", "164253.791000", "164255.075000", "164256.308000", "164257.544000", "164258.803000", "164300.074000", "164301.307000", "164302.549000", "164303.775000", "164305.086000", "164306.293000", "164307.567000", "164308.808000", "164310.065000", "164311.327000", "164312.542000", "164313.795000", "164315.072000", "164316.304000", "164317.565000", "164318.834000", "164320.080000", "164321.331000", "164322.611000", "164323.828000", "164325.069000", "164326.318000", "164327.585000", "164328.790000", "164330.046000", "164331.316000", "164332.597000", "164333.778000", "164335.062000", "164336.308000", "164337.644000", "164338.836000", "164340.046000", "164341.328000", "164342.569000", "164343.776000", "164345.081000", "164346.287000", "164347.606000", "164348.836000", "164350.048000", "164351.302000", "164352.556000", "164353.825000", "164355.051000", "164356.347000", "164357.556000", "164358.795000", "164400.065000", "164401.304000", "164402.557000", "164403.852000", "164405.035000", "164406.321000", "164407.564000", "164408.894000", "164410.074000", "164411.319000", "164412.555000", "164413.854000", "164415.110000", "164416.353000", "164417.576000", "164418.834000", "164420.048000", "164421.324000", "164422.560000", "164423.845000", "164425.077000", "164426.339000", "164427.593000", "164428.791000", "164430.109000", "164431.340000", "164432.596000", "164433.813000", "164435.048000", "164436.333000", "164437.588000", "164438.813000", "164440.055000", "164441.344000", "164442.555000", "164443.808000", "164445.063000", "164446.278000", "164447.552000", "164448.827000", "164450.035000", "164451.359000", "164452.559000", "164453.832000", "164455.073000", "164456.322000", "164457.625000", "164458.817000", "164500.057000", "164501.324000", "164502.597000", "164503.813000", "164505.066000", "164506.378000", "164507.547000", "164508.805000", "164510.093000", "164511.313000", "164512.569000", "164513.804000", "164515.069000", "164516.305000", "164517.574000", "164518.825000", "164520.122000", "164521.342000", "164522.543000", "164523.829000", "164525.067000", "164526.302000", "164527.569000", "164528.821000", "164530.060000", "164531.297000", "164532.568000", "164533.808000", "164535.055000", "164536.295000", "164537.550000", "164538.805000", "164540.052000", "164541.317000", "164542.572000", "164543.830000", "164545.112000", "164546.325000", "164547.596000", "164548.820000", "164550.043000", "164551.295000", "164552.557000", "164553.791000", "164555.063000", "164556.324000", "164557.555000", "164558.815000", "164600.144000", "164601.287000", "164602.586000", "164603.903000", "164605.108000", "164606.376000", "164607.569000", "164608.795000", "164610.056000", "164611.323000", "164612.640000", "164613.809000", "164615.092000", "164616.302000", "164617.558000", "164618.787000", "164620.055000", "164621.335000", "164622.551000", "164623.823000", "164625.051000", "164626.324000", "164627.543000", "164628.824000", "164630.132000", "164631.285000", "164632.557000", "164633.813000", "164635.030000", "164636.318000", "164637.555000", "164638.794000", "164640.084000", "164641.314000", "164642.549000", "164643.793000", "164645.039000", "164646.308000", "164647.555000", "164648.819000", "164650.106000", "164651.293000", "164652.570000", "164653.817000", "164655.078000", "164656.344000", "164657.572000", "164658.806000", "164700.022000", "164701.320000", "164702.557000", "164703.806000", "164705.046000", "164706.307000", "164707.624000", "164708.817000", "164710.060000", "164711.363000", "164712.611000", "164713.820000", "164715.067000"],
      "InstanceNumber": [1, 2, 3, 4, 5, 6, 7, 8, 9, 10, 11, 12, 13, 14, 15, 16, 17, 18, 19, 20, 21, 22, 23, 24, 25, 26, 27, 28, 29, 30, 31, 32, 33, 34, 35, 36, 37, 38, 39, 40, 41, 42, 43, 44, 45, 46, 47, 48, 49, 50, 51, 52, 53, 54, 55, 56, 57, 58, 59, 60, 61, 62, 63, 64, 65, 66, 67, 68, 69, 70, 71, 72, 73, 74, 75, 76, 77, 78, 79, 80, 81, 82, 83, 84, 85, 86, 87, 88, 89, 90, 91, 92, 93, 94, 95, 96, 97, 98, 99, 100, 101, 102, 103, 104, 105, 106, 107, 108, 109, 110, 111, 112, 113, 114, 115, 116, 117, 118, 119, 120, 121, 122, 123, 124, 125, 126, 127, 128, 129, 130, 131, 132, 133, 134, 135, 136, 137, 138, 139, 140, 141, 142, 143, 144, 145, 146, 147, 148, 149, 150, 151, 152, 153, 154, 155, 156, 157, 158, 159, 160, 161, 162, 163, 164, 165, 166, 167, 168, 169, 170, 171, 172, 173, 174, 175, 176, 177, 178, 179, 180, 181, 182, 183, 184, 185, 186, 187, 188, 189, 190, 191, 192, 193, 194, 195, 196, 197, 198, 199, 200, 201, 202, 203, 204, 205, 206, 207, 208, 209, 210, 211, 212, 213, 214, 215, 216, 217, 218, 219, 220, 221, 222, 223, 224, 225, 226, 227, 228, 229, 230, 231, 232, 233, 234, 235, 236, 237, 238, 239, 240, 241, 242, 243, 244, 245, 246, 247, 248, 249, 250, 251, 252, 253, 254, 255, 256, 257, 258, 259, 260, 261, 262, 263, 264, 265, 266, 267, 268, 269, 270, 271, 272, 273, 274, 275, 276, 277, 278, 279, 280],
      "LargestImagePixelValue": [1014, 1246, 1062, 1087, 1204, 1062, 1012, 1114, 877, 1013, 1345, 953, 915, 940, 937, 1485, 954, 942, 921, 910, 954, 944, 942, 1072, 906, 1194, 1170, 969, 913, 901, 962, 1182, 909, 912, 1211, 919, 1013, 1204, 966, 1469, 1040, 937, 928, 926, 1034, 1095, 929, 1072, 1054, 897, 1019, 932, 987, 1054, 948, 1076, 994, 1017, 1345, 1039, 1339, 1049, 1043, 943, 981, 1020, 1056, 909, 952, 950, 1041, 1128, 968, 969, 1011, 1056, 1262, 987, 976, 960, 1013, 1122, 1020, 1023, 1197, 984, 1004, 1076, 1033, 1055, 942, 1035, 1062, 1416, 1388, 1026, 1060, 1012, 943, 978, 965, 1018, 922, 989, 961, 1105, 1022, 1082, 1019, 1040, 1098, 931, 985, 1278, 916, 965, 983, 1000, 990, 1007, 1381, 1024, 1134, 1115, 1048, 1409, 1007, 1020, 1020, 984, 1022, 959, 1047, 1082, 1020, 1182, 1017, 1119, 1084, 1042, 1013, 965, 1083, 1032, 1010, 1125, 904, 981, 903, 956, 1076, 1101, 1068, 1045, 1003, 1055, 1094, 1010, 1029, 1112, 1216, 1035, 1002, 1040, 1031, 940, 940, 1105, 1133, 950, 1042, 1169, 1008, 970, 1212, 963, 1036, 1191, 1058, 1053, 1149, 1023, 1067, 1131, 1032, 963, 993, 961, 1065, 1284, 1056, 999, 1070, 976, 933, 957, 971, 1032, 987, 990, 980, 1272, 1075, 1106, 1147, 1067, 983, 969, 921, 1057, 1091, 1026, 1020, 992, 989, 982, 1050, 1145, 1094, 1063, 1245, 1016, 1057, 994, 958, 1051, 1049, 1040, 1067, 988, 1053, 1033, 1107, 1038, 997, 1026, 988, 991, 1054, 1099, 1053, 1274, 1078, 1002, 956, 962, 1056, 1027, 906, 1057, 1027, 1021, 1043, 995, 1224, 1440, 1037, 1011, 994, 1089, 1106, 985, 1099, 1090, 1069, 978, 960, 1039, 1109, 1062, 1022, 987, 975, 1053, 1072, 1046, 1279, 1079, 1048, 988],
      "WindowCenter": [379.0, 379.0, 377.0, 377.0, 377.0, 375.0, 375.0, 376.0, 374.0, 376.0, 378.0, 375.0, 375.0, 376.0, 375.0, 379.0, 375.0, 375.0, 374.0, 375.0, 376.0, 375.0, 376.0, 377.0, 374.0, 377.0, 376.0, 375.0, 375.0, 375.0, 375.0, 377.0, 375.0, 376.0, 378.0, 376.0, 376.0, 377.0, 375.0, 377.0, 375.0, 375.0, 375.0, 375.0, 377.0, 376.0, 375.0, 376.0, 376.0, 374.0, 376.0, 375.0, 376.0, 376.0, 375.0, 377.0, 377.0, 377.0, 378.0, 376.0, 378.0, 376.0, 376.0, 375.0, 375.0, 375.0, 375.0, 375.0, 375.0, 375.0, 376.0, 376.0, 375.0, 375.0, 376.0, 377.0, 378.0, 376.0, 375.0, 375.0, 376.0, 376.0, 376.0, 376.0, 377.0, 375.0, 376.0, 376.0, 376.0, 377.0, 376.0, 377.0, 377.0, 379.0, 378.0, 375.0, 376.0, 376.0, 375.0, 375.0, 375.0, 375.0, 375.0, 376.0, 376.0, 377.0, 376.0, 377.0, 375.0, 375.0, 376.0, 375.0, 376.0, 378.0, 375.0, 375.0, 376.0, 377.0, 376.0, 376.0, 378.0, 376.0, 376.0, 377.0, 376.0, 378.0, 376.0, 376.0, 375.0, 375.0, 375.0, 375.0, 376.0, 376.0, 376.0, 377.0, 377.0, 377.0, 376.0, 375.0, 375.0, 375.0, 376.0, 376.0, 376.0, 376.0, 374.0, 375.0, 374.0, 375.0, 377.0, 377.0, 377.0, 376.0, 375.0, 375.0, 376.0, 375.0, 375.0, 376.0, 376.0, 375.0, 374.0, 374.0, 375.0, 375.0, 375.0, 376.0, 376.0, 374.0, 375.0, 376.0, 375.0, 375.0, 377.0, 374.0, 375.0, 376.0, 375.0, 375.0, 376.0, 375.0, 376.0, 376.0, 376.0, 375.0, 376.0, 376.0, 377.0, 377.0, 375.0, 375.0, 376.0, 375.0, 375.0, 375.0, 375.0, 377.0, 376.0, 376.0, 376.0, 377.0, 376.0, 376.0, 376.0, 375.0, 375.0, 375.0, 375.0, 377.0, 376.0, 375.0, 376.0, 376.0, 376.0, 376.0, 377.0, 377.0, 377.0, 376.0, 377.0, 375.0, 376.0, 375.0, 375.0, 377.0, 377.0, 377.0, 377.0, 376.0, 377.0, 375.0, 376.0, 376.0, 375.0, 376.0, 377.0, 377.0, 377.0, 377.0, 376.0, 377.0, 375.0, 375.0, 374.0, 375.0, 376.0, 375.0, 374.0, 376.0, 376.0, 376.0, 377.0, 376.0, 377.0, 378.0, 376.0, 375.0, 375.0, 377.0, 377.0, 375.0, 376.0, 376.0, 376.0, 376.0, 375.0, 376.0, 377.0, 377.0, 376.0, 376.0, 376.0, 377.0, 378.0, 377.0, 377.0, 376.0, 376.0, 375.0],
      "WindowWidth": [805.0, 804.0, 801.0, 801.0, 801.0, 798.0, 798.0, 798.0, 797.0, 799.0, 802.0, 798.0, 798.0, 799.0, 798.0, 803.0, 799.0, 798.0, 796.0, 798.0, 799.0, 799.0, 800.0, 800.0, 797.0, 801.0, 800.0, 798.0, 798.0, 798.0, 799.0, 801.0, 798.0, 799.0, 802.0, 799.0, 800.0, 801.0, 797.0, 801.0, 797.0, 797.0, 797.0, 798.0, 800.0, 800.0, 798.0, 799.0, 799.0, 797.0, 799.0, 799.0, 800.0, 799.0, 798.0, 800.0, 800.0, 801.0, 803.0, 800.0, 801.0, 799.0, 799.0, 797.0, 798.0, 798.0, 798.0, 797.0, 798.0, 799.0, 800.0, 800.0, 798.0, 798.0, 799.0, 800.0, 802.0, 799.0, 799.0, 798.0, 799.0, 800.0, 799.0, 799.0, 801.0, 798.0, 799.0, 799.0, 799.0, 800.0, 800.0, 801.0, 802.0, 804.0, 802.0, 798.0, 799.0, 799.0, 799.0, 798.0, 798.0, 798.0, 797.0, 799.0, 800.0, 801.0, 800.0, 800.0, 798.0, 798.0, 799.0, 798.0, 800.0, 801.0, 797.0, 798.0, 799.0, 801.0, 800.0, 800.0, 803.0, 800.0, 800.0, 800.0, 799.0, 803.0, 800.0, 799.0, 798.0, 797.0, 798.0, 798.0, 799.0, 799.0, 800.0, 801.0, 801.0, 801.0, 799.0, 798.0, 798.0, 798.0, 800.0, 799.0, 799.0, 799.0, 796.0, 798.0, 797.0, 799.0, 800.0, 800.0, 800.0, 799.0, 797.0, 798.0, 799.0, 798.0, 798.0, 798.0, 798.0, 797.0, 796.0, 796.0, 797.0, 797.0, 797.0, 799.0, 798.0, 796.0, 797.0, 798.0, 798.0, 798.0, 801.0, 797.0, 798.0, 799.0, 798.0, 798.0, 799.0, 798.0, 799.0, 799.0, 799.0, 798.0, 800.0, 800.0, 800.0, 801.0, 798.0, 798.0, 799.0, 798.0, 798.0, 798.0, 798.0, 800.0, 800.0, 800.0, 800.0, 801.0, 799.0, 799.0, 798.0, 797.0, 797.0, 798.0, 798.0, 800.0, 799.0, 797.0, 799.0, 799.0, 799.0, 800.0, 800.0, 801.0, 800.0, 799.0, 800.0, 797.0, 799.0, 798.0, 798.0, 800.0, 801.0, 802.0, 801.0, 800.0, 801.0, 799.0, 799.0, 799.0, 798.0, 799.0, 801.0, 801.0, 802.0, 801.0, 799.0, 800.0, 798.0, 797.0, 796.0, 797.0, 799.0, 797.0, 797.0, 800.0, 799.0, 800.0, 800.0, 800.0, 801.0, 802.0, 799.0, 798.0, 798.0, 800.0, 800.0, 798.0, 799.0, 799.0, 800.0, 799.0, 798.0, 799.0, 800.0, 800.0, 800.0, 800.0, 800.0, 802.0, 802.0, 801.0, 801.0, 799.0, 799.0, 798.0]
    },
    "slices": {}
  }
}