{
  "AcquisitionMatrixPE": 96,
  "AcquisitionNumber": 1,
  "AcquisitionTime": "13:48:24.332500",
  "BandwidthPerPixelPhaseEncode": 18.939,
  "BaseResolution": 96,
  "BodyPartExamined": "BRAIN",
  "ConsistencyInfo": "N4_VE11C_LATEST_20160120",
  "ConversionSoftware": "dcm2niix",
  "ConversionSoftwareVersion": "v1.0.20170923 (OpenJPEG build) GCC6.3.0",
  "DerivedVendorReportedEchoSpacing": 0.000550011,
  "DeviceSerialNumber": "66112",
  "DwellTime": 2.3e-06,
  "EchoTime": 0.033,
  "EchoTrainLength": 96,
  "EffectiveEchoSpacing": 0.000550011,
  "FlipAngle": 64,
  "ImageType": [
    "ORIGINAL",
    "PRIMARY",
    "FMRI",
    "NONE",
    "ND",
    "NORM",
    "MOSAIC"
],
  "InstitutionAddress": "Maynard_3_Hanover_NH_US_03755",
  "InstitutionName": "Dartmouth_College_-_PBS",
  "MagneticFieldStrength": 3,
  "Manufacturer": "Siemens",
  "ManufacturersModelName": "Prisma",
  "Modality": "MR",
  "MultibandAccelerationFactor": 4,
  "PartialFourier": 1,
  "PercentPhaseFOV": 100,
  "PhaseEncodingDirection": "j-",
  "PhaseEncodingSteps": 96,
  "PhaseResolution": 1,
  "ProcedureStepDescription": "Gobbini_Matteo_1017_famface-angles",
  "ProtocolName": "func_run-03_task-fam1back",
  "PulseSequenceDetails": "%SiemensSeq%_ep2d_bold",
  "ReceiveCoilActiveElements": "HEA;HEP",
  "ReceiveCoilName": "Head_32",
  "ReconMatrixPE": 96,
  "RepetitionTime": 1.25,
  "ScanOptions": "FS",
  "ScanningSequence": "EP",
  "SequenceName": "_epfid2d1_96",
  "SequenceVariant": "SK",
  "SeriesDescription": "func_run-03_task-fam1back",
  "SliceTiming": [0.8775, 0, 0.615, 0.0875, 0.7025, 0.175, 0.79, 0.35, 0.965, 0.4375, 1.0525, 0.525, 1.14, 0.2625, 0.8775, 0, 0.615, 0.0875, 0.7025, 0.175, 0.79, 0.35, 0.965, 0.4375, 1.0525, 0.525, 1.14, 0.2625, 0.8775, 0, 0.615, 0.0875, 0.7025, 0.175, 0.79, 0.35, 0.965, 0.4375, 1.0525, 0.525, 1.14, 0.2625, 0.8775, 0, 0.615, 0.0875, 0.7025, 0.175, 0.79, 0.35, 0.965, 0.4375, 1.0525, 0.525, 1.14, 0.2625],
  "SoftwareVersions": "syngo_MR_E11",
  "StationName": "AWP66112",
  "TaskName": "fam1back",
  "TotalReadoutTime": 0.0522511,
  "dcmmeta_affine": [
    [-2.4952425956726074, -0.06446858495473862, 0.14003124833106995, 122.60761260986328],
    [-0.0774565041065216, 2.4877352714538574, -0.23489031195640564, -88.1751480102539],
    [0.13328705728054047, 0.23878183960914612, 2.4849987030029297, -112.67821502685547],
    [0.0, 0.0, 0.0, 1.0]
],
  "dcmmeta_reorient_transform": [
    [0.0, -1.0, 0.0, 95.0],
    [1.0, 0.0, 0.0, 0.0],
    [0.0, 0.0, 1.0, 0.0],
    [0.0, 0.0, 0.0, 1.0]
],
  "dcmmeta_shape": [96, 96, 56, 280],
  "dcmmeta_slice_dim": 2,
  "dcmmeta_version": 0.6,
  "global": {
    "const": {
      "AccessionNumber": "A000280",
      "AcquisitionMatrix": [96, 0, 0, 96],
      "AngioFlag": "N",
      "BitsAllocated": 16,
      "BitsStored": 12,
      "BodyPartExamined": "BRAIN",
      "Columns": 768,
      "EchoNumbers": 1,
      "EchoTime": 33.0,
      "EchoTrainLength": 96,
      "FlipAngle": 64.0,
      "HighBit": 11,
      "ImageOrientationPatient": [0.99809699326046, 0.03098260222472, 0.05331482349051, -0.0257874344823, 0.99509412880006, -0.0955127376347],
      "ImagePositionPatient": [-933.22312556366, -1010.0641583811, -54.547688273601],
      "ImageType": [
        "ORIGINAL",
        "PRIMARY",
        "FMRI",
        "NONE",
        "ND",
        "NORM",
        "MOSAIC"
],
      "ImagedNucleus": "1H",
      "ImagingFrequency": 123.2524,
      "InPlanePhaseEncodingDirection": "COL",
      "MRAcquisitionType": "2D",
      "MagneticFieldStrength": 3.0,
      "Manufacturer": "SIEMENS",
      "ManufacturerModelName": "Prisma",
      "Modality": "MR",
      "NumberOfAverages": 1.0,
      "NumberOfPhaseEncodingSteps": 96,
      "PercentPhaseFieldOfView": 100.0,
      "PercentSampling": 100.0,
      "PerformedProcedureStepStartTime": "131037.285000",
      "PhotometricInterpretation": "MONOCHROME2",
      "PixelBandwidth": 2265.0,
      "PixelRepresentation": 0,
      "PixelSpacing": [2.5, 2.5],
      "PositionReferenceIndicator": "",
      "ProtocolName": "func_run-03_task-fam1back",
      "RepetitionTime": 1250.0,
      "Rows": 768,
      "SAR": 0.05396283094849,
      "SamplesPerPixel": 1,
      "ScanOptions": "FS",
      "ScanningSequence": "EP",
      "SequenceName": "*epfid2d1_96",
      "SequenceVariant": "SK",
      "SeriesDescription": "func_run-03_task-fam1back",
      "SeriesNumber": 22,
      "SeriesTime": "134826.241000",
      "SliceLocation": -96.84992229324,
      "SliceThickness": 2.5,
      "SmallestImagePixelValue": 0,
      "SoftwareVersions": "syngo MR E11",
      "SpacingBetweenSlices": 2.5000000516995,
      "SpecificCharacterSet": "ISO_IR 100",
      "StudyID": "1",
      "StudyTime": "131037.194000",
      "TransmitCoilName": "Body",
      "VariableFlipAngleFlag": "N",
      "WindowCenterWidthExplanation": "Algo1",
      "dBdt": 0.0},
    "slices": {}
  },
  "time": {
    "samples": {
      "AcquisitionNumber": [1, 2, 3, 4, 5, 6, 7, 8, 9, 10, 11, 12, 13, 14, 15, 16, 17, 18, 19, 20, 21, 22, 23, 24, 25, 26, 27, 28, 29, 30, 31, 32, 33, 34, 35, 36, 37, 38, 39, 40, 41, 42, 43, 44, 45, 46, 47, 48, 49, 50, 51, 52, 53, 54, 55, 56, 57, 58, 59, 60, 61, 62, 63, 64, 65, 66, 67, 68, 69, 70, 71, 72, 73, 74, 75, 76, 77, 78, 79, 80, 81, 82, 83, 84, 85, 86, 87, 88, 89, 90, 91, 92, 93, 94, 95, 96, 97, 98, 99, 100, 101, 102, 103, 104, 105, 106, 107, 108, 109, 110, 111, 112, 113, 114, 115, 116, 117, 118, 119, 120, 121, 122, 123, 124, 125, 126, 127, 128, 129, 130, 131, 132, 133, 134, 135, 136, 137, 138, 139, 140, 141, 142, 143, 144, 145, 146, 147, 148, 149, 150, 151, 152, 153, 154, 155, 156, 157, 158, 159, 160, 161, 162, 163, 164, 165, 166, 167, 168, 169, 170, 171, 172, 173, 174, 175, 176, 177, 178, 179, 180, 181, 182, 183, 184, 185, 186, 187, 188, 189, 190, 191, 192, 193, 194, 195, 196, 197, 198, 199, 200, 201, 202, 203, 204, 205, 206, 207, 208, 209, 210, 211, 212, 213, 214, 215, 216, 217, 218, 219, 220, 221, 222, 223, 224, 225, 226, 227, 228, 229, 230, 231, 232, 233, 234, 235, 236, 237, 238, 239, 240, 241, 242, 243, 244, 245, 246, 247, 248, 249, 250, 251, 252, 253, 254, 255, 256, 257, 258, 259, 260, 261, 262, 263, 264, 265, 266, 267, 268, 269, 270, 271, 272, 273, 274, 275, 276, 277, 278, 279, 280],
      "AcquisitionTime": ["134824.332500", "134825.582500", "134826.832500", "134828.082500", "134829.332500", "134830.582500", "134831.832500", "134833.082500", "134834.332500", "134835.582500", "134836.832500", "134838.082500", "134839.332500", "134840.582500", "134841.832500", "134843.082500", "134844.332500", "134845.582500", "134846.832500", "134848.082500", "134849.332500", "134850.582500", "134851.832500", "134853.082500", "134854.332500", "134855.582500", "134856.832500", "134858.082500", "134859.332500", "134900.582500", "134901.832500", "134903.082500", "134904.332500", "134905.582500", "134906.832500", "134908.082500", "134909.332500", "134910.582500", "134911.832500", "134913.082500", "134914.332500", "134915.582500", "134916.832500", "134918.082500", "134919.332500", "134920.582500", "134921.832500", "134923.082500", "134924.332500", "134925.582500", "134926.832500", "134928.082500", "134929.332500", "134930.582500", "134931.832500", "134933.082500", "134934.332500", "134935.582500", "134936.832500", "134938.082500", "134939.332500", "134940.582500", "134941.832500", "134943.082500", "134944.332500", "134945.582500", "134946.832500", "134948.082500", "134949.332500", "134950.582500", "134951.832500", "134953.082500", "134954.332500", "134955.582500", "134956.832500", "134958.082500", "134959.332500", "135000.582500", "135001.832500", "135003.082500", "135004.332500", "135005.582500", "135006.832500", "135008.082500", "135009.332500", "135010.582500", "135011.832500", "135013.082500", "135014.332500", "135015.582500", "135016.832500", "135018.082500", "135019.332500", "135020.582500", "135021.832500", "135023.082500", "135024.332500", "135025.582500", "135026.832500", "135028.082500", "135029.332500", "135030.582500", "135031.832500", "135033.082500", "135034.332500", "135035.582500", "135036.832500", "135038.082500", "135039.332500", "135040.582500", "135041.832500", "135043.082500", "135044.332500", "135045.582500", "135046.832500", "135048.082500", "135049.332500", "135050.582500", "135051.832500", "135053.082500", "135054.332500", "135055.582500", "135056.832500", "135058.082500", "135059.332500", "135100.582500", "135101.832500", "135103.082500", "135104.332500", "135105.582500", "135106.832500", "135108.082500", "135109.332500", "135110.582500", "135111.832500", "135113.082500", "135114.332500", "135115.582500", "135116.832500", "135118.082500", "135119.332500", "135120.582500", "135121.832500", "135123.082500", "135124.332500", "135125.582500", "135126.832500", "135128.082500", "135129.332500", "135130.582500", "135131.832500", "135133.082500", "135134.332500", "135135.582500", "135136.832500", "135138.082500", "135139.332500", "135140.582500", "135141.832500", "135143.082500", "135144.332500", "135145.582500", "135146.832500", "135148.082500", "135149.332500", "135150.582500", "135151.832500", "135153.082500", "135154.332500", "135155.582500", "135156.832500", "135158.082500", "135159.332500", "135200.582500", "135201.832500", "135203.082500", "135204.332500", "135205.582500", "135206.832500", "135208.082500", "135209.332500", "135210.582500", "135211.832500", "135213.082500", "135214.332500", "135215.582500", "135216.832500", "135218.082500", "135219.332500", "135220.582500", "135221.832500", "135223.082500", "135224.332500", "135225.582500", "135226.832500", "135228.082500", "135229.332500", "135230.582500", "135231.832500", "135233.082500", "135234.332500", "135235.582500", "135236.832500", "135238.082500", "135239.332500", "135240.582500", "135241.832500", "135243.082500", "135244.332500", "135245.582500", "135246.832500", "135248.082500", "135249.332500", "135250.582500", "135251.832500", "135253.082500", "135254.332500", "135255.582500", "135256.832500", "135258.082500", "135259.332500", "135300.582500", "135301.832500", "135303.082500", "135304.332500", "135305.582500", "135306.832500", "135308.082500", "135309.332500", "135310.582500", "135311.832500", "135313.082500", "135314.332500", "135315.582500", "135316.832500", "135318.082500", "135319.332500", "135320.582500", "135321.832500", "135323.082500", "135324.332500", "135325.582500", "135326.832500", "135328.082500", "135329.332500", "135330.582500", "135331.832500", "135333.082500", "135334.332500", "135335.582500", "135336.832500", "135338.082500", "135339.332500", "135340.582500", "135341.832500", "135343.082500", "135344.332500", "135345.582500", "135346.832500", "135348.082500", "135349.332500", "135350.582500", "135351.832500", "135353.082500", "135354.332500", "135355.582500", "135356.832500", "135358.082500", "135359.332500", "135400.582500", "135401.832500", "135403.082500", "135404.332500", "135405.582500", "135406.832500", "135408.082500", "135409.332500", "135410.582500", "135411.832500", "135413.082500"],
      "ContentTime": ["134826.244000", "134827.322000", "134828.592000", "134829.830000", "134831.089000", "134832.333000", "134833.577000", "134834.847000", "134836.070000", "134837.348000", "134838.569000", "134839.840000", "134841.119000", "134842.350000", "134843.560000", "134844.837000", "134846.061000", "134847.320000", "134848.610000", "134849.827000", "134851.076000", "134852.329000", "134853.577000", "134854.867000", "134856.080000", "134857.331000", "134858.576000", "134859.866000", "134901.078000", "134902.323000", "134903.575000", "134904.841000", "134906.081000", "134907.348000", "134908.585000", "134909.839000", "134911.079000", "134912.345000", "134913.615000", "134914.822000", "134916.059000", "134917.338000", "134918.580000", "134919.828000", "134921.080000", "134922.319000", "134923.563000", "134924.837000", "134926.074000", "134927.325000", "134928.598000", "134929.819000", "134931.078000", "134932.332000", "134933.592000", "134934.823000", "134936.119000", "134937.356000", "134938.606000", "134939.837000", "134941.070000", "134942.336000", "134943.585000", "134944.875000", "134946.084000", "134947.340000", "134948.586000", "134949.827000", "134951.064000", "134952.364000", "134953.588000", "134954.851000", "134956.086000", "134957.329000", "134958.591000", "134959.822000", "135001.092000", "135002.351000", "135003.661000", "135004.804000", "135006.091000", "135007.361000", "135008.589000", "135009.819000", "135011.061000", "135012.328000", "135013.573000", "135014.849000", "135016.070000", "135017.325000", "135018.582000", "135019.839000", "135021.082000", "135022.338000", "135023.582000", "135024.840000", "135026.090000", "135027.305000", "135028.577000", "135029.823000", "135031.048000", "135032.419000", "135033.582000", "135034.842000", "135036.105000", "135037.352000", "135038.596000", "135039.833000", "135041.073000", "135042.333000", "135043.593000", "135044.855000", "135046.148000", "135047.344000", "135048.594000", "135049.851000", "135051.115000", "135052.361000", "135053.607000", "135054.816000", "135056.084000", "135057.342000", "135058.600000", "135059.854000", "135101.096000", "135102.320000", "135103.587000", "135104.843000", "135106.087000", "135107.370000", "135108.592000", "135109.883000", "135111.088000", "135112.326000", "135113.608000", "135114.840000", "135116.090000", "135117.344000", "135118.615000", "135119.789000", "135121.087000", "135122.333000", "135123.630000", "135124.868000", "135126.093000", "135127.427000", "135128.586000", "135129.860000", "135131.087000", "135132.404000", "135133.603000", "135134.850000", "135136.117000", "135137.357000", "135138.590000", "135139.827000", "135141.084000", "135142.344000", "135143.578000", "135144.830000", "135146.089000", "135147.348000", "135148.592000", "135149.853000", "135151.086000", "135152.336000", "135153.577000", "135154.831000", "135156.073000", "135157.384000", "135158.596000", "135159.846000", "135201.115000", "135202.342000", "135203.563000", "135204.855000", "135206.084000", "135207.336000", "135208.563000", "135209.856000", "135211.080000", "135212.353000", "135213.584000", "135214.835000", "135216.070000", "135217.329000", "135218.557000", "135219.857000", "135221.052000", "135222.346000", "135223.596000", "135224.840000", "135226.167000", "135227.337000", "135228.572000", "135229.826000", "135231.077000", "135232.339000", "135233.591000", "135234.842000", "135236.096000", "135237.302000", "135238.581000", "135239.824000", "135241.063000", "135242.344000", "135243.585000", "135244.844000", "135246.069000", "135247.340000", "135248.610000", "135249.835000", "135251.077000", "135252.336000", "135253.586000", "135254.847000", "135256.079000", "135257.334000", "135258.622000", "135259.836000", "135301.077000", "135302.338000", "135303.596000", "135304.832000", "135306.083000", "135307.328000", "135308.598000", "135309.839000", "135311.100000", "135312.335000", "135313.560000", "135314.857000", "135316.102000", "135317.334000", "135318.622000", "135319.852000", "135321.058000", "135322.353000", "135323.608000", "135324.846000", "135326.084000", "135327.347000", "135328.597000", "135329.861000", "135331.101000", "135332.331000", "135333.627000", "135334.878000", "135336.078000", "135337.331000", "135338.561000", "135339.823000", "135341.080000", "135342.365000", "135343.567000", "135344.819000", "135346.089000", "135347.350000", "135348.573000", "135349.840000", "135351.097000", "135352.336000", "135353.595000", "135354.845000", "135356.090000", "135357.344000", "135358.596000", "135359.855000", "135401.105000", "135402.331000", "135403.582000", "135404.862000", "135406.071000", "135407.336000", "135408.568000", "135409.851000", "135411.132000", "135412.343000", "135413.593000", "135414.878000"],
      "InstanceCreationTime": ["134826.244000", "134827.322000", "134828.592000", "134829.830000", "134831.089000", "134832.333000", "134833.577000", "134834.847000", "134836.070000", "134837.348000", "134838.569000", "134839.840000", "134841.119000", "134842.350000", "134843.560000", "134844.837000", "134846.061000", "134847.320000", "134848.610000", "134849.827000", "134851.076000", "134852.329000", "134853.577000", "134854.867000", "134856.080000", "134857.331000", "134858.576000", "134859.866000", "134901.078000", "134902.323000", "134903.575000", "134904.841000", "134906.081000", "134907.348000", "134908.585000", "134909.839000", "134911.079000", "134912.345000", "134913.615000", "134914.822000", "134916.059000", "134917.338000", "134918.580000", "134919.828000", "134921.080000", "134922.319000", "134923.563000", "134924.837000", "134926.074000", "134927.325000", "134928.598000", "134929.819000", "134931.078000", "134932.332000", "134933.592000", "134934.823000", "134936.119000", "134937.356000", "134938.606000", "134939.837000", "134941.070000", "134942.336000", "134943.585000", "134944.875000", "134946.084000", "134947.340000", "134948.586000", "134949.827000", "134951.064000", "134952.364000", "134953.588000", "134954.851000", "134956.086000", "134957.329000", "134958.591000", "134959.822000", "135001.092000", "135002.351000", "135003.661000", "135004.804000", "135006.091000", "135007.361000", "135008.589000", "135009.819000", "135011.061000", "135012.328000", "135013.573000", "135014.849000", "135016.070000", "135017.325000", "135018.582000", "135019.839000", "135021.082000", "135022.338000", "135023.582000", "135024.840000", "135026.090000", "135027.305000", "135028.577000", "135029.823000", "135031.048000", "135032.419000", "135033.582000", "135034.842000", "135036.105000", "135037.352000", "135038.596000", "135039.833000", "135041.073000", "135042.333000", "135043.593000", "135044.855000", "135046.148000", "135047.344000", "135048.594000", "135049.851000", "135051.115000", "135052.361000", "135053.607000", "135054.816000", "135056.084000", "135057.342000", "135058.600000", "135059.854000", "135101.096000", "135102.320000", "135103.587000", "135104.843000", "135106.087000", "135107.370000", "135108.592000", "135109.883000", "135111.088000", "135112.326000", "135113.608000", "135114.840000", "135116.090000", "135117.344000", "135118.615000", "135119.789000", "135121.087000", "135122.333000", "135123.630000", "135124.868000", "135126.093000", "135127.427000", "135128.586000", "135129.860000", "135131.087000", "135132.404000", "135133.603000", "135134.850000", "135136.117000", "135137.357000", "135138.590000", "135139.827000", "135141.084000", "135142.344000", "135143.578000", "135144.830000", "135146.089000", "135147.348000", "135148.592000", "135149.853000", "135151.086000", "135152.336000", "135153.577000", "135154.831000", "135156.073000", "135157.384000", "135158.596000", "135159.846000", "135201.115000", "135202.342000", "135203.563000", "135204.855000", "135206.084000", "135207.336000", "135208.563000", "135209.856000", "135211.080000", "135212.353000", "135213.584000", "135214.835000", "135216.070000", "135217.329000", "135218.557000", "135219.857000", "135221.052000", "135222.346000", "135223.596000", "135224.840000", "135226.167000", "135227.337000", "135228.572000", "135229.826000", "135231.077000", "135232.339000", "135233.591000", "135234.842000", "135236.096000", "135237.302000", "135238.581000", "135239.824000", "135241.063000", "135242.344000", "135243.585000", "135244.844000", "135246.069000", "135247.340000", "135248.610000", "135249.835000", "135251.077000", "135252.336000", "135253.586000", "135254.847000", "135256.079000", "135257.334000", "135258.622000", "135259.836000", "135301.077000", "135302.338000", "135303.596000", "135304.832000", "135306.083000", "135307.328000", "135308.598000", "135309.839000", "135311.100000", "135312.335000", "135313.560000", "135314.857000", "135316.102000", "135317.334000", "135318.622000", "135319.852000", "135321.058000", "135322.353000", "135323.608000", "135324.846000", "135326.084000", "135327.347000", "135328.597000", "135329.861000", "135331.101000", "135332.331000", "135333.627000", "135334.878000", "135336.078000", "135337.331000", "135338.561000", "135339.823000", "135341.080000", "135342.365000", "135343.567000", "135344.819000", "135346.089000", "135347.350000", "135348.573000", "135349.840000", "135351.097000", "135352.336000", "135353.595000", "135354.845000", "135356.090000", "135357.344000", "135358.596000", "135359.855000", "135401.105000", "135402.331000", "135403.582000", "135404.862000", "135406.071000", "135407.336000", "135408.568000", "135409.851000", "135411.132000", "135412.343000", "135413.593000", "135414.878000"],
      "InstanceNumber": [1, 2, 3, 4, 5, 6, 7, 8, 9, 10, 11, 12, 13, 14, 15, 16, 17, 18, 19, 20, 21, 22, 23, 24, 25, 26, 27, 28, 29, 30, 31, 32, 33, 34, 35, 36, 37, 38, 39, 40, 41, 42, 43, 44, 45, 46, 47, 48, 49, 50, 51, 52, 53, 54, 55, 56, 57, 58, 59, 60, 61, 62, 63, 64, 65, 66, 67, 68, 69, 70, 71, 72, 73, 74, 75, 76, 77, 78, 79, 80, 81, 82, 83, 84, 85, 86, 87, 88, 89, 90, 91, 92, 93, 94, 95, 96, 97, 98, 99, 100, 101, 102, 103, 104, 105, 106, 107, 108, 109, 110, 111, 112, 113, 114, 115, 116, 117, 118, 119, 120, 121, 122, 123, 124, 125, 126, 127, 128, 129, 130, 131, 132, 133, 134, 135, 136, 137, 138, 139, 140, 141, 142, 143, 144, 145, 146, 147, 148, 149, 150, 151, 152, 153, 154, 155, 156, 157, 158, 159, 160, 161, 162, 163, 164, 165, 166, 167, 168, 169, 170, 171, 172, 173, 174, 175, 176, 177, 178, 179, 180, 181, 182, 183, 184, 185, 186, 187, 188, 189, 190, 191, 192, 193, 194, 195, 196, 197, 198, 199, 200, 201, 202, 203, 204, 205, 206, 207, 208, 209, 210, 211, 212, 213, 214, 215, 216, 217, 218, 219, 220, 221, 222, 223, 224, 225, 226, 227, 228, 229, 230, 231, 232, 233, 234, 235, 236, 237, 238, 239, 240, 241, 242, 243, 244, 245, 246, 247, 248, 249, 250, 251, 252, 253, 254, 255, 256, 257, 258, 259, 260, 261, 262, 263, 264, 265, 266, 267, 268, 269, 270, 271, 272, 273, 274, 275, 276, 277, 278, 279, 280],
      "LargestImagePixelValue": [1080, 1443, 930, 838, 862, 1392, 985, 826, 1347, 940, 843, 1178, 946, 833, 706, 1228, 1044, 1096, 886, 1201, 1162, 843, 1262, 981, 1104, 1193, 867, 942, 804, 1247, 905, 1082, 1226, 903, 840, 1022, 777, 1037, 1094, 1066, 1175, 990, 894, 1094, 1207, 911, 940, 923, 985, 995, 919, 1130, 1169, 858, 941, 896, 1049, 916, 803, 1140, 1132, 996, 784, 1156, 991, 798, 729, 1094, 1071, 1178, 921, 853, 1131, 1000, 831, 1407, 908, 779, 857, 1206, 929, 822, 1099, 1135, 1005, 830, 1091, 1213, 866, 1094, 1243, 896, 878, 862, 1094, 1211, 917, 766, 1220, 1109, 895, 828, 1431, 1085, 785, 818, 1349, 919, 747, 1194, 903, 792, 945, 1184, 1030, 1009, 1089, 899, 876, 1214, 852, 1078, 1177, 775, 818, 1359, 887, 818, 1177, 933, 715, 1165, 980, 765, 1190, 1034, 1062, 838, 1137, 936, 1254, 909, 772, 736, 1370, 858, 1317, 940, 1295, 909, 685, 739, 1193, 1217, 915, 1072, 1154, 815, 795, 1228, 1002, 856, 1238, 1144, 801, 783, 935, 1233, 987, 891, 1348, 961, 769, 815, 1270, 898, 781, 1189, 926, 821, 1198, 859, 1026, 1293, 884, 811, 1198, 971, 908, 1081, 811, 1248, 872, 1108, 806, 1129, 1131, 818, 855, 1397, 883, 1097, 1110, 907, 728, 1299, 921, 877, 1218, 922, 882, 749, 1140, 1019, 1065, 1133, 1060, 931, 848, 871, 1189, 1006, 799, 824, 801, 1404, 991, 925, 1225, 1018, 898, 920, 1034, 832, 985, 1309, 1374, 1017, 991, 1082, 969, 975, 1110, 833, 837, 1276, 1240, 958, 847, 875, 1332, 933, 840, 1316, 1023, 764, 924, 1288, 922, 835, 1382, 1128, 835, 841, 1283, 1064, 790, 1159, 947, 1051, 916, 990, 875, 1226, 919, 1130, 863, 749, 1112, 1120],
      "WindowCenter": [352.0, 352.0, 348.0, 347.0, 347.0, 351.0, 348.0, 346.0, 351.0, 347.0, 346.0, 350.0, 348.0, 347.0, 346.0, 353.0, 351.0, 351.0, 348.0, 351.0, 350.0, 347.0, 350.0, 348.0, 348.0, 349.0, 347.0, 347.0, 346.0, 351.0, 347.0, 349.0, 350.0, 347.0, 347.0, 349.0, 346.0, 350.0, 350.0, 348.0, 349.0, 348.0, 347.0, 349.0, 350.0, 347.0, 347.0, 347.0, 348.0, 349.0, 348.0, 350.0, 350.0, 347.0, 348.0, 348.0, 349.0, 348.0, 346.0, 350.0, 350.0, 349.0, 346.0, 350.0, 349.0, 346.0, 346.0, 351.0, 351.0, 350.0, 348.0, 348.0, 350.0, 349.0, 348.0, 351.0, 348.0, 346.0, 347.0, 350.0, 349.0, 347.0, 349.0, 350.0, 349.0, 348.0, 350.0, 351.0, 347.0, 348.0, 349.0, 347.0, 348.0, 347.0, 350.0, 351.0, 348.0, 346.0, 351.0, 350.0, 348.0, 348.0, 352.0, 350.0, 347.0, 347.0, 352.0, 348.0, 346.0, 350.0, 347.0, 347.0, 349.0, 351.0, 349.0, 348.0, 350.0, 348.0, 348.0, 351.0, 348.0, 349.0, 351.0, 347.0, 348.0, 352.0, 348.0, 347.0, 351.0, 348.0, 345.0, 350.0, 349.0, 346.0, 351.0, 350.0, 349.0, 348.0, 350.0, 348.0, 350.0, 347.0, 346.0, 346.0, 352.0, 348.0, 352.0, 347.0, 350.0, 347.0, 345.0, 347.0, 352.0, 351.0, 348.0, 349.0, 350.0, 347.0, 346.0, 351.0, 349.0, 348.0, 350.0, 349.0, 346.0, 346.0, 348.0, 351.0, 349.0, 347.0, 351.0, 347.0, 346.0, 348.0, 352.0, 348.0, 346.0, 351.0, 348.0, 346.0, 350.0, 348.0, 349.0, 352.0, 348.0, 348.0, 350.0, 349.0, 347.0, 350.0, 348.0, 352.0, 348.0, 350.0, 347.0, 349.0, 350.0, 347.0, 348.0, 352.0, 347.0, 348.0, 348.0, 347.0, 344.0, 351.0, 348.0, 347.0, 350.0, 348.0, 347.0, 346.0, 351.0, 349.0, 349.0, 350.0, 350.0, 350.0, 349.0, 349.0, 351.0, 348.0, 346.0, 348.0, 349.0, 354.0, 350.0, 349.0, 351.0, 348.0, 347.0, 347.0, 349.0, 347.0, 348.0, 351.0, 351.0, 349.0, 349.0, 349.0, 349.0, 349.0, 350.0, 347.0, 347.0, 352.0, 351.0, 349.0, 347.0, 348.0, 352.0, 349.0, 348.0, 351.0, 349.0, 346.0, 349.0, 352.0, 349.0, 348.0, 352.0, 350.0, 347.0, 348.0, 352.0, 350.0, 347.0, 350.0, 348.0, 349.0, 348.0, 350.0, 350.0, 352.0, 348.0, 350.0, 348.0, 346.0, 351.0, 351.0],
      "WindowWidth": [753.0, 753.0, 747.0, 745.0, 744.0, 750.0, 746.0, 743.0, 750.0, 745.0, 744.0, 748.0, 747.0, 744.0, 744.0, 754.0, 751.0, 750.0, 747.0, 751.0, 749.0, 744.0, 749.0, 746.0, 746.0, 747.0, 744.0, 745.0, 744.0, 750.0, 745.0, 747.0, 748.0, 745.0, 744.0, 748.0, 745.0, 749.0, 749.0, 747.0, 748.0, 746.0, 744.0, 747.0, 748.0, 745.0, 745.0, 745.0, 747.0, 747.0, 747.0, 749.0, 750.0, 746.0, 746.0, 746.0, 748.0, 746.0, 744.0, 749.0, 749.0, 747.0, 744.0, 749.0, 747.0, 744.0, 745.0, 752.0, 750.0, 750.0, 747.0, 746.0, 749.0, 748.0, 746.0, 751.0, 746.0, 744.0, 745.0, 750.0, 748.0, 746.0, 748.0, 749.0, 749.0, 747.0, 749.0, 751.0, 746.0, 746.0, 748.0, 746.0, 747.0, 746.0, 749.0, 751.0, 746.0, 744.0, 750.0, 749.0, 746.0, 746.0, 753.0, 749.0, 746.0, 746.0, 752.0, 746.0, 744.0, 750.0, 746.0, 745.0, 748.0, 751.0, 748.0, 747.0, 749.0, 747.0, 747.0, 751.0, 746.0, 748.0, 750.0, 745.0, 746.0, 753.0, 747.0, 745.0, 750.0, 747.0, 742.0, 750.0, 749.0, 745.0, 751.0, 749.0, 748.0, 746.0, 749.0, 747.0, 749.0, 744.0, 744.0, 743.0, 753.0, 747.0, 752.0, 745.0, 748.0, 744.0, 742.0, 746.0, 752.0, 750.0, 747.0, 748.0, 749.0, 745.0, 744.0, 751.0, 748.0, 746.0, 749.0, 747.0, 743.0, 743.0, 746.0, 751.0, 748.0, 745.0, 750.0, 745.0, 744.0, 746.0, 752.0, 747.0, 744.0, 750.0, 746.0, 744.0, 750.0, 747.0, 748.0, 752.0, 747.0, 746.0, 750.0, 747.0, 746.0, 749.0, 747.0, 752.0, 747.0, 749.0, 745.0, 748.0, 749.0, 745.0, 746.0, 752.0, 745.0, 746.0, 746.0, 744.0, 741.0, 750.0, 747.0, 745.0, 749.0, 746.0, 744.0, 743.0, 750.0, 749.0, 748.0, 749.0, 750.0, 749.0, 748.0, 749.0, 751.0, 746.0, 743.0, 746.0, 750.0, 756.0, 750.0, 748.0, 750.0, 746.0, 744.0, 745.0, 747.0, 744.0, 746.0, 750.0, 750.0, 747.0, 747.0, 748.0, 747.0, 747.0, 749.0, 745.0, 746.0, 751.0, 751.0, 747.0, 746.0, 747.0, 753.0, 748.0, 746.0, 751.0, 747.0, 744.0, 748.0, 752.0, 748.0, 747.0, 753.0, 749.0, 745.0, 746.0, 753.0, 750.0, 746.0, 750.0, 746.0, 747.0, 746.0, 750.0, 750.0, 752.0, 747.0, 749.0, 746.0, 744.0, 750.0, 752.0]
    },
    "slices": {}
  }
}