{
  "AcquisitionMatrixPE": 96,
  "AcquisitionNumber": 1,
  "AcquisitionTime": "14:01:12.322500",
  "BandwidthPerPixelPhaseEncode": 18.939,
  "BaseResolution": 96,
  "BodyPartExamined": "BRAIN",
  "ConsistencyInfo": "N4_VE11C_LATEST_20160120",
  "ConversionSoftware": "dcm2niix",
  "ConversionSoftwareVersion": "v1.0.20170923 (OpenJPEG build) GCC6.3.0",
  "DerivedVendorReportedEchoSpacing": 0.000550011,
  "DeviceSerialNumber": "66112",
  "DwellTime": 2.3e-06,
  "EchoTime": 0.033,
  "EchoTrainLength": 96,
  "EffectiveEchoSpacing": 0.000550011,
  "FlipAngle": 64,
  "ImageType": [
    "ORIGINAL",
    "PRIMARY",
    "FMRI",
    "NONE",
    "ND",
    "NORM",
    "MOSAIC"
],
  "InstitutionAddress": "Maynard_3_Hanover_NH_US_03755",
  "InstitutionName": "Dartmouth_College_-_PBS",
  "MagneticFieldStrength": 3,
  "Manufacturer": "Siemens",
  "ManufacturersModelName": "Prisma",
  "Modality": "MR",
  "MultibandAccelerationFactor": 4,
  "PartialFourier": 1,
  "PercentPhaseFOV": 100,
  "PhaseEncodingDirection": "j-",
  "PhaseEncodingSteps": 96,
  "PhaseResolution": 1,
  "ProcedureStepDescription": "Gobbini_Matteo_1017_famface-angles",
  "ProtocolName": "func_run-05_task-fam1back",
  "PulseSequenceDetails": "%SiemensSeq%_ep2d_bold",
  "ReceiveCoilActiveElements": "HEA;HEP",
  "ReceiveCoilName": "Head_32",
  "ReconMatrixPE": 96,
  "RepetitionTime": 1.25,
  "ScanOptions": "FS",
  "ScanningSequence": "EP",
  "SequenceName": "_epfid2d1_96",
  "SequenceVariant": "SK",
  "SeriesDescription": "func_run-05_task-fam1back",
  "SliceTiming": [0.8775, 0, 0.615, 0.0875, 0.7025, 0.175, 0.79, 0.35, 0.965, 0.4375, 1.0525, 0.5275, 1.1425, 0.2625, 0.8775, 0, 0.615, 0.0875, 0.7025, 0.175, 0.79, 0.35, 0.965, 0.4375, 1.0525, 0.5275, 1.1425, 0.2625, 0.8775, 0, 0.615, 0.0875, 0.7025, 0.175, 0.79, 0.35, 0.965, 0.4375, 1.0525, 0.5275, 1.1425, 0.2625, 0.8775, 0, 0.615, 0.0875, 0.7025, 0.175, 0.79, 0.35, 0.965, 0.4375, 1.0525, 0.5275, 1.1425, 0.2625],
  "SoftwareVersions": "syngo_MR_E11",
  "StationName": "AWP66112",
  "TaskName": "fam1back",
  "TotalReadoutTime": 0.0522511,
  "dcmmeta_affine": [
    [-2.4952425956726074, -0.06446858495473862, 0.14003124833106995, 122.60761260986328],
    [-0.0774565041065216, 2.4877352714538574, -0.23489031195640564, -88.1751480102539],
    [0.13328705728054047, 0.23878183960914612, 2.4849987030029297, -112.67821502685547],
    [0.0, 0.0, 0.0, 1.0]
],
  "dcmmeta_reorient_transform": [
    [0.0, -1.0, 0.0, 95.0],
    [1.0, 0.0, 0.0, 0.0],
    [0.0, 0.0, 1.0, 0.0],
    [0.0, 0.0, 0.0, 1.0]
],
  "dcmmeta_shape": [96, 96, 56, 280],
  "dcmmeta_slice_dim": 2,
  "dcmmeta_version": 0.6,
  "global": {
    "const": {
      "AccessionNumber": "A000280",
      "AcquisitionMatrix": [96, 0, 0, 96],
      "AngioFlag": "N",
      "BitsAllocated": 16,
      "BitsStored": 12,
      "BodyPartExamined": "BRAIN",
      "Columns": 768,
      "EchoNumbers": 1,
      "EchoTime": 33.0,
      "EchoTrainLength": 96,
      "FlipAngle": 64.0,
      "HighBit": 11,
      "ImageOrientationPatient": [0.99809699326046, 0.03098260222472, 0.05331482349051, -0.0257874344823, 0.99509412880006, -0.0955127376347],
      "ImagePositionPatient": [-933.22312556366, -1010.0641583811, -54.547688273601],
      "ImageType": [
        "ORIGINAL",
        "PRIMARY",
        "FMRI",
        "NONE",
        "ND",
        "NORM",
        "MOSAIC"
],
      "ImagedNucleus": "1H",
      "ImagingFrequency": 123.252405,
      "InPlanePhaseEncodingDirection": "COL",
      "MRAcquisitionType": "2D",
      "MagneticFieldStrength": 3.0,
      "Manufacturer": "SIEMENS",
      "ManufacturerModelName": "Prisma",
      "Modality": "MR",
      "NumberOfAverages": 1.0,
      "NumberOfPhaseEncodingSteps": 96,
      "PercentPhaseFieldOfView": 100.0,
      "PercentSampling": 100.0,
      "PerformedProcedureStepStartTime": "131037.285000",
      "PhotometricInterpretation": "MONOCHROME2",
      "PixelBandwidth": 2265.0,
      "PixelRepresentation": 0,
      "PixelSpacing": [2.5, 2.5],
      "PositionReferenceIndicator": "",
      "ProtocolName": "func_run-05_task-fam1back",
      "RepetitionTime": 1250.0,
      "Rows": 768,
      "SAR": 0.05396283094849,
      "SamplesPerPixel": 1,
      "ScanOptions": "FS",
      "ScanningSequence": "EP",
      "SequenceName": "*epfid2d1_96",
      "SequenceVariant": "SK",
      "SeriesDescription": "func_run-05_task-fam1back",
      "SeriesNumber": 36,
      "SeriesTime": "140113.600000",
      "SliceLocation": -96.84992229324,
      "SliceThickness": 2.5,
      "SmallestImagePixelValue": 0,
      "SoftwareVersions": "syngo MR E11",
      "SpacingBetweenSlices": 2.5000000516995,
      "SpecificCharacterSet": "ISO_IR 100",
      "StudyID": "1",
      "StudyTime": "131037.194000",
      "TransmitCoilName": "Body",
      "VariableFlipAngleFlag": "N",
      "WindowCenterWidthExplanation": "Algo1",
      "dBdt": 0.0},
    "slices": {}
  },
  "time": {
    "samples": {
      "AcquisitionNumber": [1, 2, 3, 4, 5, 6, 7, 8, 9, 10, 11, 12, 13, 14, 15, 16, 17, 18, 19, 20, 21, 22, 23, 24, 25, 26, 27, 28, 29, 30, 31, 32, 33, 34, 35, 36, 37, 38, 39, 40, 41, 42, 43, 44, 45, 46, 47, 48, 49, 50, 51, 52, 53, 54, 55, 56, 57, 58, 59, 60, 61, 62, 63, 64, 65, 66, 67, 68, 69, 70, 71, 72, 73, 74, 75, 76, 77, 78, 79, 80, 81, 82, 83, 84, 85, 86, 87, 88, 89, 90, 91, 92, 93, 94, 95, 96, 97, 98, 99, 100, 101, 102, 103, 104, 105, 106, 107, 108, 109, 110, 111, 112, 113, 114, 115, 116, 117, 118, 119, 120, 121, 122, 123, 124, 125, 126, 127, 128, 129, 130, 131, 132, 133, 134, 135, 136, 137, 138, 139, 140, 141, 142, 143, 144, 145, 146, 147, 148, 149, 150, 151, 152, 153, 154, 155, 156, 157, 158, 159, 160, 161, 162, 163, 164, 165, 166, 167, 168, 169, 170, 171, 172, 173, 174, 175, 176, 177, 178, 179, 180, 181, 182, 183, 184, 185, 186, 187, 188, 189, 190, 191, 192, 193, 194, 195, 196, 197, 198, 199, 200, 201, 202, 203, 204, 205, 206, 207, 208, 209, 210, 211, 212, 213, 214, 215, 216, 217, 218, 219, 220, 221, 222, 223, 224, 225, 226, 227, 228, 229, 230, 231, 232, 233, 234, 235, 236, 237, 238, 239, 240, 241, 242, 243, 244, 245, 246, 247, 248, 249, 250, 251, 252, 253, 254, 255, 256, 257, 258, 259, 260, 261, 262, 263, 264, 265, 266, 267, 268, 269, 270, 271, 272, 273, 274, 275, 276, 277, 278, 279, 280],
      "AcquisitionTime": ["140112.322500", "140113.572500", "140114.822500", "140116.072500", "140117.322500", "140118.572500", "140119.822500", "140121.072500", "140122.322500", "140123.572500", "140124.822500", "140126.072500", "140127.322500", "140128.572500", "140129.822500", "140131.072500", "140132.322500", "140133.572500", "140134.822500", "140136.072500", "140137.322500", "140138.572500", "140139.822500", "140141.072500", "140142.322500", "140143.572500", "140144.822500", "140146.072500", "140147.322500", "140148.572500", "140149.822500", "140151.072500", "140152.322500", "140153.572500", "140154.822500", "140156.072500", "140157.322500", "140158.572500", "140159.822500", "140201.072500", "140202.322500", "140203.572500", "140204.822500", "140206.072500", "140207.322500", "140208.572500", "140209.822500", "140211.072500", "140212.322500", "140213.572500", "140214.822500", "140216.072500", "140217.322500", "140218.572500", "140219.822500", "140221.072500", "140222.322500", "140223.572500", "140224.822500", "140226.072500", "140227.322500", "140228.572500", "140229.822500", "140231.072500", "140232.322500", "140233.572500", "140234.822500", "140236.072500", "140237.322500", "140238.572500", "140239.822500", "140241.072500", "140242.322500", "140243.572500", "140244.822500", "140246.072500", "140247.322500", "140248.572500", "140249.822500", "140251.072500", "140252.322500", "140253.572500", "140254.822500", "140256.072500", "140257.322500", "140258.572500", "140259.822500", "140301.072500", "140302.322500", "140303.572500", "140304.822500", "140306.072500", "140307.322500", "140308.572500", "140309.822500", "140311.072500", "140312.322500", "140313.572500", "140314.822500", "140316.072500", "140317.322500", "140318.572500", "140319.822500", "140321.072500", "140322.322500", "140323.572500", "140324.822500", "140326.072500", "140327.322500", "140328.572500", "140329.822500", "140331.072500", "140332.322500", "140333.572500", "140334.822500", "140336.072500", "140337.322500", "140338.572500", "140339.822500", "140341.072500", "140342.322500", "140343.572500", "140344.822500", "140346.072500", "140347.322500", "140348.572500", "140349.822500", "140351.072500", "140352.322500", "140353.572500", "140354.822500", "140356.072500", "140357.322500", "140358.572500", "140359.822500", "140401.072500", "140402.322500", "140403.572500", "140404.822500", "140406.072500", "140407.322500", "140408.572500", "140409.822500", "140411.072500", "140412.322500", "140413.572500", "140414.822500", "140416.072500", "140417.322500", "140418.572500", "140419.822500", "140421.072500", "140422.322500", "140423.572500", "140424.822500", "140426.072500", "140427.322500", "140428.572500", "140429.822500", "140431.072500", "140432.322500", "140433.572500", "140434.822500", "140436.072500", "140437.322500", "140438.572500", "140439.822500", "140441.072500", "140442.322500", "140443.572500", "140444.822500", "140446.072500", "140447.322500", "140448.572500", "140449.822500", "140451.072500", "140452.322500", "140453.572500", "140454.822500", "140456.072500", "140457.322500", "140458.572500", "140459.822500", "140501.072500", "140502.322500", "140503.572500", "140504.822500", "140506.072500", "140507.322500", "140508.572500", "140509.822500", "140511.072500", "140512.322500", "140513.572500", "140514.822500", "140516.072500", "140517.322500", "140518.572500", "140519.822500", "140521.072500", "140522.322500", "140523.572500", "140524.822500", "140526.072500", "140527.322500", "140528.572500", "140529.822500", "140531.072500", "140532.322500", "140533.572500", "140534.822500", "140536.072500", "140537.322500", "140538.572500", "140539.822500", "140541.072500", "140542.322500", "140543.572500", "140544.822500", "140546.072500", "140547.322500", "140548.572500", "140549.822500", "140551.072500", "140552.322500", "140553.572500", "140554.822500", "140556.072500", "140557.322500", "140558.572500", "140559.822500", "140601.072500", "140602.322500", "140603.572500", "140604.822500", "140606.072500", "140607.322500", "140608.572500", "140609.822500", "140611.072500", "140612.322500", "140613.572500", "140614.822500", "140616.072500", "140617.322500", "140618.572500", "140619.822500", "140621.072500", "140622.322500", "140623.572500", "140624.822500", "140626.072500", "140627.322500", "140628.572500", "140629.822500", "140631.072500", "140632.322500", "140633.572500", "140634.822500", "140636.072500", "140637.322500", "140638.572500", "140639.822500", "140641.072500", "140642.322500", "140643.572500", "140644.822500", "140646.072500", "140647.322500", "140648.572500", "140649.822500", "140651.072500", "140652.322500", "140653.572500", "140654.822500", "140656.072500", "140657.322500", "140658.572500", "140659.822500", "140701.072500"],
      "ContentTime": ["140113.604000", "140114.693000", "140115.920000", "140117.142000", "140118.451000", "140119.673000", "140120.953000", "140122.162000", "140123.430000", "140124.680000", "140125.923000", "140127.146000", "140128.435000", "140129.688000", "140130.916000", "140132.206000", "140133.429000", "140134.734000", "140135.904000", "140137.175000", "140138.424000", "140139.716000", "140140.930000", "140142.191000", "140143.433000", "140144.662000", "140145.935000", "140147.240000", "140148.436000", "140149.683000", "140150.923000", "140152.156000", "140153.441000", "140154.702000", "140155.922000", "140157.183000", "140158.424000", "140159.652000", "140200.916000", "140202.176000", "140203.470000", "140204.679000", "140205.924000", "140207.165000", "140208.435000", "140209.684000", "140210.977000", "140212.198000", "140213.422000", "140214.640000", "140215.942000", "140217.169000", "140218.443000", "140219.689000", "140220.897000", "140222.206000", "140223.444000", "140224.662000", "140225.926000", "140227.188000", "140228.427000", "140229.675000", "140230.926000", "140232.249000", "140233.430000", "140234.694000", "140235.955000", "140237.200000", "140238.436000", "140239.684000", "140240.912000", "140242.186000", "140243.445000", "140244.659000", "140245.938000", "140247.190000", "140248.442000", "140249.665000", "140250.934000", "140252.182000", "140253.435000", "140254.726000", "140255.899000", "140257.207000", "140258.426000", "140259.688000", "140300.987000", "140302.197000", "140303.433000", "140304.683000", "140306.000000", "140307.190000", "140308.433000", "140309.670000", "140310.940000", "140312.161000", "140313.450000", "140314.668000", "140315.902000", "140317.180000", "140318.458000", "140319.696000", "140320.939000", "140322.182000", "140323.451000", "140324.723000", "140325.942000", "140327.205000", "140328.453000", "140329.704000", "140330.929000", "140332.179000", "140333.427000", "140334.697000", "140335.934000", "140337.191000", "140338.468000", "140339.687000", "140340.951000", "140342.188000", "140343.445000", "140344.712000", "140345.911000", "140347.182000", "140348.462000", "140349.731000", "140350.944000", "140352.188000", "140353.440000", "140354.715000", "140355.967000", "140357.223000", "140358.430000", "140359.670000", "140401.025000", "140402.174000", "140403.448000", "140404.705000", "140405.961000", "140407.191000", "140408.496000", "140409.686000", "140410.934000", "140412.191000", "140413.415000", "140414.692000", "140415.924000", "140417.234000", "140418.457000", "140419.682000", "140420.930000", "140422.167000", "140423.460000", "140424.662000", "140425.917000", "140427.210000", "140428.431000", "140429.719000", "140430.969000", "140432.202000", "140433.421000", "140434.700000", "140435.912000", "140437.226000", "140438.440000", "140439.685000", "140440.967000", "140442.191000", "140443.503000", "140444.716000", "140445.927000", "140447.167000", "140448.453000", "140449.671000", "140450.933000", "140452.221000", "140453.409000", "140454.690000", "140455.929000", "140457.198000", "140458.485000", "140459.701000", "140500.945000", "140502.184000", "140503.410000", "140504.663000", "140505.959000", "140507.177000", "140508.438000", "140509.676000", "140510.912000", "140512.202000", "140513.441000", "140514.686000", "140515.942000", "140517.183000", "140518.371000", "140519.687000", "140520.948000", "140522.126000", "140523.455000", "140524.687000", "140525.941000", "140527.197000", "140528.450000", "140529.684000", "140530.954000", "140532.197000", "140533.440000", "140534.669000", "140535.957000", "140537.196000", "140538.438000", "140539.701000", "140540.920000", "140542.190000", "140543.428000", "140544.689000", "140545.936000", "140547.199000", "140548.455000", "140549.669000", "140550.911000", "140552.204000", "140553.422000", "140554.695000", "140555.930000", "140557.182000", "140558.434000", "140559.691000", "140600.926000", "140602.176000", "140603.470000", "140604.666000", "140605.925000", "140607.188000", "140608.438000", "140609.691000", "140610.920000", "140612.164000", "140613.440000", "140614.702000", "140615.945000", "140617.176000", "140618.426000", "140619.672000", "140620.931000", "140622.185000", "140623.430000", "140624.698000", "140625.914000", "140627.178000", "140628.435000", "140629.680000", "140630.942000", "140632.180000", "140633.409000", "140634.692000", "140635.996000", "140637.204000", "140638.416000", "140639.690000", "140640.924000", "140642.233000", "140643.427000", "140644.680000", "140645.920000", "140647.195000", "140648.448000", "140649.687000", "140650.934000", "140652.175000", "140653.442000", "140654.729000", "140655.952000", "140657.181000", "140658.473000", "140659.667000", "140700.976000", "140702.245000"],
      "InstanceCreationTime": ["140113.604000", "140114.693000", "140115.920000", "140117.142000", "140118.451000", "140119.673000", "140120.953000", "140122.162000", "140123.430000", "140124.680000", "140125.923000", "140127.146000", "140128.435000", "140129.688000", "140130.916000", "140132.206000", "140133.429000", "140134.734000", "140135.904000", "140137.175000", "140138.424000", "140139.716000", "140140.930000", "140142.191000", "140143.433000", "140144.662000", "140145.935000", "140147.240000", "140148.436000", "140149.683000", "140150.923000", "140152.156000", "140153.441000", "140154.702000", "140155.922000", "140157.183000", "140158.424000", "140159.652000", "140200.916000", "140202.176000", "140203.470000", "140204.679000", "140205.924000", "140207.165000", "140208.435000", "140209.684000", "140210.977000", "140212.198000", "140213.422000", "140214.640000", "140215.942000", "140217.169000", "140218.443000", "140219.689000", "140220.897000", "140222.206000", "140223.444000", "140224.662000", "140225.926000", "140227.188000", "140228.427000", "140229.675000", "140230.926000", "140232.249000", "140233.430000", "140234.694000", "140235.955000", "140237.200000", "140238.436000", "140239.684000", "140240.912000", "140242.186000", "140243.445000", "140244.659000", "140245.938000", "140247.190000", "140248.442000", "140249.665000", "140250.934000", "140252.182000", "140253.435000", "140254.726000", "140255.899000", "140257.207000", "140258.426000", "140259.688000", "140300.987000", "140302.197000", "140303.433000", "140304.683000", "140306.000000", "140307.190000", "140308.433000", "140309.670000", "140310.940000", "140312.161000", "140313.450000", "140314.668000", "140315.902000", "140317.180000", "140318.458000", "140319.696000", "140320.939000", "140322.182000", "140323.451000", "140324.723000", "140325.942000", "140327.205000", "140328.453000", "140329.704000", "140330.929000", "140332.179000", "140333.427000", "140334.697000", "140335.934000", "140337.191000", "140338.468000", "140339.687000", "140340.951000", "140342.188000", "140343.445000", "140344.712000", "140345.911000", "140347.182000", "140348.462000", "140349.731000", "140350.944000", "140352.188000", "140353.440000", "140354.715000", "140355.967000", "140357.223000", "140358.430000", "140359.670000", "140401.025000", "140402.174000", "140403.448000", "140404.705000", "140405.961000", "140407.191000", "140408.496000", "140409.686000", "140410.934000", "140412.191000", "140413.415000", "140414.692000", "140415.924000", "140417.234000", "140418.457000", "140419.682000", "140420.930000", "140422.167000", "140423.460000", "140424.662000", "140425.917000", "140427.210000", "140428.431000", "140429.719000", "140430.969000", "140432.202000", "140433.421000", "140434.700000", "140435.912000", "140437.226000", "140438.440000", "140439.685000", "140440.967000", "140442.191000", "140443.503000", "140444.716000", "140445.927000", "140447.167000", "140448.453000", "140449.671000", "140450.933000", "140452.221000", "140453.409000", "140454.690000", "140455.929000", "140457.198000", "140458.485000", "140459.701000", "140500.945000", "140502.184000", "140503.410000", "140504.663000", "140505.959000", "140507.177000", "140508.438000", "140509.676000", "140510.912000", "140512.202000", "140513.441000", "140514.686000", "140515.942000", "140517.183000", "140518.371000", "140519.687000", "140520.948000", "140522.126000", "140523.455000", "140524.687000", "140525.941000", "140527.197000", "140528.450000", "140529.684000", "140530.954000", "140532.197000", "140533.440000", "140534.669000", "140535.957000", "140537.196000", "140538.438000", "140539.701000", "140540.920000", "140542.190000", "140543.428000", "140544.689000", "140545.936000", "140547.199000", "140548.455000", "140549.669000", "140550.911000", "140552.204000", "140553.422000", "140554.695000", "140555.930000", "140557.182000", "140558.434000", "140559.691000", "140600.926000", "140602.176000", "140603.470000", "140604.666000", "140605.925000", "140607.188000", "140608.438000", "140609.691000", "140610.920000", "140612.164000", "140613.440000", "140614.702000", "140615.945000", "140617.176000", "140618.426000", "140619.672000", "140620.931000", "140622.185000", "140623.430000", "140624.698000", "140625.914000", "140627.178000", "140628.435000", "140629.680000", "140630.942000", "140632.180000", "140633.409000", "140634.692000", "140635.996000", "140637.204000", "140638.416000", "140639.690000", "140640.924000", "140642.233000", "140643.427000", "140644.680000", "140645.920000", "140647.195000", "140648.448000", "140649.687000", "140650.934000", "140652.175000", "140653.442000", "140654.729000", "140655.952000", "140657.181000", "140658.473000", "140659.667000", "140700.976000", "140702.245000"],
      "InstanceNumber": [1, 2, 3, 4, 5, 6, 7, 8, 9, 10, 11, 12, 13, 14, 15, 16, 17, 18, 19, 20, 21, 22, 23, 24, 25, 26, 27, 28, 29, 30, 31, 32, 33, 34, 35, 36, 37, 38, 39, 40, 41, 42, 43, 44, 45, 46, 47, 48, 49, 50, 51, 52, 53, 54, 55, 56, 57, 58, 59, 60, 61, 62, 63, 64, 65, 66, 67, 68, 69, 70, 71, 72, 73, 74, 75, 76, 77, 78, 79, 80, 81, 82, 83, 84, 85, 86, 87, 88, 89, 90, 91, 92, 93, 94, 95, 96, 97, 98, 99, 100, 101, 102, 103, 104, 105, 106, 107, 108, 109, 110, 111, 112, 113, 114, 115, 116, 117, 118, 119, 120, 121, 122, 123, 124, 125, 126, 127, 128, 129, 130, 131, 132, 133, 134, 135, 136, 137, 138, 139, 140, 141, 142, 143, 144, 145, 146, 147, 148, 149, 150, 151, 152, 153, 154, 155, 156, 157, 158, 159, 160, 161, 162, 163, 164, 165, 166, 167, 168, 169, 170, 171, 172, 173, 174, 175, 176, 177, 178, 179, 180, 181, 182, 183, 184, 185, 186, 187, 188, 189, 190, 191, 192, 193, 194, 195, 196, 197, 198, 199, 200, 201, 202, 203, 204, 205, 206, 207, 208, 209, 210, 211, 212, 213, 214, 215, 216, 217, 218, 219, 220, 221, 222, 223, 224, 225, 226, 227, 228, 229, 230, 231, 232, 233, 234, 235, 236, 237, 238, 239, 240, 241, 242, 243, 244, 245, 246, 247, 248, 249, 250, 251, 252, 253, 254, 255, 256, 257, 258, 259, 260, 261, 262, 263, 264, 265, 266, 267, 268, 269, 270, 271, 272, 273, 274, 275, 276, 277, 278, 279, 280],
      "LargestImagePixelValue": [1150, 1024, 999, 736, 1147, 1136, 880, 835, 1241, 924, 801, 844, 978, 1184, 856, 838, 798, 773, 1238, 956, 857, 848, 1234, 992, 848, 878, 851, 1156, 930, 832, 1189, 938, 794, 747, 1218, 999, 780, 1179, 853, 854, 873, 1105, 805, 840, 1148, 905, 1213, 835, 856, 785, 1181, 881, 1143, 965, 908, 714, 978, 1084, 864, 781, 1089, 1106, 882, 769, 895, 1238, 858, 833, 1226, 950, 728, 867, 1223, 881, 933, 885, 854, 766, 1115, 910, 804, 1186, 1028, 905, 720, 1206, 1058, 888, 845, 801, 802, 1242, 977, 815, 762, 1218, 947, 821, 803, 854, 704, 1257, 1044, 923, 705, 778, 1233, 915, 803, 1128, 1121, 955, 782, 828, 1208, 963, 855, 872, 973, 1130, 864, 779, 694, 1221, 880, 1239, 1031, 703, 708, 691, 1210, 896, 1222, 1088, 795, 1224, 857, 766, 1143, 999, 881, 920, 986, 765, 1000, 1207, 878, 828, 894, 746, 788, 1276, 1147, 913, 841, 827, 993, 1093, 934, 832, 745, 1140, 1214, 874, 825, 840, 1265, 892, 880, 1072, 1085, 839, 811, 1054, 968, 829, 1264, 880, 871, 720, 1212, 942, 820, 820, 1254, 1073, 729, 901, 721, 1213, 979, 838, 1148, 1168, 906, 801, 894, 812, 1080, 1163, 957, 848, 915, 794, 717, 1281, 963, 863, 785, 1282, 914, 760, 796, 765, 1214, 898, 992, 1045, 1064, 895, 804, 1111, 1221, 1066, 752, 793, 1297, 892, 847, 870, 1285, 847, 806, 776, 1218, 802, 985, 1113, 774, 759, 903, 1188, 889, 1080, 1268, 825, 788, 881, 722, 1147, 959, 1251, 1026, 949, 1029, 810, 810, 705, 1190, 925, 1217, 868, 713, 1210, 947, 824, 1130, 1109, 929, 739, 1207, 947, 800, 792, 1261, 858, 760, 774, 1073, 1141],
      "WindowCenter": [351.0, 349.0, 348.0, 346.0, 350.0, 350.0, 348.0, 347.0, 351.0, 348.0, 347.0, 347.0, 349.0, 351.0, 348.0, 348.0, 347.0, 347.0, 351.0, 349.0, 348.0, 348.0, 351.0, 349.0, 347.0, 348.0, 348.0, 351.0, 349.0, 347.0, 350.0, 348.0, 347.0, 347.0, 351.0, 349.0, 346.0, 350.0, 347.0, 347.0, 348.0, 351.0, 348.0, 348.0, 351.0, 348.0, 351.0, 347.0, 348.0, 347.0, 351.0, 348.0, 350.0, 347.0, 347.0, 345.0, 350.0, 350.0, 348.0, 347.0, 350.0, 350.0, 348.0, 346.0, 349.0, 351.0, 348.0, 347.0, 351.0, 348.0, 346.0, 348.0, 351.0, 348.0, 348.0, 347.0, 347.0, 346.0, 351.0, 349.0, 347.0, 351.0, 349.0, 347.0, 345.0, 350.0, 349.0, 347.0, 346.0, 346.0, 347.0, 351.0, 348.0, 346.0, 345.0, 350.0, 348.0, 347.0, 347.0, 348.0, 346.0, 351.0, 350.0, 348.0, 345.0, 347.0, 351.0, 349.0, 347.0, 350.0, 350.0, 349.0, 347.0, 347.0, 351.0, 349.0, 348.0, 348.0, 349.0, 351.0, 347.0, 346.0, 346.0, 352.0, 349.0, 351.0, 349.0, 346.0, 346.0, 347.0, 353.0, 348.0, 351.0, 350.0, 346.0, 351.0, 348.0, 347.0, 350.0, 348.0, 348.0, 348.0, 349.0, 347.0, 349.0, 350.0, 347.0, 347.0, 348.0, 346.0, 347.0, 351.0, 350.0, 348.0, 346.0, 346.0, 348.0, 349.0, 348.0, 347.0, 346.0, 351.0, 351.0, 348.0, 347.0, 348.0, 351.0, 348.0, 348.0, 349.0, 349.0, 348.0, 347.0, 350.0, 349.0, 347.0, 351.0, 348.0, 348.0, 346.0, 351.0, 350.0, 349.0, 348.0, 352.0, 350.0, 346.0, 348.0, 346.0, 352.0, 350.0, 347.0, 350.0, 350.0, 348.0, 347.0, 348.0, 347.0, 349.0, 350.0, 348.0, 347.0, 348.0, 347.0, 346.0, 352.0, 349.0, 348.0, 347.0, 351.0, 348.0, 347.0, 348.0, 347.0, 352.0, 348.0, 349.0, 350.0, 350.0, 349.0, 348.0, 351.0, 351.0, 349.0, 347.0, 347.0, 351.0, 348.0, 347.0, 348.0, 351.0, 347.0, 347.0, 347.0, 351.0, 347.0, 348.0, 350.0, 346.0, 347.0, 349.0, 352.0, 349.0, 350.0, 351.0, 347.0, 347.0, 348.0, 346.0, 351.0, 349.0, 351.0, 348.0, 347.0, 348.0, 347.0, 347.0, 346.0, 351.0, 348.0, 351.0, 347.0, 345.0, 351.0, 349.0, 347.0, 350.0, 349.0, 348.0, 345.0, 350.0, 348.0, 346.0, 347.0, 351.0, 347.0, 347.0, 347.0, 350.0, 351.0],
      "WindowWidth": [752.0, 748.0, 747.0, 744.0, 750.0, 749.0, 746.0, 745.0, 750.0, 746.0, 745.0, 745.0, 748.0, 750.0, 747.0, 747.0, 745.0, 746.0, 751.0, 748.0, 746.0, 746.0, 750.0, 747.0, 745.0, 746.0, 746.0, 750.0, 748.0, 745.0, 749.0, 746.0, 745.0, 745.0, 751.0, 748.0, 744.0, 749.0, 745.0, 745.0, 746.0, 750.0, 747.0, 747.0, 751.0, 746.0, 750.0, 745.0, 746.0, 745.0, 750.0, 746.0, 749.0, 745.0, 744.0, 743.0, 749.0, 750.0, 747.0, 746.0, 750.0, 750.0, 746.0, 744.0, 748.0, 751.0, 746.0, 745.0, 750.0, 746.0, 744.0, 746.0, 750.0, 746.0, 746.0, 745.0, 745.0, 745.0, 752.0, 749.0, 746.0, 751.0, 747.0, 745.0, 743.0, 749.0, 748.0, 745.0, 744.0, 743.0, 744.0, 750.0, 747.0, 744.0, 742.0, 749.0, 746.0, 745.0, 746.0, 747.0, 745.0, 751.0, 749.0, 746.0, 743.0, 745.0, 751.0, 748.0, 746.0, 749.0, 750.0, 747.0, 745.0, 745.0, 750.0, 748.0, 747.0, 747.0, 748.0, 750.0, 746.0, 744.0, 743.0, 752.0, 748.0, 750.0, 747.0, 743.0, 744.0, 746.0, 754.0, 748.0, 750.0, 748.0, 744.0, 750.0, 746.0, 745.0, 750.0, 746.0, 746.0, 747.0, 748.0, 745.0, 748.0, 749.0, 744.0, 744.0, 746.0, 744.0, 745.0, 751.0, 749.0, 746.0, 744.0, 744.0, 746.0, 748.0, 747.0, 745.0, 744.0, 751.0, 751.0, 746.0, 746.0, 746.0, 751.0, 747.0, 746.0, 747.0, 748.0, 746.0, 746.0, 749.0, 748.0, 745.0, 750.0, 746.0, 746.0, 744.0, 751.0, 749.0, 748.0, 747.0, 753.0, 749.0, 744.0, 747.0, 744.0, 752.0, 749.0, 745.0, 749.0, 749.0, 746.0, 744.0, 746.0, 745.0, 748.0, 749.0, 747.0, 746.0, 747.0, 745.0, 744.0, 752.0, 748.0, 747.0, 744.0, 750.0, 746.0, 745.0, 747.0, 746.0, 753.0, 748.0, 748.0, 749.0, 750.0, 748.0, 747.0, 751.0, 750.0, 748.0, 745.0, 745.0, 751.0, 747.0, 745.0, 746.0, 750.0, 745.0, 745.0, 745.0, 751.0, 745.0, 747.0, 749.0, 744.0, 746.0, 749.0, 752.0, 748.0, 749.0, 750.0, 745.0, 744.0, 746.0, 744.0, 751.0, 748.0, 750.0, 746.0, 744.0, 746.0, 744.0, 745.0, 744.0, 752.0, 747.0, 750.0, 745.0, 743.0, 751.0, 748.0, 745.0, 749.0, 748.0, 746.0, 742.0, 749.0, 746.0, 744.0, 744.0, 751.0, 745.0, 745.0, 746.0, 750.0, 752.0]
    },
    "slices": {}
  }
}