{
  "AcquisitionMatrixPE": 96,
  "AcquisitionNumber": 1,
  "AcquisitionTime": "14:15:36.860000",
  "BandwidthPerPixelPhaseEncode": 18.939,
  "BaseResolution": 96,
  "BodyPartExamined": "BRAIN",
  "ConsistencyInfo": "N4_VE11C_LATEST_20160120",
  "ConversionSoftware": "dcm2niix",
  "ConversionSoftwareVersion": "v1.0.20170923 (OpenJPEG build) GCC6.3.0",
  "DerivedVendorReportedEchoSpacing": 0.000550011,
  "DeviceSerialNumber": "66112",
  "DwellTime": 2.3e-06,
  "EchoTime": 0.033,
  "EchoTrainLength": 96,
  "EffectiveEchoSpacing": 0.000550011,
  "FlipAngle": 64,
  "ImageType": [
    "ORIGINAL",
    "PRIMARY",
    "FMRI",
    "NONE",
    "ND",
    "NORM",
    "MOSAIC"
],
  "InstitutionAddress": "Maynard_3_Hanover_NH_US_03755",
  "InstitutionName": "Dartmouth_College_-_PBS",
  "MagneticFieldStrength": 3,
  "Manufacturer": "Siemens",
  "ManufacturersModelName": "Prisma",
  "Modality": "MR",
  "MultibandAccelerationFactor": 4,
  "PartialFourier": 1,
  "PercentPhaseFOV": 100,
  "PhaseEncodingDirection": "j-",
  "PhaseEncodingSteps": 96,
  "PhaseResolution": 1,
  "ProcedureStepDescription": "Gobbini_Matteo_1017_famface-angles",
  "ProtocolName": "func_run-07_task-str1back",
  "PulseSequenceDetails": "%SiemensSeq%_ep2d_bold",
  "ReceiveCoilActiveElements": "HEA;HEP",
  "ReceiveCoilName": "Head_32",
  "ReconMatrixPE": 96,
  "RepetitionTime": 1.25,
  "ScanOptions": "FS",
  "ScanningSequence": "EP",
  "SequenceName": "_epfid2d1_96",
  "SequenceVariant": "SK",
  "SeriesDescription": "func_run-07_task-str1back",
  "SliceTiming": [0.8775, 0, 0.615, 0.0875, 0.7025, 0.175, 0.79, 0.35, 0.965, 0.4375, 1.0525, 0.525, 1.14, 0.2625, 0.8775, 0, 0.615, 0.0875, 0.7025, 0.175, 0.79, 0.35, 0.965, 0.4375, 1.0525, 0.525, 1.14, 0.2625, 0.8775, 0, 0.615, 0.0875, 0.7025, 0.175, 0.79, 0.35, 0.965, 0.4375, 1.0525, 0.525, 1.14, 0.2625, 0.8775, 0, 0.615, 0.0875, 0.7025, 0.175, 0.79, 0.35, 0.965, 0.4375, 1.0525, 0.525, 1.14, 0.2625],
  "SoftwareVersions": "syngo_MR_E11",
  "StationName": "AWP66112",
  "TaskName": "str1back",
  "TotalReadoutTime": 0.0522511,
  "dcmmeta_affine": [
    [-2.4952425956726074, -0.06446858495473862, 0.14003124833106995, 122.60761260986328],
    [-0.0774565041065216, 2.4877352714538574, -0.23489031195640564, -88.1751480102539],
    [0.13328705728054047, 0.23878183960914612, 2.4849987030029297, -112.67821502685547],
    [0.0, 0.0, 0.0, 1.0]
],
  "dcmmeta_reorient_transform": [
    [0.0, -1.0, 0.0, 95.0],
    [1.0, 0.0, 0.0, 0.0],
    [0.0, 0.0, 1.0, 0.0],
    [0.0, 0.0, 0.0, 1.0]
],
  "dcmmeta_shape": [96, 96, 56, 280],
  "dcmmeta_slice_dim": 2,
  "dcmmeta_version": 0.6,
  "global": {
    "const": {
      "AccessionNumber": "A000280",
      "AcquisitionMatrix": [96, 0, 0, 96],
      "AngioFlag": "N",
      "BitsAllocated": 16,
      "BitsStored": 12,
      "BodyPartExamined": "BRAIN",
      "Columns": 768,
      "EchoNumbers": 1,
      "EchoTime": 33.0,
      "EchoTrainLength": 96,
      "FlipAngle": 64.0,
      "HighBit": 11,
      "ImageOrientationPatient": [0.99809699326046, 0.03098260222472, 0.05331482349051, -0.0257874344823, 0.99509412880006, -0.0955127376347],
      "ImagePositionPatient": [-933.22312556366, -1010.0641583811, -54.547688273601],
      "ImageType": [
        "ORIGINAL",
        "PRIMARY",
        "FMRI",
        "NONE",
        "ND",
        "NORM",
        "MOSAIC"
],
      "ImagedNucleus": "1H",
      "ImagingFrequency": 123.252405,
      "InPlanePhaseEncodingDirection": "COL",
      "MRAcquisitionType": "2D",
      "MagneticFieldStrength": 3.0,
      "Manufacturer": "SIEMENS",
      "ManufacturerModelName": "Prisma",
      "Modality": "MR",
      "NumberOfAverages": 1.0,
      "NumberOfPhaseEncodingSteps": 96,
      "PercentPhaseFieldOfView": 100.0,
      "PercentSampling": 100.0,
      "PerformedProcedureStepStartTime": "131037.285000",
      "PhotometricInterpretation": "MONOCHROME2",
      "PixelBandwidth": 2265.0,
      "PixelRepresentation": 0,
      "PixelSpacing": [2.5, 2.5],
      "PositionReferenceIndicator": "",
      "ProtocolName": "func_run-07_task-str1back",
      "RepetitionTime": 1250.0,
      "Rows": 768,
      "SAR": 0.05396283094849,
      "SamplesPerPixel": 1,
      "ScanOptions": "FS",
      "ScanningSequence": "EP",
      "SequenceName": "*epfid2d1_96",
      "SequenceVariant": "SK",
      "SeriesDescription": "func_run-07_task-str1back",
      "SeriesNumber": 50,
      "SeriesTime": "141538.583000",
      "SliceLocation": -96.84992229324,
      "SliceThickness": 2.5,
      "SmallestImagePixelValue": 0,
      "SoftwareVersions": "syngo MR E11",
      "SpacingBetweenSlices": 2.5000000516995,
      "SpecificCharacterSet": "ISO_IR 100",
      "StudyID": "1",
      "StudyTime": "131037.194000",
      "TransmitCoilName": "Body",
      "VariableFlipAngleFlag": "N",
      "WindowCenterWidthExplanation": "Algo1",
      "dBdt": 0.0},
    "slices": {}
  },
  "time": {
    "samples": {
      "AcquisitionNumber": [1, 2, 3, 4, 5, 6, 7, 8, 9, 10, 11, 12, 13, 14, 15, 16, 17, 18, 19, 20, 21, 22, 23, 24, 25, 26, 27, 28, 29, 30, 31, 32, 33, 34, 35, 36, 37, 38, 39, 40, 41, 42, 43, 44, 45, 46, 47, 48, 49, 50, 51, 52, 53, 54, 55, 56, 57, 58, 59, 60, 61, 62, 63, 64, 65, 66, 67, 68, 69, 70, 71, 72, 73, 74, 75, 76, 77, 78, 79, 80, 81, 82, 83, 84, 85, 86, 87, 88, 89, 90, 91, 92, 93, 94, 95, 96, 97, 98, 99, 100, 101, 102, 103, 104, 105, 106, 107, 108, 109, 110, 111, 112, 113, 114, 115, 116, 117, 118, 119, 120, 121, 122, 123, 124, 125, 126, 127, 128, 129, 130, 131, 132, 133, 134, 135, 136, 137, 138, 139, 140, 141, 142, 143, 144, 145, 146, 147, 148, 149, 150, 151, 152, 153, 154, 155, 156, 157, 158, 159, 160, 161, 162, 163, 164, 165, 166, 167, 168, 169, 170, 171, 172, 173, 174, 175, 176, 177, 178, 179, 180, 181, 182, 183, 184, 185, 186, 187, 188, 189, 190, 191, 192, 193, 194, 195, 196, 197, 198, 199, 200, 201, 202, 203, 204, 205, 206, 207, 208, 209, 210, 211, 212, 213, 214, 215, 216, 217, 218, 219, 220, 221, 222, 223, 224, 225, 226, 227, 228, 229, 230, 231, 232, 233, 234, 235, 236, 237, 238, 239, 240, 241, 242, 243, 244, 245, 246, 247, 248, 249, 250, 251, 252, 253, 254, 255, 256, 257, 258, 259, 260, 261, 262, 263, 264, 265, 266, 267, 268, 269, 270, 271, 272, 273, 274, 275, 276, 277, 278, 279, 280],
      "AcquisitionTime": ["141536.860000", "141538.110000", "141539.360000", "141540.610000", "141541.860000", "141543.110000", "141544.360000", "141545.610000", "141546.860000", "141548.110000", "141549.360000", "141550.610000", "141551.860000", "141553.110000", "141554.360000", "141555.610000", "141556.860000", "141558.110000", "141559.360000", "141600.610000", "141601.860000", "141603.110000", "141604.360000", "141605.610000", "141606.860000", "141608.110000", "141609.360000", "141610.610000", "141611.860000", "141613.110000", "141614.360000", "141615.610000", "141616.860000", "141618.110000", "141619.360000", "141620.610000", "141621.860000", "141623.110000", "141624.360000", "141625.610000", "141626.860000", "141628.110000", "141629.360000", "141630.610000", "141631.860000", "141633.110000", "141634.360000", "141635.610000", "141636.860000", "141638.110000", "141639.360000", "141640.610000", "141641.860000", "141643.110000", "141644.360000", "141645.610000", "141646.860000", "141648.110000", "141649.360000", "141650.610000", "141651.860000", "141653.110000", "141654.360000", "141655.610000", "141656.860000", "141658.110000", "141659.360000", "141700.610000", "141701.860000", "141703.110000", "141704.360000", "141705.610000", "141706.860000", "141708.110000", "141709.360000", "141710.610000", "141711.860000", "141713.110000", "141714.360000", "141715.610000", "141716.860000", "141718.110000", "141719.360000", "141720.610000", "141721.860000", "141723.110000", "141724.360000", "141725.610000", "141726.860000", "141728.110000", "141729.360000", "141730.610000", "141731.860000", "141733.110000", "141734.360000", "141735.610000", "141736.860000", "141738.110000", "141739.360000", "141740.610000", "141741.860000", "141743.110000", "141744.360000", "141745.610000", "141746.860000", "141748.110000", "141749.360000", "141750.610000", "141751.860000", "141753.110000", "141754.360000", "141755.610000", "141756.860000", "141758.110000", "141759.360000", "141800.610000", "141801.860000", "141803.110000", "141804.360000", "141805.610000", "141806.860000", "141808.110000", "141809.360000", "141810.610000", "141811.860000", "141813.110000", "141814.360000", "141815.610000", "141816.860000", "141818.110000", "141819.360000", "141820.610000", "141821.860000", "141823.110000", "141824.360000", "141825.610000", "141826.860000", "141828.110000", "141829.360000", "141830.610000", "141831.860000", "141833.110000", "141834.360000", "141835.610000", "141836.860000", "141838.110000", "141839.360000", "141840.610000", "141841.860000", "141843.110000", "141844.360000", "141845.610000", "141846.860000", "141848.110000", "141849.360000", "141850.610000", "141851.860000", "141853.110000", "141854.360000", "141855.610000", "141856.860000", "141858.110000", "141859.360000", "141900.610000", "141901.860000", "141903.110000", "141904.360000", "141905.610000", "141906.860000", "141908.110000", "141909.360000", "141910.610000", "141911.860000", "141913.110000", "141914.360000", "141915.610000", "141916.860000", "141918.110000", "141919.360000", "141920.610000", "141921.860000", "141923.110000", "141924.360000", "141925.610000", "141926.860000", "141928.110000", "141929.360000", "141930.610000", "141931.860000", "141933.110000", "141934.360000", "141935.610000", "141936.860000", "141938.110000", "141939.360000", "141940.610000", "141941.860000", "141943.110000", "141944.360000", "141945.610000", "141946.860000", "141948.110000", "141949.360000", "141950.610000", "141951.860000", "141953.110000", "141954.360000", "141955.610000", "141956.860000", "141958.110000", "141959.360000", "142000.610000", "142001.860000", "142003.110000", "142004.360000", "142005.610000", "142006.860000", "142008.110000", "142009.360000", "142010.610000", "142011.860000", "142013.110000", "142014.360000", "142015.610000", "142016.860000", "142018.110000", "142019.360000", "142020.610000", "142021.860000", "142023.110000", "142024.360000", "142025.610000", "142026.860000", "142028.110000", "142029.360000", "142030.610000", "142031.860000", "142033.110000", "142034.360000", "142035.610000", "142036.860000", "142038.110000", "142039.360000", "142040.610000", "142041.860000", "142043.110000", "142044.360000", "142045.610000", "142046.860000", "142048.110000", "142049.360000", "142050.610000", "142051.860000", "142053.110000", "142054.360000", "142055.610000", "142056.860000", "142058.110000", "142059.360000", "142100.610000", "142101.860000", "142103.110000", "142104.360000", "142105.610000", "142106.860000", "142108.110000", "142109.360000", "142110.610000", "142111.860000", "142113.110000", "142114.360000", "142115.610000", "142116.860000", "142118.110000", "142119.360000", "142120.610000", "142121.860000", "142123.110000", "142124.360000", "142125.610000"],
      "ContentTime": ["141538.587000", "141539.659000", "141540.906000", "141542.146000", "141543.419000", "141544.659000", "141545.897000", "141547.156000", "141548.394000", "141549.668000", "141550.887000", "141552.142000", "141553.388000", "141554.643000", "141555.860000", "141557.153000", "141558.383000", "141559.641000", "141600.891000", "141602.156000", "141603.407000", "141604.650000", "141605.879000", "141607.167000", "141608.470000", "141609.642000", "141610.895000", "141612.109000", "141613.405000", "141614.630000", "141615.856000", "141617.107000", "141618.471000", "141619.660000", "141620.876000", "141622.131000", "141623.422000", "141624.600000", "141625.902000", "141627.144000", "141628.431000", "141629.658000", "141630.893000", "141632.152000", "141633.405000", "141634.670000", "141635.882000", "141637.138000", "141638.408000", "141639.634000", "141640.880000", "141642.155000", "141643.398000", "141644.645000", "141645.943000", "141647.099000", "141648.403000", "141649.661000", "141650.929000", "141652.136000", "141653.391000", "141654.617000", "141655.897000", "141657.127000", "141658.426000", "141659.670000", "141700.921000", "141702.158000", "141703.398000", "141704.670000", "141705.884000", "141707.138000", "141708.394000", "141709.652000", "141710.905000", "141712.141000", "141713.434000", "141714.668000", "141715.892000", "141717.191000", "141718.428000", "141719.630000", "141720.917000", "141722.145000", "141723.389000", "141724.622000", "141725.871000", "141727.157000", "141728.401000", "141729.619000", "141730.875000", "141732.141000", "141733.398000", "141734.641000", "141735.954000", "141737.147000", "141738.342000", "141739.686000", "141740.898000", "141742.145000", "141743.413000", "141744.674000", "141745.909000", "141747.192000", "141748.392000", "141749.612000", "141750.899000", "141752.133000", "141753.408000", "141754.665000", "141755.890000", "141757.162000", "141758.442000", "141759.696000", "141800.908000", "141802.166000", "141803.422000", "141804.644000", "141805.885000", "141807.161000", "141808.413000", "141809.628000", "141810.947000", "141812.161000", "141813.394000", "141814.655000", "141815.891000", "141817.171000", "141818.422000", "141819.647000", "141820.918000", "141822.146000", "141823.408000", "141824.728000", "141825.899000", "141827.169000", "141828.376000", "141829.644000", "141830.909000", "141832.241000", "141833.407000", "141834.639000", "141835.915000", "141837.162000", "141838.391000", "141839.677000", "141840.895000", "141842.153000", "141843.396000", "141844.640000", "141845.886000", "141847.151000", "141848.402000", "141849.643000", "141850.907000", "141852.153000", "141853.396000", "141854.634000", "141855.891000", "141857.167000", "141858.419000", "141859.644000", "141900.917000", "141902.176000", "141903.391000", "141904.650000", "141905.897000", "141907.139000", "141908.406000", "141909.647000", "141910.902000", "141912.169000", "141913.428000", "141914.638000", "141915.886000", "141917.114000", "141918.402000", "141919.646000", "141920.926000", "141922.162000", "141923.392000", "141924.718000", "141925.928000", "141927.160000", "141928.384000", "141929.731000", "141930.898000", "141932.154000", "141933.391000", "141934.642000", "141935.881000", "141937.148000", "141938.421000", "141939.643000", "141940.891000", "141942.181000", "141943.386000", "141944.682000", "141945.887000", "141947.146000", "141948.404000", "141949.696000", "141950.898000", "141952.172000", "141953.403000", "141954.709000", "141955.899000", "141957.158000", "141958.401000", "141959.666000", "142000.924000", "142002.118000", "142003.417000", "142004.687000", "142005.891000", "142007.145000", "142008.405000", "142009.670000", "142010.916000", "142012.159000", "142013.364000", "142014.621000", "142015.894000", "142017.144000", "142018.448000", "142019.609000", "142020.913000", "142022.153000", "142023.415000", "142024.676000", "142025.905000", "142027.161000", "142028.388000", "142029.645000", "142030.874000", "142032.157000", "142033.438000", "142034.625000", "142035.875000", "142037.143000", "142038.397000", "142039.642000", "142040.907000", "142042.197000", "142043.442000", "142044.624000", "142045.883000", "142047.132000", "142048.439000", "142049.704000", "142050.923000", "142052.213000", "142053.407000", "142054.597000", "142055.922000", "142057.147000", "142058.444000", "142059.637000", "142100.909000", "142102.136000", "142103.411000", "142104.655000", "142105.892000", "142107.190000", "142108.398000", "142109.666000", "142110.910000", "142112.206000", "142113.406000", "142114.661000", "142115.914000", "142117.152000", "142118.431000", "142119.643000", "142120.862000", "142122.158000", "142123.407000", "142124.749000", "142125.885000", "142127.208000"],
      "InstanceCreationTime": ["141538.587000", "141539.659000", "141540.906000", "141542.146000", "141543.419000", "141544.659000", "141545.897000", "141547.156000", "141548.394000", "141549.668000", "141550.887000", "141552.142000", "141553.388000", "141554.643000", "141555.860000", "141557.153000", "141558.383000", "141559.641000", "141600.891000", "141602.156000", "141603.407000", "141604.650000", "141605.879000", "141607.167000", "141608.470000", "141609.642000", "141610.895000", "141612.109000", "141613.405000", "141614.630000", "141615.856000", "141617.107000", "141618.471000", "141619.660000", "141620.876000", "141622.131000", "141623.422000", "141624.600000", "141625.902000", "141627.144000", "141628.431000", "141629.658000", "141630.893000", "141632.152000", "141633.405000", "141634.670000", "141635.882000", "141637.138000", "141638.408000", "141639.634000", "141640.880000", "141642.155000", "141643.398000", "141644.645000", "141645.943000", "141647.099000", "141648.403000", "141649.661000", "141650.929000", "141652.136000", "141653.391000", "141654.617000", "141655.897000", "141657.127000", "141658.426000", "141659.670000", "141700.921000", "141702.158000", "141703.398000", "141704.670000", "141705.884000", "141707.138000", "141708.394000", "141709.652000", "141710.905000", "141712.141000", "141713.434000", "141714.668000", "141715.892000", "141717.191000", "141718.428000", "141719.630000", "141720.917000", "141722.145000", "141723.389000", "141724.622000", "141725.871000", "141727.157000", "141728.401000", "141729.619000", "141730.875000", "141732.141000", "141733.398000", "141734.641000", "141735.954000", "141737.147000", "141738.342000", "141739.686000", "141740.898000", "141742.145000", "141743.413000", "141744.674000", "141745.909000", "141747.192000", "141748.392000", "141749.612000", "141750.899000", "141752.133000", "141753.408000", "141754.665000", "141755.890000", "141757.162000", "141758.442000", "141759.696000", "141800.908000", "141802.166000", "141803.422000", "141804.644000", "141805.885000", "141807.161000", "141808.413000", "141809.628000", "141810.947000", "141812.161000", "141813.394000", "141814.655000", "141815.891000", "141817.171000", "141818.422000", "141819.647000", "141820.918000", "141822.146000", "141823.408000", "141824.728000", "141825.899000", "141827.169000", "141828.376000", "141829.644000", "141830.909000", "141832.241000", "141833.407000", "141834.639000", "141835.915000", "141837.162000", "141838.391000", "141839.677000", "141840.895000", "141842.153000", "141843.396000", "141844.640000", "141845.886000", "141847.151000", "141848.402000", "141849.643000", "141850.907000", "141852.153000", "141853.396000", "141854.634000", "141855.891000", "141857.167000", "141858.419000", "141859.644000", "141900.917000", "141902.176000", "141903.391000", "141904.650000", "141905.897000", "141907.139000", "141908.406000", "141909.647000", "141910.902000", "141912.169000", "141913.428000", "141914.638000", "141915.886000", "141917.114000", "141918.402000", "141919.646000", "141920.926000", "141922.162000", "141923.392000", "141924.718000", "141925.928000", "141927.160000", "141928.384000", "141929.731000", "141930.898000", "141932.154000", "141933.391000", "141934.642000", "141935.881000", "141937.148000", "141938.421000", "141939.643000", "141940.891000", "141942.181000", "141943.386000", "141944.682000", "141945.887000", "141947.146000", "141948.404000", "141949.696000", "141950.898000", "141952.172000", "141953.403000", "141954.709000", "141955.899000", "141957.158000", "141958.401000", "141959.666000", "142000.924000", "142002.118000", "142003.417000", "142004.687000", "142005.891000", "142007.145000", "142008.405000", "142009.670000", "142010.916000", "142012.159000", "142013.364000", "142014.621000", "142015.894000", "142017.144000", "142018.448000", "142019.609000", "142020.913000", "142022.153000", "142023.415000", "142024.676000", "142025.905000", "142027.161000", "142028.388000", "142029.645000", "142030.874000", "142032.157000", "142033.438000", "142034.625000", "142035.875000", "142037.143000", "142038.397000", "142039.642000", "142040.907000", "142042.197000", "142043.442000", "142044.624000", "142045.883000", "142047.132000", "142048.439000", "142049.704000", "142050.923000", "142052.213000", "142053.407000", "142054.597000", "142055.922000", "142057.147000", "142058.444000", "142059.637000", "142100.909000", "142102.136000", "142103.411000", "142104.655000", "142105.892000", "142107.190000", "142108.398000", "142109.666000", "142110.910000", "142112.206000", "142113.406000", "142114.661000", "142115.914000", "142117.152000", "142118.431000", "142119.643000", "142120.862000", "142122.158000", "142123.407000", "142124.749000", "142125.885000", "142127.208000"],
      "InstanceNumber": [1, 2, 3, 4, 5, 6, 7, 8, 9, 10, 11, 12, 13, 14, 15, 16, 17, 18, 19, 20, 21, 22, 23, 24, 25, 26, 27, 28, 29, 30, 31, 32, 33, 34, 35, 36, 37, 38, 39, 40, 41, 42, 43, 44, 45, 46, 47, 48, 49, 50, 51, 52, 53, 54, 55, 56, 57, 58, 59, 60, 61, 62, 63, 64, 65, 66, 67, 68, 69, 70, 71, 72, 73, 74, 75, 76, 77, 78, 79, 80, 81, 82, 83, 84, 85, 86, 87, 88, 89, 90, 91, 92, 93, 94, 95, 96, 97, 98, 99, 100, 101, 102, 103, 104, 105, 106, 107, 108, 109, 110, 111, 112, 113, 114, 115, 116, 117, 118, 119, 120, 121, 122, 123, 124, 125, 126, 127, 128, 129, 130, 131, 132, 133, 134, 135, 136, 137, 138, 139, 140, 141, 142, 143, 144, 145, 146, 147, 148, 149, 150, 151, 152, 153, 154, 155, 156, 157, 158, 159, 160, 161, 162, 163, 164, 165, 166, 167, 168, 169, 170, 171, 172, 173, 174, 175, 176, 177, 178, 179, 180, 181, 182, 183, 184, 185, 186, 187, 188, 189, 190, 191, 192, 193, 194, 195, 196, 197, 198, 199, 200, 201, 202, 203, 204, 205, 206, 207, 208, 209, 210, 211, 212, 213, 214, 215, 216, 217, 218, 219, 220, 221, 222, 223, 224, 225, 226, 227, 228, 229, 230, 231, 232, 233, 234, 235, 236, 237, 238, 239, 240, 241, 242, 243, 244, 245, 246, 247, 248, 249, 250, 251, 252, 253, 254, 255, 256, 257, 258, 259, 260, 261, 262, 263, 264, 265, 266, 267, 268, 269, 270, 271, 272, 273, 274, 275, 276, 277, 278, 279, 280],
      "LargestImagePixelValue": [1343, 1025, 816, 839, 1032, 1117, 872, 777, 743, 1086, 1020, 807, 893, 1089, 1093, 829, 850, 975, 1237, 867, 831, 788, 706, 883, 1136, 1078, 1043, 827, 882, 1192, 919, 877, 811, 867, 1226, 954, 814, 836, 980, 765, 783, 1155, 976, 921, 991, 802, 839, 870, 817, 877, 1137, 1086, 867, 811, 875, 777, 735, 818, 842, 771, 890, 998, 917, 836, 860, 844, 817, 812, 968, 963, 1039, 780, 837, 1202, 1095, 889, 831, 871, 1000, 1200, 855, 846, 897, 1139, 859, 860, 724, 1182, 834, 758, 1117, 838, 724, 1009, 891, 1257, 833, 714, 1151, 883, 785, 1149, 837, 868, 1064, 824, 775, 1151, 814, 754, 703, 740, 1155, 1153, 887, 796, 1122, 1185, 827, 1142, 1104, 830, 1097, 882, 795, 820, 799, 1179, 879, 859, 1176, 935, 786, 761, 1168, 833, 771, 1022, 1019, 809, 801, 918, 1215, 853, 838, 814, 742, 1108, 1112, 958, 807, 822, 830, 909, 1130, 970, 931, 840, 900, 1165, 893, 845, 726, 817, 1169, 944, 857, 785, 875, 1097, 934, 819, 934, 1276, 882, 823, 741, 897, 892, 756, 1130, 827, 1138, 1067, 1047, 810, 832, 859, 788, 902, 1208, 1018, 862, 765, 870, 1223, 849, 828, 947, 1171, 909, 820, 897, 1231, 871, 825, 756, 740, 1185, 888, 855, 736, 715, 828, 970, 1286, 1108, 977, 1080, 1059, 955, 832, 850, 1193, 799, 744, 765, 1203, 846, 791, 1025, 1139, 811, 825, 1093, 1045, 833, 778, 986, 1148, 830, 788, 1072, 1061, 825, 776, 1175, 837, 755, 840, 1109, 875, 726, 1155, 875, 776, 1113, 918, 873, 814, 1127, 835, 829, 727, 1211, 930, 1056, 900, 879, 1243, 855, 782, 893, 1097, 839, 807, 1204, 846, 777, 1139],
      "WindowCenter": [352.0, 348.0, 347.0, 347.0, 348.0, 349.0, 347.0, 346.0, 345.0, 350.0, 349.0, 347.0, 348.0, 350.0, 350.0, 348.0, 349.0, 349.0, 351.0, 347.0, 347.0, 346.0, 346.0, 349.0, 352.0, 350.0, 349.0, 346.0, 346.0, 349.0, 347.0, 347.0, 347.0, 348.0, 351.0, 348.0, 347.0, 347.0, 348.0, 346.0, 347.0, 350.0, 348.0, 348.0, 348.0, 346.0, 347.0, 348.0, 347.0, 348.0, 350.0, 350.0, 348.0, 347.0, 348.0, 346.0, 346.0, 347.0, 347.0, 347.0, 349.0, 349.0, 348.0, 346.0, 346.0, 346.0, 346.0, 347.0, 349.0, 348.0, 348.0, 345.0, 346.0, 349.0, 349.0, 347.0, 347.0, 347.0, 348.0, 350.0, 347.0, 346.0, 347.0, 349.0, 346.0, 346.0, 345.0, 351.0, 347.0, 345.0, 349.0, 347.0, 347.0, 350.0, 349.0, 351.0, 347.0, 346.0, 351.0, 348.0, 347.0, 351.0, 347.0, 347.0, 350.0, 347.0, 347.0, 350.0, 347.0, 346.0, 345.0, 348.0, 352.0, 351.0, 348.0, 347.0, 350.0, 350.0, 346.0, 349.0, 348.0, 345.0, 348.0, 346.0, 346.0, 346.0, 347.0, 350.0, 348.0, 346.0, 349.0, 348.0, 347.0, 347.0, 351.0, 348.0, 347.0, 349.0, 350.0, 347.0, 348.0, 349.0, 351.0, 348.0, 347.0, 347.0, 346.0, 350.0, 350.0, 348.0, 347.0, 347.0, 347.0, 348.0, 351.0, 349.0, 348.0, 346.0, 347.0, 350.0, 348.0, 347.0, 345.0, 347.0, 351.0, 348.0, 348.0, 347.0, 348.0, 349.0, 349.0, 348.0, 349.0, 351.0, 347.0, 346.0, 345.0, 348.0, 348.0, 347.0, 352.0, 349.0, 348.0, 350.0, 349.0, 347.0, 347.0, 347.0, 346.0, 348.0, 351.0, 349.0, 347.0, 346.0, 348.0, 351.0, 347.0, 347.0, 348.0, 350.0, 348.0, 347.0, 348.0, 351.0, 347.0, 347.0, 345.0, 345.0, 351.0, 349.0, 348.0, 345.0, 345.0, 349.0, 350.0, 352.0, 349.0, 347.0, 347.0, 347.0, 346.0, 346.0, 346.0, 349.0, 345.0, 345.0, 346.0, 351.0, 347.0, 347.0, 349.0, 350.0, 347.0, 347.0, 349.0, 349.0, 347.0, 347.0, 349.0, 350.0, 348.0, 347.0, 350.0, 349.0, 347.0, 346.0, 350.0, 347.0, 347.0, 348.0, 350.0, 348.0, 346.0, 351.0, 349.0, 347.0, 351.0, 348.0, 348.0, 347.0, 350.0, 348.0, 347.0, 346.0, 352.0, 349.0, 350.0, 348.0, 347.0, 351.0, 347.0, 347.0, 348.0, 349.0, 346.0, 346.0, 350.0, 347.0, 347.0, 350.0],
      "WindowWidth": [754.0, 747.0, 745.0, 745.0, 747.0, 748.0, 745.0, 743.0, 742.0, 749.0, 748.0, 746.0, 747.0, 749.0, 750.0, 747.0, 748.0, 748.0, 750.0, 745.0, 745.0, 743.0, 743.0, 749.0, 752.0, 749.0, 747.0, 743.0, 744.0, 748.0, 744.0, 745.0, 746.0, 746.0, 751.0, 747.0, 746.0, 745.0, 747.0, 743.0, 745.0, 749.0, 747.0, 746.0, 746.0, 744.0, 745.0, 746.0, 744.0, 746.0, 749.0, 749.0, 746.0, 746.0, 746.0, 744.0, 744.0, 745.0, 745.0, 745.0, 749.0, 748.0, 746.0, 744.0, 744.0, 743.0, 743.0, 745.0, 748.0, 747.0, 746.0, 743.0, 744.0, 748.0, 747.0, 745.0, 745.0, 745.0, 747.0, 749.0, 745.0, 744.0, 744.0, 747.0, 744.0, 744.0, 742.0, 750.0, 745.0, 743.0, 748.0, 745.0, 746.0, 750.0, 748.0, 750.0, 745.0, 743.0, 750.0, 746.0, 746.0, 751.0, 746.0, 745.0, 748.0, 745.0, 745.0, 749.0, 745.0, 743.0, 743.0, 747.0, 753.0, 752.0, 747.0, 744.0, 748.0, 749.0, 744.0, 747.0, 745.0, 741.0, 745.0, 744.0, 743.0, 744.0, 744.0, 749.0, 746.0, 744.0, 748.0, 746.0, 745.0, 746.0, 750.0, 747.0, 745.0, 749.0, 749.0, 746.0, 747.0, 748.0, 751.0, 747.0, 746.0, 745.0, 744.0, 750.0, 750.0, 747.0, 746.0, 745.0, 746.0, 747.0, 750.0, 748.0, 747.0, 744.0, 745.0, 749.0, 746.0, 744.0, 743.0, 746.0, 750.0, 747.0, 746.0, 745.0, 746.0, 749.0, 748.0, 747.0, 748.0, 750.0, 745.0, 744.0, 743.0, 746.0, 746.0, 745.0, 754.0, 749.0, 745.0, 751.0, 748.0, 745.0, 745.0, 745.0, 744.0, 746.0, 750.0, 748.0, 745.0, 744.0, 747.0, 751.0, 746.0, 745.0, 746.0, 749.0, 746.0, 746.0, 746.0, 750.0, 745.0, 744.0, 743.0, 743.0, 750.0, 748.0, 746.0, 743.0, 743.0, 748.0, 749.0, 753.0, 748.0, 744.0, 743.0, 743.0, 743.0, 742.0, 742.0, 746.0, 742.0, 742.0, 743.0, 750.0, 746.0, 745.0, 748.0, 750.0, 746.0, 745.0, 748.0, 748.0, 745.0, 745.0, 748.0, 750.0, 746.0, 745.0, 749.0, 749.0, 745.0, 744.0, 749.0, 745.0, 745.0, 746.0, 750.0, 746.0, 743.0, 750.0, 748.0, 746.0, 751.0, 747.0, 746.0, 745.0, 749.0, 746.0, 746.0, 745.0, 753.0, 749.0, 749.0, 746.0, 745.0, 750.0, 745.0, 745.0, 746.0, 748.0, 744.0, 743.0, 749.0, 746.0, 746.0, 750.0]
    },
    "slices": {}
  }
}