{
  "AcquisitionMatrixPE": 96,
  "AcquisitionNumber": 1,
  "AcquisitionTime": "14:08:7.897500",
  "BandwidthPerPixelPhaseEncode": 18.939,
  "BaseResolution": 96,
  "BodyPartExamined": "BRAIN",
  "ConsistencyInfo": "N4_VE11C_LATEST_20160120",
  "ConversionSoftware": "dcm2niix",
  "ConversionSoftwareVersion": "v1.0.20170923 (OpenJPEG build) GCC6.3.0",
  "DerivedVendorReportedEchoSpacing": 0.000550011,
  "DeviceSerialNumber": "66112",
  "DwellTime": 2.3e-06,
  "EchoTime": 0.033,
  "EchoTrainLength": 96,
  "EffectiveEchoSpacing": 0.000550011,
  "FlipAngle": 64,
  "ImageType": [
    "ORIGINAL",
    "PRIMARY",
    "FMRI",
    "NONE",
    "ND",
    "NORM",
    "MOSAIC"
],
  "InstitutionAddress": "Maynard_3_Hanover_NH_US_03755",
  "InstitutionName": "Dartmouth_College_-_PBS",
  "MagneticFieldStrength": 3,
  "Manufacturer": "Siemens",
  "ManufacturersModelName": "Prisma",
  "Modality": "MR",
  "MultibandAccelerationFactor": 4,
  "PartialFourier": 1,
  "PercentPhaseFOV": 100,
  "PhaseEncodingDirection": "j-",
  "PhaseEncodingSteps": 96,
  "PhaseResolution": 1,
  "ProcedureStepDescription": "Gobbini_Matteo_1017_famface-angles",
  "ProtocolName": "func_run-06_task-localizer",
  "PulseSequenceDetails": "%SiemensSeq%_ep2d_bold",
  "ReceiveCoilActiveElements": "HEA;HEP",
  "ReceiveCoilName": "Head_32",
  "ReconMatrixPE": 96,
  "RepetitionTime": 1.25,
  "ScanOptions": "FS",
  "ScanningSequence": "EP",
  "SequenceName": "_epfid2d1_96",
  "SequenceVariant": "SK",
  "SeriesDescription": "func_run-06_task-localizer",
  "SliceTiming": [0.8775, 0, 0.615, 0.0875, 0.7025, 0.175, 0.79, 0.35, 0.965, 0.4375, 1.0525, 0.525, 1.14, 0.2625, 0.8775, 0, 0.615, 0.0875, 0.7025, 0.175, 0.79, 0.35, 0.965, 0.4375, 1.0525, 0.525, 1.14, 0.2625, 0.8775, 0, 0.615, 0.0875, 0.7025, 0.175, 0.79, 0.35, 0.965, 0.4375, 1.0525, 0.525, 1.14, 0.2625, 0.8775, 0, 0.615, 0.0875, 0.7025, 0.175, 0.79, 0.35, 0.965, 0.4375, 1.0525, 0.525, 1.14, 0.2625],
  "SoftwareVersions": "syngo_MR_E11",
  "StationName": "AWP66112",
  "TaskName": "localizer",
  "TotalReadoutTime": 0.0522511,
  "dcmmeta_affine": [
    [-2.4952425956726074, -0.06446858495473862, 0.14003124833106995, 122.60761260986328],
    [-0.0774565041065216, 2.4877352714538574, -0.23489031195640564, -88.1751480102539],
    [0.13328705728054047, 0.23878183960914612, 2.4849987030029297, -112.67821502685547],
    [0.0, 0.0, 0.0, 1.0]
],
  "dcmmeta_reorient_transform": [
    [0.0, -1.0, 0.0, 95.0],
    [1.0, 0.0, 0.0, 0.0],
    [0.0, 0.0, 1.0, 0.0],
    [0.0, 0.0, 0.0, 1.0]
],
  "dcmmeta_shape": [96, 96, 56, 325],
  "dcmmeta_slice_dim": 2,
  "dcmmeta_version": 0.6,
  "global": {
    "const": {
      "AccessionNumber": "A000280",
      "AcquisitionMatrix": [96, 0, 0, 96],
      "AngioFlag": "N",
      "BitsAllocated": 16,
      "BitsStored": 12,
      "BodyPartExamined": "BRAIN",
      "Columns": 768,
      "EchoNumbers": 1,
      "EchoTime": 33.0,
      "EchoTrainLength": 96,
      "FlipAngle": 64.0,
      "HighBit": 11,
      "ImageOrientationPatient": [0.99809699326046, 0.03098260222472, 0.05331482349051, -0.0257874344823, 0.99509412880006, -0.0955127376347],
      "ImagePositionPatient": [-933.22312556366, -1010.0641583811, -54.547688273601],
      "ImageType": [
        "ORIGINAL",
        "PRIMARY",
        "FMRI",
        "NONE",
        "ND",
        "NORM",
        "MOSAIC"
],
      "ImagedNucleus": "1H",
      "ImagingFrequency": 123.252406,
      "InPlanePhaseEncodingDirection": "COL",
      "MRAcquisitionType": "2D",
      "MagneticFieldStrength": 3.0,
      "Manufacturer": "SIEMENS",
      "ManufacturerModelName": "Prisma",
      "Modality": "MR",
      "NumberOfAverages": 1.0,
      "NumberOfPhaseEncodingSteps": 96,
      "PercentPhaseFieldOfView": 100.0,
      "PercentSampling": 100.0,
      "PerformedProcedureStepStartTime": "131037.285000",
      "PhotometricInterpretation": "MONOCHROME2",
      "PixelBandwidth": 2265.0,
      "PixelRepresentation": 0,
      "PixelSpacing": [2.5, 2.5],
      "PositionReferenceIndicator": "",
      "ProtocolName": "func_run-06_task-localizer",
      "RepetitionTime": 1250.0,
      "Rows": 768,
      "SAR": 0.05403622089615,
      "SamplesPerPixel": 1,
      "ScanOptions": "FS",
      "ScanningSequence": "EP",
      "SequenceName": "*epfid2d1_96",
      "SequenceVariant": "SK",
      "SeriesDescription": "func_run-06_task-localizer",
      "SeriesNumber": 43,
      "SeriesTime": "140809.495000",
      "SliceLocation": -96.84992229324,
      "SliceThickness": 2.5,
      "SmallestImagePixelValue": 0,
      "SoftwareVersions": "syngo MR E11",
      "SpacingBetweenSlices": 2.5000000516995,
      "SpecificCharacterSet": "ISO_IR 100",
      "StudyID": "1",
      "StudyTime": "131037.194000",
      "TransmitCoilName": "Body",
      "VariableFlipAngleFlag": "N",
      "WindowCenterWidthExplanation": "Algo1",
      "dBdt": 0.0},
    "slices": {}
  },
  "time": {
    "samples": {
      "AcquisitionNumber": [1, 2, 3, 4, 5, 6, 7, 8, 9, 10, 11, 12, 13, 14, 15, 16, 17, 18, 19, 20, 21, 22, 23, 24, 25, 26, 27, 28, 29, 30, 31, 32, 33, 34, 35, 36, 37, 38, 39, 40, 41, 42, 43, 44, 45, 46, 47, 48, 49, 50, 51, 52, 53, 54, 55, 56, 57, 58, 59, 60, 61, 62, 63, 64, 65, 66, 67, 68, 69, 70, 71, 72, 73, 74, 75, 76, 77, 78, 79, 80, 81, 82, 83, 84, 85, 86, 87, 88, 89, 90, 91, 92, 93, 94, 95, 96, 97, 98, 99, 100, 101, 102, 103, 104, 105, 106, 107, 108, 109, 110, 111, 112, 113, 114, 115, 116, 117, 118, 119, 120, 121, 122, 123, 124, 125, 126, 127, 128, 129, 130, 131, 132, 133, 134, 135, 136, 137, 138, 139, 140, 141, 142, 143, 144, 145, 146, 147, 148, 149, 150, 151, 152, 153, 154, 155, 156, 157, 158, 159, 160, 161, 162, 163, 164, 165, 166, 167, 168, 169, 170, 171, 172, 173, 174, 175, 176, 177, 178, 179, 180, 181, 182, 183, 184, 185, 186, 187, 188, 189, 190, 191, 192, 193, 194, 195, 196, 197, 198, 199, 200, 201, 202, 203, 204, 205, 206, 207, 208, 209, 210, 211, 212, 213, 214, 215, 216, 217, 218, 219, 220, 221, 222, 223, 224, 225, 226, 227, 228, 229, 230, 231, 232, 233, 234, 235, 236, 237, 238, 239, 240, 241, 242, 243, 244, 245, 246, 247, 248, 249, 250, 251, 252, 253, 254, 255, 256, 257, 258, 259, 260, 261, 262, 263, 264, 265, 266, 267, 268, 269, 270, 271, 272, 273, 274, 275, 276, 277, 278, 279, 280, 281, 282, 283, 284, 285, 286, 287, 288, 289, 290, 291, 292, 293, 294, 295, 296, 297, 298, 299, 300, 301, 302, 303, 304, 305, 306, 307, 308, 309, 310, 311, 312, 313, 314, 315, 316, 317, 318, 319, 320, 321, 322, 323, 324, 325],
      "AcquisitionTime": ["140807.897500", "140809.147500", "140810.397500", "140811.647500", "140812.897500", "140814.147500", "140815.397500", "140816.647500", "140817.897500", "140819.147500", "140820.397500", "140821.647500", "140822.897500", "140824.147500", "140825.397500", "140826.647500", "140827.897500", "140829.147500", "140830.397500", "140831.647500", "140832.897500", "140834.147500", "140835.397500", "140836.647500", "140837.897500", "140839.147500", "140840.397500", "140841.647500", "140842.897500", "140844.147500", "140845.397500", "140846.647500", "140847.897500", "140849.147500", "140850.397500", "140851.647500", "140852.897500", "140854.147500", "140855.397500", "140856.647500", "140857.897500", "140859.147500", "140900.397500", "140901.647500", "140902.897500", "140904.147500", "140905.397500", "140906.647500", "140907.897500", "140909.147500", "140910.397500", "140911.647500", "140912.897500", "140914.147500", "140915.397500", "140916.647500", "140917.897500", "140919.147500", "140920.397500", "140921.647500", "140922.897500", "140924.147500", "140925.397500", "140926.647500", "140927.897500", "140929.147500", "140930.397500", "140931.647500", "140932.897500", "140934.147500", "140935.397500", "140936.647500", "140937.897500", "140939.147500", "140940.397500", "140941.647500", "140942.897500", "140944.147500", "140945.397500", "140946.647500", "140947.897500", "140949.147500", "140950.397500", "140951.647500", "140952.897500", "140954.147500", "140955.397500", "140956.647500", "140957.897500", "140959.147500", "141000.397500", "141001.647500", "141002.897500", "141004.147500", "141005.397500", "141006.647500", "141007.897500", "141009.147500", "141010.397500", "141011.647500", "141012.897500", "141014.147500", "141015.397500", "141016.647500", "141017.897500", "141019.147500", "141020.397500", "141021.647500", "141022.897500", "141024.147500", "141025.397500", "141026.647500", "141027.897500", "141029.147500", "141030.397500", "141031.647500", "141032.897500", "141034.147500", "141035.397500", "141036.647500", "141037.897500", "141039.147500", "141040.397500", "141041.647500", "141042.897500", "141044.147500", "141045.397500", "141046.647500", "141047.897500", "141049.147500", "141050.397500", "141051.647500", "141052.897500", "141054.147500", "141055.397500", "141056.647500", "141057.897500", "141059.147500", "141100.397500", "141101.647500", "141102.897500", "141104.147500", "141105.397500", "141106.647500", "141107.897500", "141109.147500", "141110.397500", "141111.647500", "141112.897500", "141114.147500", "141115.397500", "141116.647500", "141117.897500", "141119.147500", "141120.397500", "141121.647500", "141122.897500", "141124.147500", "141125.397500", "141126.647500", "141127.897500", "141129.147500", "141130.397500", "141131.647500", "141132.897500", "141134.147500", "141135.397500", "141136.647500", "141137.897500", "141139.147500", "141140.397500", "141141.647500", "141142.897500", "141144.147500", "141145.397500", "141146.647500", "141147.897500", "141149.147500", "141150.397500", "141151.647500", "141152.897500", "141154.147500", "141155.397500", "141156.647500", "141157.897500", "141159.147500", "141200.397500", "141201.647500", "141202.897500", "141204.147500", "141205.397500", "141206.647500", "141207.897500", "141209.147500", "141210.397500", "141211.647500", "141212.897500", "141214.147500", "141215.397500", "141216.647500", "141217.897500", "141219.147500", "141220.397500", "141221.647500", "141222.897500", "141224.147500", "141225.397500", "141226.647500", "141227.897500", "141229.147500", "141230.397500", "141231.647500", "141232.897500", "141234.147500", "141235.397500", "141236.647500", "141237.897500", "141239.147500", "141240.397500", "141241.647500", "141242.897500", "141244.147500", "141245.397500", "141246.647500", "141247.897500", "141249.147500", "141250.397500", "141251.647500", "141252.897500", "141254.147500", "141255.397500", "141256.647500", "141257.897500", "141259.147500", "141300.397500", "141301.647500", "141302.897500", "141304.147500", "141305.397500", "141306.647500", "141307.897500", "141309.147500", "141310.397500", "141311.647500", "141312.897500", "141314.147500", "141315.397500", "141316.647500", "141317.897500", "141319.147500", "141320.397500", "141321.647500", "141322.897500", "141324.147500", "141325.397500", "141326.647500", "141327.897500", "141329.147500", "141330.397500", "141331.647500", "141332.897500", "141334.147500", "141335.397500", "141336.647500", "141337.897500", "141339.147500", "141340.397500", "141341.647500", "141342.897500", "141344.147500", "141345.397500", "141346.647500", "141347.897500", "141349.147500", "141350.397500", "141351.647500", "141352.897500", "141354.147500", "141355.397500", "141356.647500", "141357.897500", "141359.147500", "141400.397500", "141401.647500", "141402.897500", "141404.147500", "141405.397500", "141406.647500", "141407.897500", "141409.147500", "141410.397500", "141411.647500", "141412.897500", "141414.147500", "141415.397500", "141416.647500", "141417.897500", "141419.147500", "141420.397500", "141421.647500", "141422.897500", "141424.147500", "141425.397500", "141426.647500", "141427.897500", "141429.147500", "141430.397500", "141431.647500", "141432.897500", "141434.147500", "141435.397500", "141436.647500", "141437.897500", "141439.147500", "141440.397500", "141441.647500", "141442.897500", "141444.147500", "141445.397500", "141446.647500", "141447.897500", "141449.147500", "141450.397500", "141451.647500", "141452.897500"],
      "ContentTime": ["140809.499000", "140810.551000", "140811.839000", "140813.054000", "140814.355000", "140815.575000", "140816.821000", "140818.048000", "140819.312000", "140820.535000", "140821.778000", "140823.045000", "140824.301000", "140825.517000", "140826.806000", "140828.061000", "140829.298000", "140830.545000", "140831.796000", "140833.057000", "140834.290000", "140835.551000", "140836.806000", "140838.030000", "140839.308000", "140840.569000", "140841.822000", "140843.039000", "140844.346000", "140845.545000", "140846.805000", "140848.050000", "140849.281000", "140850.619000", "140851.786000", "140853.042000", "140854.299000", "140855.531000", "140856.808000", "140858.069000", "140859.293000", "140900.529000", "140901.803000", "140903.039000", "140904.307000", "140905.549000", "140906.788000", "140908.047000", "140909.302000", "140910.523000", "140911.796000", "140913.088000", "140914.294000", "140915.563000", "140916.790000", "140918.066000", "140919.353000", "140920.612000", "140921.795000", "140923.058000", "140924.289000", "140925.525000", "140926.801000", "140928.028000", "140929.306000", "140930.544000", "140931.782000", "140933.080000", "140934.304000", "140935.538000", "140936.776000", "140938.046000", "140939.284000", "140940.625000", "140941.821000", "140943.045000", "140944.294000", "140945.556000", "140946.802000", "140948.048000", "140949.304000", "140950.540000", "140951.799000", "140953.054000", "140954.289000", "140955.621000", "140956.808000", "140958.028000", "140959.334000", "141000.539000", "141001.789000", "141003.035000", "141004.288000", "141005.555000", "141006.804000", "141008.053000", "141009.317000", "141010.539000", "141011.792000", "141013.048000", "141014.273000", "141015.554000", "141016.831000", "141018.031000", "141019.320000", "141020.554000", "141021.806000", "141023.043000", "141024.309000", "141025.549000", "141026.809000", "141028.074000", "141029.311000", "141030.574000", "141031.817000", "141033.047000", "141034.295000", "141035.556000", "141036.821000", "141038.081000", "141039.309000", "141040.567000", "141041.874000", "141043.071000", "141044.310000", "141045.559000", "141046.778000", "141048.042000", "141049.320000", "141050.628000", "141051.830000", "141053.076000", "141054.260000", "141055.561000", "141056.812000", "141058.065000", "141059.337000", "141100.564000", "141101.796000", "141103.060000", "141104.322000", "141105.520000", "141106.820000", "141108.068000", "141109.305000", "141110.547000", "141111.816000", "141113.055000", "141114.319000", "141115.552000", "141116.806000", "141118.061000", "141119.357000", "141120.537000", "141121.806000", "141123.101000", "141124.308000", "141125.577000", "141126.842000", "141128.081000", "141129.370000", "141130.560000", "141131.793000", "141133.046000", "141134.309000", "141135.531000", "141136.806000", "141138.046000", "141139.294000", "141140.556000", "141141.816000", "141143.080000", "141144.314000", "141145.515000", "141146.784000", "141148.045000", "141149.300000", "141150.606000", "141151.800000", "141153.043000", "141154.327000", "141155.558000", "141156.792000", "141158.058000", "141159.333000", "141200.536000", "141201.806000", "141203.067000", "141204.312000", "141205.572000", "141206.793000", "141208.057000", "141209.343000", "141210.506000", "141211.791000", "141213.055000", "141214.295000", "141215.557000", "141216.829000", "141218.034000", "141219.303000", "141220.579000", "141221.733000", "141223.066000", "141224.299000", "141225.529000", "141226.828000", "141228.056000", "141229.305000", "141230.584000", "141231.807000", "141233.093000", "141234.298000", "141235.548000", "141236.818000", "141238.059000", "141239.319000", "141240.568000", "141241.827000", "141243.072000", "141244.314000", "141245.550000", "141246.817000", "141248.034000", "141249.283000", "141250.578000", "141251.832000", "141253.057000", "141254.280000", "141255.549000", "141256.796000", "141258.039000", "141259.277000", "141300.556000", "141301.814000", "141303.058000", "141304.297000", "141305.562000", "141306.802000", "141308.058000", "141309.352000", "141310.557000", "141311.802000", "141313.080000", "141314.306000", "141315.545000", "141316.830000", "141318.029000", "141319.338000", "141320.563000", "141321.798000", "141323.052000", "141324.301000", "141325.539000", "141326.792000", "141328.058000", "141329.308000", "141330.535000", "141331.836000", "141333.065000", "141334.288000", "141335.543000", "141336.784000", "141338.069000", "141339.309000", "141340.561000", "141341.802000", "141343.052000", "141344.298000", "141345.643000", "141346.794000", "141348.078000", "141349.315000", "141350.534000", "141351.840000", "141353.037000", "141354.299000", "141355.549000", "141356.813000", "141358.046000", "141359.286000", "141400.588000", "141401.864000", "141403.048000", "141404.275000", "141405.555000", "141406.782000", "141408.052000", "141409.304000", "141410.550000", "141411.808000", "141413.065000", "141414.296000", "141415.527000", "141416.792000", "141418.063000", "141419.296000", "141420.555000", "141421.797000", "141423.062000", "141424.306000", "141425.527000", "141426.785000", "141428.031000", "141429.273000", "141430.522000", "141431.826000", "141433.047000", "141434.328000", "141435.539000", "141436.827000", "141438.083000", "141439.327000", "141440.581000", "141441.786000", "141443.048000", "141444.298000", "141445.553000", "141446.806000", "141448.018000", "141449.295000", "141450.602000", "141451.789000", "141453.050000", "141454.369000"],
      "InstanceCreationTime": ["140809.499000", "140810.551000", "140811.839000", "140813.054000", "140814.355000", "140815.575000", "140816.821000", "140818.048000", "140819.312000", "140820.535000", "140821.778000", "140823.045000", "140824.301000", "140825.517000", "140826.806000", "140828.061000", "140829.298000", "140830.545000", "140831.796000", "140833.057000", "140834.290000", "140835.551000", "140836.806000", "140838.030000", "140839.308000", "140840.569000", "140841.822000", "140843.039000", "140844.346000", "140845.545000", "140846.805000", "140848.050000", "140849.281000", "140850.619000", "140851.786000", "140853.042000", "140854.299000", "140855.531000", "140856.808000", "140858.069000", "140859.293000", "140900.529000", "140901.803000", "140903.039000", "140904.307000", "140905.549000", "140906.788000", "140908.047000", "140909.302000", "140910.523000", "140911.796000", "140913.088000", "140914.294000", "140915.563000", "140916.790000", "140918.066000", "140919.353000", "140920.612000", "140921.795000", "140923.058000", "140924.289000", "140925.525000", "140926.801000", "140928.028000", "140929.306000", "140930.544000", "140931.782000", "140933.080000", "140934.304000", "140935.538000", "140936.776000", "140938.046000", "140939.284000", "140940.625000", "140941.821000", "140943.045000", "140944.294000", "140945.556000", "140946.802000", "140948.048000", "140949.304000", "140950.540000", "140951.799000", "140953.054000", "140954.289000", "140955.621000", "140956.808000", "140958.028000", "140959.334000", "141000.539000", "141001.789000", "141003.035000", "141004.288000", "141005.555000", "141006.804000", "141008.053000", "141009.317000", "141010.539000", "141011.792000", "141013.048000", "141014.273000", "141015.554000", "141016.831000", "141018.031000", "141019.320000", "141020.554000", "141021.806000", "141023.043000", "141024.309000", "141025.549000", "141026.809000", "141028.074000", "141029.311000", "141030.574000", "141031.817000", "141033.047000", "141034.295000", "141035.556000", "141036.821000", "141038.081000", "141039.309000", "141040.567000", "141041.874000", "141043.071000", "141044.310000", "141045.559000", "141046.778000", "141048.042000", "141049.320000", "141050.628000", "141051.830000", "141053.076000", "141054.260000", "141055.561000", "141056.812000", "141058.065000", "141059.337000", "141100.564000", "141101.796000", "141103.060000", "141104.322000", "141105.520000", "141106.820000", "141108.068000", "141109.305000", "141110.547000", "141111.816000", "141113.055000", "141114.319000", "141115.552000", "141116.806000", "141118.061000", "141119.357000", "141120.537000", "141121.806000", "141123.101000", "141124.308000", "141125.577000", "141126.842000", "141128.081000", "141129.370000", "141130.560000", "141131.793000", "141133.046000", "141134.309000", "141135.531000", "141136.806000", "141138.046000", "141139.294000", "141140.556000", "141141.816000", "141143.080000", "141144.314000", "141145.515000", "141146.784000", "141148.045000", "141149.300000", "141150.606000", "141151.800000", "141153.043000", "141154.327000", "141155.558000", "141156.792000", "141158.058000", "141159.333000", "141200.536000", "141201.806000", "141203.067000", "141204.312000", "141205.572000", "141206.793000", "141208.057000", "141209.343000", "141210.506000", "141211.791000", "141213.055000", "141214.295000", "141215.557000", "141216.829000", "141218.034000", "141219.303000", "141220.579000", "141221.733000", "141223.066000", "141224.299000", "141225.529000", "141226.828000", "141228.056000", "141229.305000", "141230.584000", "141231.807000", "141233.093000", "141234.298000", "141235.548000", "141236.818000", "141238.059000", "141239.319000", "141240.568000", "141241.827000", "141243.072000", "141244.314000", "141245.550000", "141246.817000", "141248.034000", "141249.283000", "141250.578000", "141251.832000", "141253.057000", "141254.280000", "141255.549000", "141256.796000", "141258.039000", "141259.277000", "141300.556000", "141301.814000", "141303.058000", "141304.297000", "141305.562000", "141306.802000", "141308.058000", "141309.352000", "141310.557000", "141311.802000", "141313.080000", "141314.306000", "141315.545000", "141316.830000", "141318.029000", "141319.338000", "141320.563000", "141321.798000", "141323.052000", "141324.301000", "141325.539000", "141326.792000", "141328.058000", "141329.308000", "141330.535000", "141331.836000", "141333.065000", "141334.288000", "141335.543000", "141336.784000", "141338.069000", "141339.309000", "141340.561000", "141341.802000", "141343.052000", "141344.298000", "141345.643000", "141346.794000", "141348.078000", "141349.315000", "141350.534000", "141351.840000", "141353.037000", "141354.299000", "141355.549000", "141356.813000", "141358.046000", "141359.286000", "141400.588000", "141401.864000", "141403.048000", "141404.275000", "141405.555000", "141406.782000", "141408.052000", "141409.304000", "141410.550000", "141411.808000", "141413.065000", "141414.296000", "141415.527000", "141416.792000", "141418.063000", "141419.296000", "141420.555000", "141421.797000", "141423.062000", "141424.306000", "141425.527000", "141426.785000", "141428.031000", "141429.273000", "141430.522000", "141431.826000", "141433.047000", "141434.328000", "141435.539000", "141436.827000", "141438.083000", "141439.327000", "141440.581000", "141441.786000", "141443.048000", "141444.298000", "141445.553000", "141446.806000", "141448.018000", "141449.295000", "141450.602000", "141451.789000", "141453.050000", "141454.369000"],
      "InstanceNumber": [1, 2, 3, 4, 5, 6, 7, 8, 9, 10, 11, 12, 13, 14, 15, 16, 17, 18, 19, 20, 21, 22, 23, 24, 25, 26, 27, 28, 29, 30, 31, 32, 33, 34, 35, 36, 37, 38, 39, 40, 41, 42, 43, 44, 45, 46, 47, 48, 49, 50, 51, 52, 53, 54, 55, 56, 57, 58, 59, 60, 61, 62, 63, 64, 65, 66, 67, 68, 69, 70, 71, 72, 73, 74, 75, 76, 77, 78, 79, 80, 81, 82, 83, 84, 85, 86, 87, 88, 89, 90, 91, 92, 93, 94, 95, 96, 97, 98, 99, 100, 101, 102, 103, 104, 105, 106, 107, 108, 109, 110, 111, 112, 113, 114, 115, 116, 117, 118, 119, 120, 121, 122, 123, 124, 125, 126, 127, 128, 129, 130, 131, 132, 133, 134, 135, 136, 137, 138, 139, 140, 141, 142, 143, 144, 145, 146, 147, 148, 149, 150, 151, 152, 153, 154, 155, 156, 157, 158, 159, 160, 161, 162, 163, 164, 165, 166, 167, 168, 169, 170, 171, 172, 173, 174, 175, 176, 177, 178, 179, 180, 181, 182, 183, 184, 185, 186, 187, 188, 189, 190, 191, 192, 193, 194, 195, 196, 197, 198, 199, 200, 201, 202, 203, 204, 205, 206, 207, 208, 209, 210, 211, 212, 213, 214, 215, 216, 217, 218, 219, 220, 221, 222, 223, 224, 225, 226, 227, 228, 229, 230, 231, 232, 233, 234, 235, 236, 237, 238, 239, 240, 241, 242, 243, 244, 245, 246, 247, 248, 249, 250, 251, 252, 253, 254, 255, 256, 257, 258, 259, 260, 261, 262, 263, 264, 265, 266, 267, 268, 269, 270, 271, 272, 273, 274, 275, 276, 277, 278, 279, 280, 281, 282, 283, 284, 285, 286, 287, 288, 289, 290, 291, 292, 293, 294, 295, 296, 297, 298, 299, 300, 301, 302, 303, 304, 305, 306, 307, 308, 309, 310, 311, 312, 313, 314, 315, 316, 317, 318, 319, 320, 321, 322, 323, 324, 325],
      "LargestImagePixelValue": [886, 756, 1077, 1071, 828, 802, 1215, 1013, 893, 730, 1213, 854, 808, 813, 1111, 815, 799, 1125, 816, 770, 749, 1193, 884, 952, 1254, 851, 794, 923, 1209, 986, 751, 1157, 868, 874, 1100, 807, 816, 1189, 885, 850, 949, 760, 1172, 930, 1207, 1017, 1054, 986, 835, 720, 1137, 848, 1282, 895, 724, 1024, 1058, 778, 873, 1195, 1041, 774, 1105, 1179, 886, 721, 1180, 930, 824, 954, 1166, 825, 742, 1192, 886, 825, 720, 1220, 866, 774, 1153, 1048, 906, 718, 1023, 1266, 874, 831, 1003, 1245, 867, 755, 810, 737, 1207, 872, 1083, 1142, 775, 768, 825, 721, 1060, 1169, 1099, 883, 775, 854, 846, 1250, 974, 967, 755, 1199, 910, 888, 743, 1216, 1037, 844, 775, 946, 1191, 831, 772, 1051, 1130, 820, 731, 1206, 873, 778, 1241, 1058, 933, 909, 1155, 914, 789, 1181, 848, 812, 848, 1121, 837, 840, 758, 1181, 965, 791, 884, 1225, 985, 830, 1008, 1120, 854, 720, 1010, 1149, 922, 1114, 891, 1009, 899, 764, 1003, 1035, 821, 1192, 916, 809, 1194, 944, 873, 1094, 1032, 936, 715, 1185, 951, 838, 1256, 853, 857, 855, 1155, 951, 815, 997, 1156, 851, 783, 1222, 942, 864, 721, 1043, 1165, 929, 854, 949, 901, 1095, 939, 826, 1204, 914, 807, 732, 1031, 1168, 837, 864, 1227, 1078, 819, 864, 1019, 872, 1198, 907, 1004, 721, 816, 1173, 1098, 849, 831, 882, 784, 958, 1241, 1057, 833, 829, 870, 803, 714, 862, 974, 855, 1266, 1084, 969, 952, 995, 823, 772, 1186, 993, 930, 866, 890, 922, 1146, 1122, 876, 873, 815, 1140, 969, 861, 840, 776, 771, 1209, 1023, 891, 825, 1137, 1096, 910, 840, 985, 1170, 886, 848, 803, 708, 1022, 1140, 925, 844, 780, 1093, 1192, 863, 878, 1153, 1072, 827, 809, 860, 1164, 837, 812, 933, 1091, 814, 813, 1122, 1103, 855, 792, 1004, 1075, 875, 884, 1121, 965, 855, 882, 1200, 808, 793, 932, 1033, 814, 756, 1149, 870, 882, 1123, 915],
      "WindowCenter": [349.0, 347.0, 350.0, 349.0, 347.0, 347.0, 351.0, 349.0, 348.0, 346.0, 350.0, 348.0, 347.0, 347.0, 351.0, 347.0, 346.0, 350.0, 348.0, 347.0, 347.0, 351.0, 349.0, 349.0, 350.0, 348.0, 347.0, 349.0, 351.0, 349.0, 346.0, 351.0, 348.0, 348.0, 350.0, 348.0, 348.0, 351.0, 349.0, 348.0, 349.0, 348.0, 352.0, 350.0, 351.0, 349.0, 348.0, 348.0, 347.0, 345.0, 350.0, 347.0, 351.0, 347.0, 346.0, 349.0, 351.0, 348.0, 349.0, 352.0, 350.0, 347.0, 350.0, 351.0, 348.0, 346.0, 351.0, 348.0, 347.0, 348.0, 351.0, 347.0, 346.0, 351.0, 348.0, 348.0, 347.0, 353.0, 349.0, 348.0, 352.0, 350.0, 348.0, 346.0, 350.0, 352.0, 348.0, 348.0, 349.0, 350.0, 348.0, 346.0, 347.0, 347.0, 351.0, 348.0, 350.0, 349.0, 347.0, 347.0, 348.0, 347.0, 351.0, 351.0, 351.0, 348.0, 347.0, 347.0, 347.0, 351.0, 349.0, 348.0, 345.0, 349.0, 347.0, 347.0, 345.0, 351.0, 349.0, 347.0, 346.0, 348.0, 350.0, 347.0, 347.0, 349.0, 350.0, 347.0, 347.0, 351.0, 349.0, 347.0, 351.0, 350.0, 349.0, 349.0, 351.0, 348.0, 347.0, 350.0, 347.0, 346.0, 346.0, 350.0, 348.0, 348.0, 347.0, 351.0, 349.0, 347.0, 348.0, 351.0, 349.0, 348.0, 349.0, 350.0, 347.0, 346.0, 349.0, 350.0, 348.0, 349.0, 346.0, 348.0, 348.0, 346.0, 350.0, 350.0, 347.0, 351.0, 348.0, 347.0, 351.0, 350.0, 348.0, 351.0, 350.0, 348.0, 345.0, 351.0, 349.0, 347.0, 351.0, 347.0, 347.0, 347.0, 350.0, 348.0, 346.0, 348.0, 350.0, 347.0, 346.0, 351.0, 348.0, 347.0, 346.0, 350.0, 351.0, 350.0, 349.0, 349.0, 348.0, 350.0, 348.0, 346.0, 350.0, 348.0, 346.0, 346.0, 349.0, 351.0, 348.0, 348.0, 351.0, 350.0, 348.0, 349.0, 350.0, 348.0, 351.0, 348.0, 348.0, 345.0, 347.0, 350.0, 350.0, 348.0, 348.0, 348.0, 347.0, 349.0, 351.0, 349.0, 348.0, 348.0, 348.0, 347.0, 345.0, 348.0, 349.0, 348.0, 352.0, 349.0, 348.0, 348.0, 349.0, 347.0, 347.0, 351.0, 349.0, 348.0, 347.0, 347.0, 348.0, 350.0, 349.0, 347.0, 347.0, 347.0, 349.0, 348.0, 348.0, 347.0, 347.0, 349.0, 353.0, 350.0, 348.0, 346.0, 349.0, 349.0, 347.0, 346.0, 347.0, 349.0, 347.0, 347.0, 346.0, 345.0, 350.0, 351.0, 348.0, 347.0, 346.0, 350.0, 351.0, 348.0, 348.0, 350.0, 349.0, 347.0, 347.0, 348.0, 350.0, 347.0, 346.0, 348.0, 350.0, 348.0, 348.0, 351.0, 351.0, 348.0, 346.0, 349.0, 350.0, 348.0, 348.0, 350.0, 348.0, 347.0, 347.0, 350.0, 347.0, 347.0, 349.0, 350.0, 349.0, 348.0, 352.0, 349.0, 349.0, 351.0, 349.0],
