{
  "AcquisitionMatrixPE": 96,
  "AcquisitionNumber": 1,
  "AcquisitionTime": "13:41:57.852500",
  "BandwidthPerPixelPhaseEncode": 18.939,
  "BaseResolution": 96,
  "BodyPartExamined": "BRAIN",
  "ConsistencyInfo": "N4_VE11C_LATEST_20160120",
  "ConversionSoftware": "dcm2niix",
  "ConversionSoftwareVersion": "v1.0.20170923 (OpenJPEG build) GCC6.3.0",
  "DerivedVendorReportedEchoSpacing": 0.000550011,
  "DeviceSerialNumber": "66112",
  "DwellTime": 2.3e-06,
  "EchoTime": 0.033,
  "EchoTrainLength": 96,
  "EffectiveEchoSpacing": 0.000550011,
  "FlipAngle": 64,
  "ImageType": [
    "ORIGINAL",
    "PRIMARY",
    "FMRI",
    "NONE",
    "ND",
    "NORM",
    "MOSAIC"
],
  "InstitutionAddress": "Maynard_3_Hanover_NH_US_03755",
  "InstitutionName": "Dartmouth_College_-_PBS",
  "MagneticFieldStrength": 3,
  "Manufacturer": "Siemens",
  "ManufacturersModelName": "Prisma",
  "Modality": "MR",
  "MultibandAccelerationFactor": 4,
  "PartialFourier": 1,
  "PercentPhaseFOV": 100,
  "PhaseEncodingDirection": "j-",
  "PhaseEncodingSteps": 96,
  "PhaseResolution": 1,
  "ProcedureStepDescription": "Gobbini_Matteo_1017_famface-angles",
  "ProtocolName": "func_run-02_task-str1back",
  "PulseSequenceDetails": "%SiemensSeq%_ep2d_bold",
  "ReceiveCoilActiveElements": "HEA;HEP",
  "ReceiveCoilName": "Head_32",
  "ReconMatrixPE": 96,
  "RepetitionTime": 1.25,
  "ScanOptions": "FS",
  "ScanningSequence": "EP",
  "SequenceName": "_epfid2d1_96",
  "SequenceVariant": "SK",
  "SeriesDescription": "func_run-02_task-str1back",
  "SliceTiming": [0.88, 0, 0.615, 0.09, 0.705, 0.1775, 0.7925, 0.3525, 0.9675, 0.44, 1.055, 0.5275, 1.1425, 0.265, 0.88, 0, 0.615, 0.09, 0.705, 0.1775, 0.7925, 0.3525, 0.9675, 0.44, 1.055, 0.5275, 1.1425, 0.265, 0.88, 0, 0.615, 0.09, 0.705, 0.1775, 0.7925, 0.3525, 0.9675, 0.44, 1.055, 0.5275, 1.1425, 0.265, 0.88, 0, 0.615, 0.09, 0.705, 0.1775, 0.7925, 0.3525, 0.9675, 0.44, 1.055, 0.5275, 1.1425, 0.265],
  "SoftwareVersions": "syngo_MR_E11",
  "StationName": "AWP66112",
  "TaskName": "str1back",
  "TotalReadoutTime": 0.0522511,
  "dcmmeta_affine": [
    [-2.4952425956726074, -0.06446858495473862, 0.14003124833106995, 122.60761260986328],
    [-0.0774565041065216, 2.4877352714538574, -0.23489031195640564, -88.1751480102539],
    [0.13328705728054047, 0.23878183960914612, 2.4849987030029297, -112.67821502685547],
    [0.0, 0.0, 0.0, 1.0]
],
  "dcmmeta_reorient_transform": [
    [0.0, -1.0, 0.0, 95.0],
    [1.0, 0.0, 0.0, 0.0],
    [0.0, 0.0, 1.0, 0.0],
    [0.0, 0.0, 0.0, 1.0]
],
  "dcmmeta_shape": [96, 96, 56, 280],
  "dcmmeta_slice_dim": 2,
  "dcmmeta_version": 0.6,
  "global": {
    "const": {
      "AccessionNumber": "A000280",
      "AcquisitionMatrix": [96, 0, 0, 96],
      "AngioFlag": "N",
      "BitsAllocated": 16,
      "BitsStored": 12,
      "BodyPartExamined": "BRAIN",
      "Columns": 768,
      "EchoNumbers": 1,
      "EchoTime": 33.0,
      "EchoTrainLength": 96,
      "FlipAngle": 64.0,
      "HighBit": 11,
      "ImageOrientationPatient": [0.99809699326046, 0.03098260222472, 0.05331482349051, -0.0257874344823, 0.99509412880006, -0.0955127376347],
      "ImagePositionPatient": [-933.22312556366, -1010.0641583811, -54.547688273601],
      "ImageType": [
        "ORIGINAL",
        "PRIMARY",
        "FMRI",
        "NONE",
        "ND",
        "NORM",
        "MOSAIC"
],
      "ImagedNucleus": "1H",
      "ImagingFrequency": 123.252398,
      "InPlanePhaseEncodingDirection": "COL",
      "MRAcquisitionType": "2D",
      "MagneticFieldStrength": 3.0,
      "Manufacturer": "SIEMENS",
      "ManufacturerModelName": "Prisma",
      "Modality": "MR",
      "NumberOfAverages": 1.0,
      "NumberOfPhaseEncodingSteps": 96,
      "PercentPhaseFieldOfView": 100.0,
      "PercentSampling": 100.0,
      "PerformedProcedureStepStartTime": "131037.285000",
      "PhotometricInterpretation": "MONOCHROME2",
      "PixelBandwidth": 2265.0,
      "PixelRepresentation": 0,
      "PixelSpacing": [2.5, 2.5],
      "PositionReferenceIndicator": "",
      "ProtocolName": "func_run-02_task-str1back",
      "RepetitionTime": 1250.0,
      "Rows": 768,
      "SAR": 0.05396283094849,
      "SamplesPerPixel": 1,
      "ScanOptions": "FS",
      "ScanningSequence": "EP",
      "SequenceName": "*epfid2d1_96",
      "SequenceVariant": "SK",
      "SeriesDescription": "func_run-02_task-str1back",
      "SeriesNumber": 15,
      "SeriesTime": "134159.018000",
      "SliceLocation": -96.84992229324,
      "SliceThickness": 2.5,
      "SmallestImagePixelValue": 0,
      "SoftwareVersions": "syngo MR E11",
      "SpacingBetweenSlices": 2.5000000516995,
      "SpecificCharacterSet": "ISO_IR 100",
      "StudyID": "1",
      "StudyTime": "131037.194000",
      "TransmitCoilName": "Body",
      "VariableFlipAngleFlag": "N",
      "WindowCenterWidthExplanation": "Algo1",
      "dBdt": 0.0},
    "slices": {}
  },
  "time": {
    "samples": {
      "AcquisitionNumber": [1, 2, 3, 4, 5, 6, 7, 8, 9, 10, 11, 12, 13, 14, 15, 16, 17, 18, 19, 20, 21, 22, 23, 24, 25, 26, 27, 28, 29, 30, 31, 32, 33, 34, 35, 36, 37, 38, 39, 40, 41, 42, 43, 44, 45, 46, 47, 48, 49, 50, 51, 52, 53, 54, 55, 56, 57, 58, 59, 60, 61, 62, 63, 64, 65, 66, 67, 68, 69, 70, 71, 72, 73, 74, 75, 76, 77, 78, 79, 80, 81, 82, 83, 84, 85, 86, 87, 88, 89, 90, 91, 92, 93, 94, 95, 96, 97, 98, 99, 100, 101, 102, 103, 104, 105, 106, 107, 108, 109, 110, 111, 112, 113, 114, 115, 116, 117, 118, 119, 120, 121, 122, 123, 124, 125, 126, 127, 128, 129, 130, 131, 132, 133, 134, 135, 136, 137, 138, 139, 140, 141, 142, 143, 144, 145, 146, 147, 148, 149, 150, 151, 152, 153, 154, 155, 156, 157, 158, 159, 160, 161, 162, 163, 164, 165, 166, 167, 168, 169, 170, 171, 172, 173, 174, 175, 176, 177, 178, 179, 180, 181, 182, 183, 184, 185, 186, 187, 188, 189, 190, 191, 192, 193, 194, 195, 196, 197, 198, 199, 200, 201, 202, 203, 204, 205, 206, 207, 208, 209, 210, 211, 212, 213, 214, 215, 216, 217, 218, 219, 220, 221, 222, 223, 224, 225, 226, 227, 228, 229, 230, 231, 232, 233, 234, 235, 236, 237, 238, 239, 240, 241, 242, 243, 244, 245, 246, 247, 248, 249, 250, 251, 252, 253, 254, 255, 256, 257, 258, 259, 260, 261, 262, 263, 264, 265, 266, 267, 268, 269, 270, 271, 272, 273, 274, 275, 276, 277, 278, 279, 280],
      "AcquisitionTime": ["134157.852500", "134159.102500", "134200.352500", "134201.602500", "134202.852500", "134204.102500", "134205.352500", "134206.602500", "134207.852500", "134209.102500", "134210.352500", "134211.602500", "134212.852500", "134214.102500", "134215.352500", "134216.602500", "134217.852500", "134219.102500", "134220.352500", "134221.602500", "134222.852500", "134224.102500", "134225.352500", "134226.602500", "134227.852500", "134229.102500", "134230.352500", "134231.602500", "134232.852500", "134234.102500", "134235.352500", "134236.602500", "134237.852500", "134239.102500", "134240.352500", "134241.602500", "134242.852500", "134244.102500", "134245.352500", "134246.602500", "134247.852500", "134249.102500", "134250.352500", "134251.602500", "134252.852500", "134254.102500", "134255.352500", "134256.602500", "134257.852500", "134259.102500", "134300.352500", "134301.602500", "134302.852500", "134304.102500", "134305.352500", "134306.602500", "134307.852500", "134309.102500", "134310.352500", "134311.602500", "134312.852500", "134314.102500", "134315.352500", "134316.602500", "134317.852500", "134319.102500", "134320.352500", "134321.602500", "134322.852500", "134324.102500", "134325.352500", "134326.602500", "134327.852500", "134329.102500", "134330.352500", "134331.602500", "134332.852500", "134334.102500", "134335.352500", "134336.602500", "134337.852500", "134339.102500", "134340.352500", "134341.602500", "134342.852500", "134344.102500", "134345.352500", "134346.602500", "134347.852500", "134349.102500", "134350.352500", "134351.602500", "134352.852500", "134354.102500", "134355.352500", "134356.602500", "134357.852500", "134359.102500", "134400.352500", "134401.602500", "134402.852500", "134404.102500", "134405.352500", "134406.602500", "134407.852500", "134409.102500", "134410.352500", "134411.602500", "134412.852500", "134414.102500", "134415.352500", "134416.602500", "134417.852500", "134419.102500", "134420.352500", "134421.602500", "134422.852500", "134424.102500", "134425.352500", "134426.602500", "134427.852500", "134429.102500", "134430.352500", "134431.602500", "134432.852500", "134434.102500", "134435.352500", "134436.602500", "134437.852500", "134439.102500", "134440.352500", "134441.602500", "134442.852500", "134444.102500", "134445.352500", "134446.602500", "134447.852500", "134449.102500", "134450.352500", "134451.602500", "134452.852500", "134454.102500", "134455.352500", "134456.602500", "134457.852500", "134459.102500", "134500.352500", "134501.602500", "134502.852500", "134504.102500", "134505.352500", "134506.602500", "134507.852500", "134509.102500", "134510.352500", "134511.602500", "134512.852500", "134514.102500", "134515.352500", "134516.602500", "134517.852500", "134519.102500", "134520.352500", "134521.602500", "134522.852500", "134524.102500", "134525.352500", "134526.602500", "134527.852500", "134529.102500", "134530.352500", "134531.602500", "134532.852500", "134534.102500", "134535.352500", "134536.602500", "134537.852500", "134539.102500", "134540.352500", "134541.602500", "134542.852500", "134544.102500", "134545.352500", "134546.602500", "134547.852500", "134549.102500", "134550.352500", "134551.602500", "134552.852500", "134554.102500", "134555.352500", "134556.602500", "134557.852500", "134559.102500", "134600.352500", "134601.602500", "134602.852500", "134604.102500", "134605.352500", "134606.602500", "134607.852500", "134609.102500", "134610.352500", "134611.602500", "134612.852500", "134614.102500", "134615.352500", "134616.602500", "134617.852500", "134619.102500", "134620.352500", "134621.602500", "134622.852500", "134624.102500", "134625.352500", "134626.602500", "134627.852500", "134629.102500", "134630.352500", "134631.602500", "134632.852500", "134634.102500", "134635.352500", "134636.602500", "134637.852500", "134639.102500", "134640.352500", "134641.602500", "134642.852500", "134644.102500", "134645.352500", "134646.602500", "134647.852500", "134649.102500", "134650.352500", "134651.602500", "134652.852500", "134654.102500", "134655.352500", "134656.602500", "134657.852500", "134659.102500", "134700.352500", "134701.602500", "134702.852500", "134704.102500", "134705.352500", "134706.602500", "134707.852500", "134709.102500", "134710.352500", "134711.602500", "134712.852500", "134714.102500", "134715.352500", "134716.602500", "134717.852500", "134719.102500", "134720.352500", "134721.602500", "134722.852500", "134724.102500", "134725.352500", "134726.602500", "134727.852500", "134729.102500", "134730.352500", "134731.602500", "134732.852500", "134734.102500", "134735.352500", "134736.602500", "134737.852500", "134739.102500", "134740.352500", "134741.602500", "134742.852500", "134744.102500", "134745.352500", "134746.602500"],
      "ContentTime": ["134159.023000", "134200.072000", "134201.310000", "134202.545000", "134203.798000", "134205.069000", "134206.331000", "134207.555000", "134208.828000", "134210.086000", "134211.307000", "134212.559000", "134213.806000", "134215.063000", "134216.328000", "134217.579000", "134218.806000", "134220.085000", "134221.301000", "134222.611000", "134223.814000", "134225.044000", "134226.377000", "134227.576000", "134228.834000", "134230.039000", "134231.314000", "134232.544000", "134233.823000", "134235.069000", "134236.335000", "134237.587000", "134238.869000", "134240.047000", "134241.309000", "134242.558000", "134243.820000", "134245.049000", "134246.296000", "134247.554000", "134248.800000", "134250.052000", "134251.330000", "134252.564000", "134253.811000", "134255.034000", "134256.311000", "134257.617000", "134258.785000", "134300.065000", "134301.317000", "134302.555000", "134303.797000", "134305.066000", "134306.299000", "134307.577000", "134308.816000", "134310.065000", "134311.308000", "134312.573000", "134313.813000", "134315.067000", "134316.337000", "134317.550000", "134318.824000", "134320.066000", "134321.314000", "134322.567000", "134323.834000", "134325.127000", "134326.298000", "134327.555000", "134328.847000", "134330.062000", "134331.324000", "134332.568000", "134333.806000", "134335.076000", "134336.341000", "134337.551000", "134338.820000", "134340.065000", "134341.301000", "134342.551000", "134343.822000", "134345.049000", "134346.304000", "134347.566000", "134348.790000", "134350.061000", "134351.312000", "134352.556000", "134353.846000", "134355.059000", "134356.328000", "134357.568000", "134358.823000", "134400.072000", "134401.314000", "134402.546000", "134403.843000", "134405.183000", "134406.360000", "134407.579000", "134408.822000", "134410.083000", "134411.353000", "134412.568000", "134413.823000", "134415.077000", "134416.317000", "134417.559000", "134418.829000", "134420.051000", "134421.324000", "134422.580000", "134423.810000", "134425.080000", "134426.311000", "134427.573000", "134428.829000", "134430.086000", "134431.333000", "134432.587000", "134433.834000", "134435.064000", "134436.329000", "134437.565000", "134438.818000", "134440.066000", "134441.357000", "134442.575000", "134443.817000", "134445.122000", "134446.392000", "134447.567000", "134448.833000", "134450.078000", "134451.345000", "134452.567000", "134453.867000", "134455.094000", "134456.359000", "134457.511000", "134458.804000", "134500.056000", "134501.316000", "134502.578000", "134503.830000", "134505.067000", "134506.344000", "134507.593000", "134508.867000", "134510.053000", "134511.351000", "134512.580000", "134513.826000", "134515.071000", "134516.321000", "134517.617000", "134518.838000", "134520.082000", "134521.313000", "134522.569000", "134523.853000", "134525.073000", "134526.371000", "134527.556000", "134528.801000", "134530.095000", "134531.347000", "134532.589000", "134533.872000", "134535.101000", "134536.348000", "134537.588000", "134538.864000", "134540.072000", "134541.342000", "134542.559000", "134543.792000", "134545.042000", "134546.326000", "134547.578000", "134548.809000", "134550.086000", "134551.311000", "134552.590000", "134553.817000", "134555.111000", "134556.297000", "134557.567000", "134558.818000", "134600.076000", "134601.320000", "134602.580000", "134603.861000", "134605.081000", "134606.303000", "134607.574000", "134608.812000", "134610.061000", "134611.316000", "134612.570000", "134613.840000", "134615.103000", "134616.341000", "134617.562000", "134618.813000", "134620.085000", "134621.329000", "134622.618000", "134623.841000", "134625.087000", "134626.323000", "134627.564000", "134628.814000", "134630.066000", "134631.333000", "134632.571000", "134633.825000", "134635.081000", "134636.309000", "134637.578000", "134638.835000", "134640.065000", "134641.326000", "134642.562000", "134643.858000", "134645.059000", "134646.298000", "134647.571000", "134648.828000", "134650.076000", "134651.329000", "134652.602000", "134653.833000", "134655.061000", "134656.341000", "134657.595000", "134658.805000", "134700.080000", "134701.303000", "134702.591000", "134703.832000", "134705.086000", "134706.330000", "134707.602000", "134708.835000", "134710.088000", "134711.319000", "134712.605000", "134713.826000", "134715.057000", "134716.323000", "134717.565000", "134718.821000", "134720.098000", "134721.305000", "134722.599000", "134723.841000", "134725.070000", "134726.291000", "134727.565000", "134728.858000", "134730.033000", "134731.316000", "134732.557000", "134733.840000", "134735.116000", "134736.345000", "134737.614000", "134738.842000", "134740.066000", "134741.320000", "134742.572000", "134743.814000", "134745.057000", "134746.299000", "134747.637000"],
      "InstanceCreationTime": ["134159.023000", "134200.072000", "134201.310000", "134202.545000", "134203.798000", "134205.069000", "134206.331000", "134207.555000", "134208.828000", "134210.086000", "134211.307000", "134212.559000", "134213.806000", "134215.063000", "134216.328000", "134217.579000", "134218.806000", "134220.085000", "134221.301000", "134222.611000", "134223.814000", "134225.044000", "134226.377000", "134227.576000", "134228.834000", "134230.039000", "134231.314000", "134232.544000", "134233.823000", "134235.069000", "134236.335000", "134237.587000", "134238.869000", "134240.047000", "134241.309000", "134242.558000", "134243.820000", "134245.049000", "134246.296000", "134247.554000", "134248.800000", "134250.052000", "134251.330000", "134252.564000", "134253.811000", "134255.034000", "134256.311000", "134257.617000", "134258.785000", "134300.065000", "134301.317000", "134302.555000", "134303.797000", "134305.066000", "134306.299000", "134307.577000", "134308.816000", "134310.065000", "134311.308000", "134312.573000", "134313.813000", "134315.067000", "134316.337000", "134317.550000", "134318.824000", "134320.066000", "134321.314000", "134322.567000", "134323.834000", "134325.127000", "134326.298000", "134327.555000", "134328.847000", "134330.062000", "134331.324000", "134332.568000", "134333.806000", "134335.076000", "134336.341000", "134337.551000", "134338.820000", "134340.065000", "134341.301000", "134342.551000", "134343.822000", "134345.049000", "134346.304000", "134347.566000", "134348.790000", "134350.061000", "134351.312000", "134352.556000", "134353.846000", "134355.059000", "134356.328000", "134357.568000", "134358.823000", "134400.072000", "134401.314000", "134402.546000", "134403.843000", "134405.183000", "134406.360000", "134407.579000", "134408.822000", "134410.083000", "134411.353000", "134412.568000", "134413.823000", "134415.077000", "134416.317000", "134417.559000", "134418.829000", "134420.051000", "134421.324000", "134422.580000", "134423.810000", "134425.080000", "134426.311000", "134427.573000", "134428.829000", "134430.086000", "134431.333000", "134432.587000", "134433.834000", "134435.064000", "134436.329000", "134437.565000", "134438.818000", "134440.066000", "134441.357000", "134442.575000", "134443.817000", "134445.122000", "134446.392000", "134447.567000", "134448.833000", "134450.078000", "134451.345000", "134452.567000", "134453.867000", "134455.094000", "134456.359000", "134457.511000", "134458.804000", "134500.056000", "134501.316000", "134502.578000", "134503.830000", "134505.067000", "134506.344000", "134507.593000", "134508.867000", "134510.053000", "134511.351000", "134512.580000", "134513.826000", "134515.071000", "134516.321000", "134517.617000", "134518.838000", "134520.082000", "134521.313000", "134522.569000", "134523.853000", "134525.073000", "134526.371000", "134527.556000", "134528.801000", "134530.095000", "134531.347000", "134532.589000", "134533.872000", "134535.101000", "134536.348000", "134537.588000", "134538.864000", "134540.072000", "134541.342000", "134542.559000", "134543.792000", "134545.042000", "134546.326000", "134547.578000", "134548.809000", "134550.086000", "134551.311000", "134552.590000", "134553.817000", "134555.111000", "134556.297000", "134557.567000", "134558.818000", "134600.076000", "134601.320000", "134602.580000", "134603.861000", "134605.081000", "134606.303000", "134607.574000", "134608.812000", "134610.061000", "134611.316000", "134612.570000", "134613.840000", "134615.103000", "134616.341000", "134617.562000", "134618.813000", "134620.085000", "134621.329000", "134622.618000", "134623.841000", "134625.087000", "134626.323000", "134627.564000", "134628.814000", "134630.066000", "134631.333000", "134632.571000", "134633.825000", "134635.081000", "134636.309000", "134637.578000", "134638.835000", "134640.065000", "134641.326000", "134642.562000", "134643.858000", "134645.059000", "134646.298000", "134647.571000", "134648.828000", "134650.076000", "134651.329000", "134652.602000", "134653.833000", "134655.061000", "134656.341000", "134657.595000", "134658.805000", "134700.080000", "134701.303000", "134702.591000", "134703.832000", "134705.086000", "134706.330000", "134707.602000", "134708.835000", "134710.088000", "134711.319000", "134712.605000", "134713.826000", "134715.057000", "134716.323000", "134717.565000", "134718.821000", "134720.098000", "134721.305000", "134722.599000", "134723.841000", "134725.070000", "134726.291000", "134727.565000", "134728.858000", "134730.033000", "134731.316000", "134732.557000", "134733.840000", "134735.116000", "134736.345000", "134737.614000", "134738.842000", "134740.066000", "134741.320000", "134742.572000", "134743.814000", "134745.057000", "134746.299000", "134747.637000"],
      "InstanceNumber": [1, 2, 3, 4, 5, 6, 7, 8, 9, 10, 11, 12, 13, 14, 15, 16, 17, 18, 19, 20, 21, 22, 23, 24, 25, 26, 27, 28, 29, 30, 31, 32, 33, 34, 35, 36, 37, 38, 39, 40, 41, 42, 43, 44, 45, 46, 47, 48, 49, 50, 51, 52, 53, 54, 55, 56, 57, 58, 59, 60, 61, 62, 63, 64, 65, 66, 67, 68, 69, 70, 71, 72, 73, 74, 75, 76, 77, 78, 79, 80, 81, 82, 83, 84, 85, 86, 87, 88, 89, 90, 91, 92, 93, 94, 95, 96, 97, 98, 99, 100, 101, 102, 103, 104, 105, 106, 107, 108, 109, 110, 111, 112, 113, 114, 115, 116, 117, 118, 119, 120, 121, 122, 123, 124, 125, 126, 127, 128, 129, 130, 131, 132, 133, 134, 135, 136, 137, 138, 139, 140, 141, 142, 143, 144, 145, 146, 147, 148, 149, 150, 151, 152, 153, 154, 155, 156, 157, 158, 159, 160, 161, 162, 163, 164, 165, 166, 167, 168, 169, 170, 171, 172, 173, 174, 175, 176, 177, 178, 179, 180, 181, 182, 183, 184, 185, 186, 187, 188, 189, 190, 191, 192, 193, 194, 195, 196, 197, 198, 199, 200, 201, 202, 203, 204, 205, 206, 207, 208, 209, 210, 211, 212, 213, 214, 215, 216, 217, 218, 219, 220, 221, 222, 223, 224, 225, 226, 227, 228, 229, 230, 231, 232, 233, 234, 235, 236, 237, 238, 239, 240, 241, 242, 243, 244, 245, 246, 247, 248, 249, 250, 251, 252, 253, 254, 255, 256, 257, 258, 259, 260, 261, 262, 263, 264, 265, 266, 267, 268, 269, 270, 271, 272, 273, 274, 275, 276, 277, 278, 279, 280],
      "LargestImagePixelValue": [1407, 962, 812, 1055, 1041, 1221, 1021, 1350, 958, 828, 872, 1306, 809, 709, 1196, 924, 730, 900, 1264, 808, 859, 1290, 893, 855, 1139, 1008, 886, 1032, 1307, 930, 830, 747, 1194, 1066, 790, 1186, 1259, 958, 836, 1271, 922, 749, 990, 1278, 848, 814, 1219, 931, 816, 839, 868, 1200, 1095, 797, 1238, 871, 736, 894, 1325, 1013, 807, 1141, 1246, 764, 812, 971, 1205, 801, 807, 1196, 799, 772, 961, 1129, 878, 746, 1165, 1012, 809, 763, 1064, 1140, 856, 833, 1047, 1070, 839, 765, 1294, 915, 838, 1062, 1199, 817, 890, 1208, 975, 1091, 872, 779, 1318, 882, 740, 1080, 1049, 764, 964, 1264, 903, 1179, 1068, 721, 835, 1290, 976, 900, 1148, 1180, 873, 977, 862, 1198, 1073, 753, 935, 1274, 843, 1025, 1255, 941, 1169, 993, 875, 741, 1310, 1031, 838, 1031, 1175, 814, 931, 1211, 825, 815, 1144, 997, 892, 844, 840, 1129, 962, 796, 1054, 1149, 851, 796, 1234, 901, 731, 952, 1120, 897, 1033, 1279, 920, 1079, 1137, 779, 914, 789, 1160, 1003, 1204, 983, 891, 813, 1032, 1099, 1088, 810, 1134, 1168, 883, 1058, 1217, 804, 777, 1039, 1149, 842, 883, 1002, 993, 900, 830, 1076, 1187, 928, 737, 1189, 1189, 838, 796, 1116, 1183, 830, 1138, 996, 791, 877, 1267, 904, 840, 914, 1172, 839, 884, 1286, 811, 788, 850, 1128, 942, 1167, 1012, 808, 924, 1082, 1079, 985, 798, 941, 1385, 917, 747, 914, 1138, 1130, 899, 995, 901, 1141, 932, 742, 1078, 1321, 892, 833, 1050, 1158, 1019, 913, 866, 845, 1324, 1062, 797, 805, 1191, 1022, 809, 842, 1099, 1092, 914, 997, 1039, 1172, 906, 708, 842, 1223, 1088, 1174, 839, 855, 964, 1058, 991, 856],
      "WindowCenter": [352.0, 348.0, 348.0, 350.0, 349.0, 351.0, 348.0, 350.0, 347.0, 346.0, 346.0, 350.0, 345.0, 344.0, 349.0, 347.0, 346.0, 348.0, 351.0, 347.0, 347.0, 351.0, 348.0, 347.0, 350.0, 349.0, 348.0, 350.0, 352.0, 349.0, 347.0, 346.0, 351.0, 350.0, 348.0, 350.0, 350.0, 348.0, 347.0, 351.0, 348.0, 346.0, 349.0, 350.0, 347.0, 346.0, 350.0, 348.0, 347.0, 347.0, 348.0, 351.0, 350.0, 346.0, 350.0, 347.0, 347.0, 348.0, 352.0, 349.0, 347.0, 350.0, 350.0, 346.0, 347.0, 349.0, 351.0, 348.0, 348.0, 351.0, 347.0, 347.0, 349.0, 350.0, 348.0, 346.0, 351.0, 350.0, 348.0, 347.0, 351.0, 351.0, 349.0, 348.0, 351.0, 351.0, 348.0, 347.0, 352.0, 349.0, 348.0, 350.0, 352.0, 348.0, 349.0, 352.0, 350.0, 351.0, 350.0, 348.0, 352.0, 347.0, 346.0, 349.0, 350.0, 347.0, 349.0, 352.0, 348.0, 350.0, 349.0, 346.0, 348.0, 352.0, 349.0, 349.0, 350.0, 351.0, 348.0, 349.0, 348.0, 350.0, 349.0, 346.0, 348.0, 352.0, 348.0, 349.0, 351.0, 347.0, 350.0, 348.0, 347.0, 346.0, 352.0, 349.0, 347.0, 349.0, 350.0, 347.0, 348.0, 350.0, 347.0, 347.0, 350.0, 349.0, 347.0, 347.0, 347.0, 350.0, 349.0, 347.0, 350.0, 350.0, 348.0, 347.0, 351.0, 348.0, 346.0, 349.0, 350.0, 349.0, 350.0, 352.0, 348.0, 349.0, 350.0, 346.0, 349.0, 347.0, 352.0, 349.0, 350.0, 349.0, 348.0, 347.0, 350.0, 350.0, 350.0, 347.0, 350.0, 350.0, 348.0, 349.0, 350.0, 346.0, 347.0, 350.0, 350.0, 348.0, 347.0, 349.0, 349.0, 348.0, 348.0, 350.0, 350.0, 348.0, 346.0, 350.0, 350.0, 348.0, 348.0, 350.0, 351.0, 348.0, 350.0, 348.0, 346.0, 347.0, 350.0, 347.0, 347.0, 348.0, 350.0, 347.0, 347.0, 351.0, 347.0, 348.0, 348.0, 351.0, 348.0, 350.0, 349.0, 347.0, 348.0, 349.0, 349.0, 348.0, 346.0, 348.0, 352.0, 347.0, 346.0, 348.0, 350.0, 350.0, 348.0, 349.0, 348.0, 350.0, 348.0, 346.0, 350.0, 352.0, 348.0, 348.0, 349.0, 350.0, 349.0, 348.0, 347.0, 347.0, 351.0, 349.0, 348.0, 348.0, 350.0, 349.0, 346.0, 347.0, 350.0, 350.0, 348.0, 349.0, 349.0, 350.0, 348.0, 346.0, 348.0, 351.0, 349.0, 350.0, 347.0, 347.0, 348.0, 349.0, 349.0, 347.0],
      "WindowWidth": [754.0, 747.0, 746.0, 749.0, 748.0, 750.0, 747.0, 749.0, 745.0, 743.0, 743.0, 748.0, 741.0, 740.0, 747.0, 745.0, 743.0, 746.0, 751.0, 745.0, 746.0, 750.0, 746.0, 745.0, 749.0, 748.0, 747.0, 749.0, 751.0, 747.0, 746.0, 744.0, 751.0, 749.0, 746.0, 750.0, 750.0, 746.0, 744.0, 750.0, 746.0, 744.0, 747.0, 749.0, 745.0, 744.0, 748.0, 746.0, 745.0, 746.0, 747.0, 751.0, 748.0, 744.0, 750.0, 745.0, 745.0, 746.0, 751.0, 748.0, 745.0, 749.0, 749.0, 743.0, 745.0, 748.0, 751.0, 746.0, 746.0, 751.0, 745.0, 745.0, 747.0, 750.0, 747.0, 745.0, 751.0, 749.0, 746.0, 746.0, 751.0, 751.0, 748.0, 747.0, 750.0, 751.0, 747.0, 746.0, 753.0, 748.0, 746.0, 749.0, 752.0, 748.0, 748.0, 752.0, 750.0, 752.0, 749.0, 747.0, 752.0, 746.0, 743.0, 748.0, 749.0, 746.0, 749.0, 752.0, 747.0, 749.0, 748.0, 744.0, 747.0, 753.0, 749.0, 748.0, 750.0, 750.0, 747.0, 748.0, 747.0, 750.0, 748.0, 743.0, 746.0, 752.0, 746.0, 748.0, 750.0, 745.0, 748.0, 746.0, 745.0, 744.0, 752.0, 749.0, 746.0, 748.0, 749.0, 745.0, 746.0, 750.0, 745.0, 745.0, 749.0, 747.0, 745.0, 744.0, 746.0, 750.0, 748.0, 745.0, 749.0, 750.0, 747.0, 745.0, 751.0, 746.0, 743.0, 747.0, 750.0, 748.0, 749.0, 752.0, 746.0, 747.0, 748.0, 744.0, 748.0, 746.0, 752.0, 749.0, 750.0, 747.0, 746.0, 745.0, 749.0, 749.0, 749.0, 745.0, 750.0, 750.0, 746.0, 747.0, 750.0, 744.0, 746.0, 749.0, 750.0, 746.0, 746.0, 747.0, 748.0, 747.0, 746.0, 749.0, 750.0, 747.0, 744.0, 750.0, 750.0, 746.0, 746.0, 750.0, 751.0, 746.0, 749.0, 746.0, 744.0, 745.0, 749.0, 745.0, 745.0, 746.0, 750.0, 746.0, 745.0, 750.0, 745.0, 746.0, 747.0, 750.0, 747.0, 749.0, 747.0, 745.0, 746.0, 748.0, 748.0, 746.0, 744.0, 746.0, 752.0, 746.0, 744.0, 747.0, 749.0, 750.0, 747.0, 748.0, 747.0, 750.0, 746.0, 743.0, 749.0, 752.0, 747.0, 746.0, 748.0, 749.0, 748.0, 747.0, 746.0, 745.0, 751.0, 748.0, 746.0, 747.0, 750.0, 747.0, 744.0, 744.0, 749.0, 749.0, 747.0, 747.0, 747.0, 750.0, 747.0, 744.0, 747.0, 751.0, 748.0, 749.0, 745.0, 745.0, 746.0, 748.0, 747.0, 745.0]
    },
    "slices": {}
  }
}