{
  "AcquisitionMatrixPE": 96,
  "AcquisitionNumber": 1,
  "AcquisitionTime": "14:21:53.440000",
  "BandwidthPerPixelPhaseEncode": 18.939,
  "BaseResolution": 96,
  "BodyPartExamined": "BRAIN",
  "ConsistencyInfo": "N4_VE11C_LATEST_20160120",
  "ConversionSoftware": "dcm2niix",
  "ConversionSoftwareVersion": "v1.0.20170923 (OpenJPEG build) GCC6.3.0",
  "DerivedVendorReportedEchoSpacing": 0.000550011,
  "DeviceSerialNumber": "66112",
  "DwellTime": 2.3e-06,
  "EchoTime": 0.033,
  "EchoTrainLength": 96,
  "EffectiveEchoSpacing": 0.000550011,
  "FlipAngle": 64,
  "ImageType": [
    "ORIGINAL",
    "PRIMARY",
    "FMRI",
    "NONE",
    "ND",
    "NORM",
    "MOSAIC"
],
  "InstitutionAddress": "Maynard_3_Hanover_NH_US_03755",
  "InstitutionName": "Dartmouth_College_-_PBS",
  "MagneticFieldStrength": 3,
  "Manufacturer": "Siemens",
  "ManufacturersModelName": "Prisma",
  "Modality": "MR",
  "MultibandAccelerationFactor": 4,
  "PartialFourier": 1,
  "PercentPhaseFOV": 100,
  "PhaseEncodingDirection": "j-",
  "PhaseEncodingSteps": 96,
  "PhaseResolution": 1,
  "ProcedureStepDescription": "Gobbini_Matteo_1017_famface-angles",
  "ProtocolName": "func_run-08_task-fam1back",
  "PulseSequenceDetails": "%SiemensSeq%_ep2d_bold",
  "ReceiveCoilActiveElements": "HEA;HEP",
  "ReceiveCoilName": "Head_32",
  "ReconMatrixPE": 96,
  "RepetitionTime": 1.25,
  "ScanOptions": "FS",
  "ScanningSequence": "EP",
  "SequenceName": "_epfid2d1_96",
  "SequenceVariant": "SK",
  "SeriesDescription": "func_run-08_task-fam1back",
  "SliceTiming": [0.8775, 0, 0.615, 0.0875, 0.7025, 0.175, 0.79, 0.35, 0.965, 0.4375, 1.0525, 0.525, 1.14, 0.2625, 0.8775, 0, 0.615, 0.0875, 0.7025, 0.175, 0.79, 0.35, 0.965, 0.4375, 1.0525, 0.525, 1.14, 0.2625, 0.8775, 0, 0.615, 0.0875, 0.7025, 0.175, 0.79, 0.35, 0.965, 0.4375, 1.0525, 0.525, 1.14, 0.2625, 0.8775, 0, 0.615, 0.0875, 0.7025, 0.175, 0.79, 0.35, 0.965, 0.4375, 1.0525, 0.525, 1.14, 0.2625],
  "SoftwareVersions": "syngo_MR_E11",
  "StationName": "AWP66112",
  "TaskName": "fam1back",
  "TotalReadoutTime": 0.0522511,
  "dcmmeta_affine": [
    [-2.4952425956726074, -0.06446858495473862, 0.14003124833106995, 122.60761260986328],
    [-0.0774565041065216, 2.4877352714538574, -0.23489031195640564, -88.1751480102539],
    [0.13328705728054047, 0.23878183960914612, 2.4849987030029297, -112.67821502685547],
    [0.0, 0.0, 0.0, 1.0]
],
  "dcmmeta_reorient_transform": [
    [0.0, -1.0, 0.0, 95.0],
    [1.0, 0.0, 0.0, 0.0],
    [0.0, 0.0, 1.0, 0.0],
    [0.0, 0.0, 0.0, 1.0]
],
  "dcmmeta_shape": [96, 96, 56, 280],
  "dcmmeta_slice_dim": 2,
  "dcmmeta_version": 0.6,
  "global": {
    "const": {
      "AccessionNumber": "A000280",
      "AcquisitionMatrix": [96, 0, 0, 96],
      "AngioFlag": "N",
      "BitsAllocated": 16,
      "BitsStored": 12,
      "BodyPartExamined": "BRAIN",
      "Columns": 768,
      "EchoNumbers": 1,
      "EchoTime": 33.0,
      "EchoTrainLength": 96,
      "FlipAngle": 64.0,
      "HighBit": 11,
      "ImageOrientationPatient": [0.99809699326046, 0.03098260222472, 0.05331482349051, -0.0257874344823, 0.99509412880006, -0.0955127376347],
      "ImagePositionPatient": [-933.22312556366, -1010.0641583811, -54.547688273601],
      "ImageType": [
        "ORIGINAL",
        "PRIMARY",
        "FMRI",
        "NONE",
        "ND",
        "NORM",
        "MOSAIC"
],
      "ImagedNucleus": "1H",
      "ImagingFrequency": 123.252407,
      "InPlanePhaseEncodingDirection": "COL",
      "MRAcquisitionType": "2D",
      "MagneticFieldStrength": 3.0,
      "Manufacturer": "SIEMENS",
      "ManufacturerModelName": "Prisma",
      "Modality": "MR",
      "NumberOfAverages": 1.0,
      "NumberOfPhaseEncodingSteps": 96,
      "PercentPhaseFieldOfView": 100.0,
      "PercentSampling": 100.0,
      "PerformedProcedureStepStartTime": "131037.285000",
      "PhotometricInterpretation": "MONOCHROME2",
      "PixelBandwidth": 2265.0,
      "PixelRepresentation": 0,
      "PixelSpacing": [2.5, 2.5],
      "PositionReferenceIndicator": "",
      "ProtocolName": "func_run-08_task-fam1back",
      "RepetitionTime": 1250.0,
      "Rows": 768,
      "SAR": 0.05396283094849,
      "SamplesPerPixel": 1,
      "ScanOptions": "FS",
      "ScanningSequence": "EP",
      "SequenceName": "*epfid2d1_96",
      "SequenceVariant": "SK",
      "SeriesDescription": "func_run-08_task-fam1back",
      "SeriesNumber": 57,
      "SeriesTime": "142155.102000",
      "SliceLocation": -96.84992229324,
      "SliceThickness": 2.5,
      "SmallestImagePixelValue": 0,
      "SoftwareVersions": "syngo MR E11",
      "SpacingBetweenSlices": 2.5000000516995,
      "SpecificCharacterSet": "ISO_IR 100",
      "StudyID": "1",
      "StudyTime": "131037.194000",
      "TransmitCoilName": "Body",
      "VariableFlipAngleFlag": "N",
      "WindowCenterWidthExplanation": "Algo1",
      "dBdt": 0.0},
    "slices": {}
  },
  "time": {
    "samples": {
      "AcquisitionNumber": [1, 2, 3, 4, 5, 6, 7, 8, 9, 10, 11, 12, 13, 14, 15, 16, 17, 18, 19, 20, 21, 22, 23, 24, 25, 26, 27, 28, 29, 30, 31, 32, 33, 34, 35, 36, 37, 38, 39, 40, 41, 42, 43, 44, 45, 46, 47, 48, 49, 50, 51, 52, 53, 54, 55, 56, 57, 58, 59, 60, 61, 62, 63, 64, 65, 66, 67, 68, 69, 70, 71, 72, 73, 74, 75, 76, 77, 78, 79, 80, 81, 82, 83, 84, 85, 86, 87, 88, 89, 90, 91, 92, 93, 94, 95, 96, 97, 98, 99, 100, 101, 102, 103, 104, 105, 106, 107, 108, 109, 110, 111, 112, 113, 114, 115, 116, 117, 118, 119, 120, 121, 122, 123, 124, 125, 126, 127, 128, 129, 130, 131, 132, 133, 134, 135, 136, 137, 138, 139, 140, 141, 142, 143, 144, 145, 146, 147, 148, 149, 150, 151, 152, 153, 154, 155, 156, 157, 158, 159, 160, 161, 162, 163, 164, 165, 166, 167, 168, 169, 170, 171, 172, 173, 174, 175, 176, 177, 178, 179, 180, 181, 182, 183, 184, 185, 186, 187, 188, 189, 190, 191, 192, 193, 194, 195, 196, 197, 198, 199, 200, 201, 202, 203, 204, 205, 206, 207, 208, 209, 210, 211, 212, 213, 214, 215, 216, 217, 218, 219, 220, 221, 222, 223, 224, 225, 226, 227, 228, 229, 230, 231, 232, 233, 234, 235, 236, 237, 238, 239, 240, 241, 242, 243, 244, 245, 246, 247, 248, 249, 250, 251, 252, 253, 254, 255, 256, 257, 258, 259, 260, 261, 262, 263, 264, 265, 266, 267, 268, 269, 270, 271, 272, 273, 274, 275, 276, 277, 278, 279, 280],
      "AcquisitionTime": ["142153.440000", "142154.690000", "142155.940000", "142157.190000", "142158.440000", "142159.690000", "142200.940000", "142202.190000", "142203.440000", "142204.690000", "142205.940000", "142207.190000", "142208.440000", "142209.690000", "142210.940000", "142212.190000", "142213.440000", "142214.690000", "142215.940000", "142217.190000", "142218.440000", "142219.690000", "142220.940000", "142222.190000", "142223.440000", "142224.690000", "142225.940000", "142227.190000", "142228.440000", "142229.690000", "142230.940000", "142232.190000", "142233.440000", "142234.690000", "142235.940000", "142237.190000", "142238.440000", "142239.690000", "142240.940000", "142242.190000", "142243.440000", "142244.690000", "142245.940000", "142247.190000", "142248.440000", "142249.690000", "142250.940000", "142252.190000", "142253.440000", "142254.690000", "142255.940000", "142257.190000", "142258.440000", "142259.690000", "142300.940000", "142302.190000", "142303.440000", "142304.690000", "142305.940000", "142307.190000", "142308.440000", "142309.690000", "142310.940000", "142312.190000", "142313.440000", "142314.690000", "142315.940000", "142317.190000", "142318.440000", "142319.690000", "142320.940000", "142322.190000", "142323.440000", "142324.690000", "142325.940000", "142327.190000", "142328.440000", "142329.690000", "142330.940000", "142332.190000", "142333.440000", "142334.690000", "142335.940000", "142337.190000", "142338.440000", "142339.690000", "142340.940000", "142342.190000", "142343.440000", "142344.690000", "142345.940000", "142347.190000", "142348.440000", "142349.690000", "142350.940000", "142352.190000", "142353.440000", "142354.690000", "142355.940000", "142357.190000", "142358.440000", "142359.690000", "142400.940000", "142402.190000", "142403.440000", "142404.690000", "142405.940000", "142407.190000", "142408.440000", "142409.690000", "142410.940000", "142412.190000", "142413.440000", "142414.690000", "142415.940000", "142417.190000", "142418.440000", "142419.690000", "142420.940000", "142422.190000", "142423.440000", "142424.690000", "142425.940000", "142427.190000", "142428.440000", "142429.690000", "142430.940000", "142432.190000", "142433.440000", "142434.690000", "142435.940000", "142437.190000", "142438.440000", "142439.690000", "142440.940000", "142442.190000", "142443.440000", "142444.690000", "142445.940000", "142447.190000", "142448.440000", "142449.690000", "142450.940000", "142452.190000", "142453.440000", "142454.690000", "142455.940000", "142457.190000", "142458.440000", "142459.690000", "142500.940000", "142502.190000", "142503.440000", "142504.690000", "142505.940000", "142507.190000", "142508.440000", "142509.690000", "142510.940000", "142512.190000", "142513.440000", "142514.690000", "142515.940000", "142517.190000", "142518.440000", "142519.690000", "142520.940000", "142522.190000", "142523.440000", "142524.690000", "142525.940000", "142527.190000", "142528.440000", "142529.690000", "142530.940000", "142532.190000", "142533.440000", "142534.690000", "142535.940000", "142537.190000", "142538.440000", "142539.690000", "142540.940000", "142542.190000", "142543.440000", "142544.690000", "142545.940000", "142547.190000", "142548.440000", "142549.690000", "142550.940000", "142552.190000", "142553.440000", "142554.690000", "142555.940000", "142557.190000", "142558.440000", "142559.690000", "142600.940000", "142602.190000", "142603.440000", "142604.690000", "142605.940000", "142607.190000", "142608.440000", "142609.690000", "142610.940000", "142612.190000", "142613.440000", "142614.690000", "142615.940000", "142617.190000", "142618.440000", "142619.690000", "142620.940000", "142622.190000", "142623.440000", "142624.690000", "142625.940000", "142627.190000", "142628.440000", "142629.690000", "142630.940000", "142632.190000", "142633.440000", "142634.690000", "142635.940000", "142637.190000", "142638.440000", "142639.690000", "142640.940000", "142642.190000", "142643.440000", "142644.690000", "142645.940000", "142647.190000", "142648.440000", "142649.690000", "142650.940000", "142652.190000", "142653.440000", "142654.690000", "142655.940000", "142657.190000", "142658.440000", "142659.690000", "142700.940000", "142702.190000", "142703.440000", "142704.690000", "142705.940000", "142707.190000", "142708.440000", "142709.690000", "142710.940000", "142712.190000", "142713.440000", "142714.690000", "142715.940000", "142717.190000", "142718.440000", "142719.690000", "142720.940000", "142722.190000", "142723.440000", "142724.690000", "142725.940000", "142727.190000", "142728.440000", "142729.690000", "142730.940000", "142732.190000", "142733.440000", "142734.690000", "142735.940000", "142737.190000", "142738.440000", "142739.690000", "142740.940000", "142742.190000"],
      "ContentTime": ["142155.106000", "142156.095000", "142157.320000", "142158.590000", "142159.894000", "142201.147000", "142202.341000", "142203.582000", "142204.857000", "142206.088000", "142207.344000", "142208.627000", "142209.825000", "142211.072000", "142212.339000", "142213.582000", "142214.872000", "142216.092000", "142217.336000", "142218.579000", "142219.819000", "142221.080000", "142222.347000", "142223.596000", "142224.831000", "142226.094000", "142227.366000", "142228.573000", "142229.814000", "142231.089000", "142232.319000", "142233.594000", "142234.799000", "142236.085000", "142237.357000", "142238.594000", "142239.844000", "142241.099000", "142242.344000", "142243.578000", "142244.832000", "142246.081000", "142247.326000", "142248.561000", "142249.829000", "142251.092000", "142252.329000", "142253.611000", "142254.856000", "142256.067000", "142257.331000", "142258.604000", "142259.838000", "142301.102000", "142302.331000", "142303.585000", "142304.841000", "142306.130000", "142307.321000", "142308.589000", "142309.836000", "142311.091000", "142312.342000", "142313.584000", "142314.819000", "142316.071000", "142317.314000", "142318.560000", "142319.857000", "142321.101000", "142322.316000", "142323.572000", "142324.830000", "142326.115000", "142327.324000", "142328.573000", "142329.819000", "142331.119000", "142332.303000", "142333.582000", "142334.843000", "142336.113000", "142337.341000", "142338.575000", "142339.846000", "142341.137000", "142342.330000", "142343.580000", "142344.842000", "142346.092000", "142347.335000", "142348.578000", "142349.814000", "142351.077000", "142352.321000", "142353.583000", "142354.898000", "142356.079000", "142357.336000", "142358.591000", "142359.825000", "142401.108000", "142402.342000", "142403.586000", "142404.888000", "142406.167000", "142407.333000", "142408.598000", "142409.845000", "142411.120000", "142412.341000", "142413.587000", "142414.892000", "142416.048000", "142417.378000", "142418.615000", "142419.873000", "142421.106000", "142422.361000", "142423.589000", "142424.857000", "142426.114000", "142427.374000", "142428.594000", "142429.827000", "142431.095000", "142432.334000", "142433.569000", "142434.845000", "142436.111000", "142437.352000", "142438.582000", "142439.856000", "142441.065000", "142442.368000", "142443.605000", "142444.857000", "142446.123000", "142447.346000", "142448.598000", "142449.847000", "142451.107000", "142452.336000", "142453.595000", "142454.838000", "142456.121000", "142457.309000", "142458.611000", "142459.843000", "142501.077000", "142502.360000", "142503.569000", "142504.840000", "142506.109000", "142507.389000", "142508.597000", "142509.845000", "142511.131000", "142512.347000", "142513.564000", "142514.882000", "142516.115000", "142517.368000", "142518.606000", "142519.835000", "142521.076000", "142522.322000", "142523.607000", "142524.900000", "142526.110000", "142527.380000", "142528.600000", "142529.837000", "142531.088000", "142532.332000", "142533.589000", "142534.869000", "142536.091000", "142537.343000", "142538.587000", "142539.833000", "142541.095000", "142542.359000", "142543.586000", "142544.839000", "142546.085000", "142547.324000", "142548.569000", "142549.831000", "142551.125000", "142552.340000", "142553.624000", "142554.835000", "142556.104000", "142557.359000", "142558.585000", "142559.848000", "142601.080000", "142602.331000", "142603.599000", "142604.851000", "142606.072000", "142607.330000", "142608.602000", "142609.873000", "142611.077000", "142612.335000", "142613.573000", "142614.837000", "142616.098000", "142617.351000", "142618.604000", "142619.820000", "142621.106000", "142622.342000", "142623.587000", "142624.844000", "142626.112000", "142627.350000", "142628.607000", "142629.836000", "142631.088000", "142632.353000", "142633.616000", "142634.899000", "142636.082000", "142637.366000", "142638.566000", "142639.852000", "142641.076000", "142642.349000", "142643.600000", "142644.840000", "142646.111000", "142647.330000", "142648.578000", "142649.865000", "142651.129000", "142652.358000", "142653.612000", "142654.836000", "142656.113000", "142657.312000", "142658.584000", "142659.854000", "142701.112000", "142702.325000", "142703.586000", "142704.826000", "142706.086000", "142707.335000", "142708.611000", "142709.844000", "142711.080000", "142712.347000", "142713.591000", "142714.836000", "142716.090000", "142717.312000", "142718.584000", "142719.896000", "142721.152000", "142722.350000", "142723.598000", "142724.842000", "142726.067000", "142727.329000", "142728.600000", "142729.826000", "142731.089000", "142732.344000", "142733.598000", "142734.849000", "142736.096000", "142737.320000", "142738.662000", "142739.870000", "142741.092000", "142742.367000", "142743.629000"],
      "InstanceCreationTime": ["142155.106000", "142156.095000", "142157.320000", "142158.590000", "142159.894000", "142201.147000", "142202.341000", "142203.582000", "142204.857000", "142206.088000", "142207.344000", "142208.627000", "142209.825000", "142211.072000", "142212.339000", "142213.582000", "142214.872000", "142216.092000", "142217.336000", "142218.579000", "142219.819000", "142221.080000", "142222.347000", "142223.596000", "142224.831000", "142226.094000", "142227.366000", "142228.573000", "142229.814000", "142231.089000", "142232.319000", "142233.594000", "142234.799000", "142236.085000", "142237.357000", "142238.594000", "142239.844000", "142241.099000", "142242.344000", "142243.578000", "142244.832000", "142246.081000", "142247.326000", "142248.561000", "142249.829000", "142251.092000", "142252.329000", "142253.611000", "142254.856000", "142256.067000", "142257.331000", "142258.604000", "142259.838000", "142301.102000", "142302.331000", "142303.585000", "142304.841000", "142306.130000", "142307.321000", "142308.589000", "142309.836000", "142311.091000", "142312.342000", "142313.584000", "142314.819000", "142316.071000", "142317.314000", "142318.560000", "142319.857000", "142321.101000", "142322.316000", "142323.572000", "142324.830000", "142326.115000", "142327.324000", "142328.573000", "142329.819000", "142331.119000", "142332.303000", "142333.582000", "142334.843000", "142336.113000", "142337.341000", "142338.575000", "142339.846000", "142341.137000", "142342.330000", "142343.580000", "142344.842000", "142346.092000", "142347.335000", "142348.578000", "142349.814000", "142351.077000", "142352.321000", "142353.583000", "142354.898000", "142356.079000", "142357.336000", "142358.591000", "142359.825000", "142401.108000", "142402.342000", "142403.586000", "142404.888000", "142406.167000", "142407.333000", "142408.598000", "142409.845000", "142411.120000", "142412.341000", "142413.587000", "142414.892000", "142416.048000", "142417.378000", "142418.615000", "142419.873000", "142421.106000", "142422.361000", "142423.589000", "142424.857000", "142426.114000", "142427.374000", "142428.594000", "142429.827000", "142431.095000", "142432.334000", "142433.569000", "142434.845000", "142436.111000", "142437.352000", "142438.582000", "142439.856000", "142441.065000", "142442.368000", "142443.605000", "142444.857000", "142446.123000", "142447.346000", "142448.598000", "142449.847000", "142451.107000", "142452.336000", "142453.595000", "142454.838000", "142456.121000", "142457.309000", "142458.611000", "142459.843000", "142501.077000", "142502.360000", "142503.569000", "142504.840000", "142506.109000", "142507.389000", "142508.597000", "142509.845000", "142511.131000", "142512.347000", "142513.564000", "142514.882000", "142516.115000", "142517.368000", "142518.606000", "142519.835000", "142521.076000", "142522.322000", "142523.607000", "142524.900000", "142526.110000", "142527.380000", "142528.600000", "142529.837000", "142531.088000", "142532.332000", "142533.589000", "142534.869000", "142536.091000", "142537.343000", "142538.587000", "142539.833000", "142541.095000", "142542.359000", "142543.586000", "142544.839000", "142546.085000", "142547.324000", "142548.569000", "142549.831000", "142551.125000", "142552.340000", "142553.624000", "142554.835000", "142556.104000", "142557.359000", "142558.585000", "142559.848000", "142601.080000", "142602.331000", "142603.599000", "142604.851000", "142606.072000", "142607.330000", "142608.602000", "142609.873000", "142611.077000", "142612.335000", "142613.573000", "142614.837000", "142616.098000", "142617.351000", "142618.604000", "142619.820000", "142621.106000", "142622.342000", "142623.587000", "142624.844000", "142626.112000", "142627.350000", "142628.607000", "142629.836000", "142631.088000", "142632.353000", "142633.616000", "142634.899000", "142636.082000", "142637.366000", "142638.566000", "142639.852000", "142641.076000", "142642.349000", "142643.600000", "142644.840000", "142646.111000", "142647.330000", "142648.578000", "142649.865000", "142651.129000", "142652.358000", "142653.612000", "142654.836000", "142656.113000", "142657.312000", "142658.584000", "142659.854000", "142701.112000", "142702.325000", "142703.586000", "142704.826000", "142706.086000", "142707.335000", "142708.611000", "142709.844000", "142711.080000", "142712.347000", "142713.591000", "142714.836000", "142716.090000", "142717.312000", "142718.584000", "142719.896000", "142721.152000", "142722.350000", "142723.598000", "142724.842000", "142726.067000", "142727.329000", "142728.600000", "142729.826000", "142731.089000", "142732.344000", "142733.598000", "142734.849000", "142736.096000", "142737.320000", "142738.662000", "142739.870000", "142741.092000", "142742.367000", "142743.629000"],
      "InstanceNumber": [1, 2, 3, 4, 5, 6, 7, 8, 9, 10, 11, 12, 13, 14, 15, 16, 17, 18, 19, 20, 21, 22, 23, 24, 25, 26, 27, 28, 29, 30, 31, 32, 33, 34, 35, 36, 37, 38, 39, 40, 41, 42, 43, 44, 45, 46, 47, 48, 49, 50, 51, 52, 53, 54, 55, 56, 57, 58, 59, 60, 61, 62, 63, 64, 65, 66, 67, 68, 69, 70, 71, 72, 73, 74, 75, 76, 77, 78, 79, 80, 81, 82, 83, 84, 85, 86, 87, 88, 89, 90, 91, 92, 93, 94, 95, 96, 97, 98, 99, 100, 101, 102, 103, 104, 105, 106, 107, 108, 109, 110, 111, 112, 113, 114, 115, 116, 117, 118, 119, 120, 121, 122, 123, 124, 125, 126, 127, 128, 129, 130, 131, 132, 133, 134, 135, 136, 137, 138, 139, 140, 141, 142, 143, 144, 145, 146, 147, 148, 149, 150, 151, 152, 153, 154, 155, 156, 157, 158, 159, 160, 161, 162, 163, 164, 165, 166, 167, 168, 169, 170, 171, 172, 173, 174, 175, 176, 177, 178, 179, 180, 181, 182, 183, 184, 185, 186, 187, 188, 189, 190, 191, 192, 193, 194, 195, 196, 197, 198, 199, 200, 201, 202, 203, 204, 205, 206, 207, 208, 209, 210, 211, 212, 213, 214, 215, 216, 217, 218, 219, 220, 221, 222, 223, 224, 225, 226, 227, 228, 229, 230, 231, 232, 233, 234, 235, 236, 237, 238, 239, 240, 241, 242, 243, 244, 245, 246, 247, 248, 249, 250, 251, 252, 253, 254, 255, 256, 257, 258, 259, 260, 261, 262, 263, 264, 265, 266, 267, 268, 269, 270, 271, 272, 273, 274, 275, 276, 277, 278, 279, 280],
      "LargestImagePixelValue": [1108, 851, 974, 905, 1127, 1139, 1110, 861, 821, 746, 1140, 969, 880, 1022, 1192, 849, 863, 1153, 1014, 844, 835, 790, 1022, 1138, 902, 825, 1145, 864, 881, 756, 1172, 899, 828, 798, 1144, 967, 763, 923, 1084, 889, 1207, 837, 1158, 838, 731, 850, 1051, 1004, 1234, 800, 941, 1008, 851, 769, 983, 846, 1129, 848, 790, 1137, 835, 719, 1129, 881, 794, 1036, 937, 951, 1145, 921, 851, 1199, 993, 770, 787, 1201, 1010, 805, 1060, 955, 857, 764, 1177, 1039, 836, 745, 1143, 847, 818, 821, 1155, 1094, 857, 802, 1184, 1110, 837, 818, 1125, 1121, 824, 802, 840, 801, 716, 839, 1139, 1016, 819, 868, 1145, 714, 725, 963, 1143, 1031, 866, 943, 1082, 763, 863, 1018, 1022, 840, 1116, 1084, 851, 844, 1001, 1074, 908, 904, 1166, 928, 819, 856, 1005, 821, 854, 924, 841, 876, 1060, 1115, 796, 1013, 1168, 1085, 1018, 987, 947, 825, 820, 810, 856, 830, 958, 929, 765, 864, 1128, 1095, 987, 1101, 1036, 804, 849, 879, 788, 829, 876, 1132, 1089, 945, 906, 842, 831, 841, 860, 794, 863, 1169, 979, 1059, 1239, 998, 790, 839, 857, 794, 753, 900, 970, 1084, 884, 1083, 778, 841, 830, 1038, 982, 1106, 979, 841, 838, 897, 1023, 880, 1129, 955, 846, 807, 890, 1148, 1187, 859, 854, 817, 729, 961, 1123, 898, 798, 780, 981, 1145, 827, 815, 830, 761, 1172, 848, 799, 855, 1181, 867, 774, 804, 791, 821, 910, 1053, 1217, 1101, 1061, 1110, 1105, 820, 887, 972, 769, 763, 860, 893, 792, 795, 1205, 1012, 967, 836, 912, 1155, 1280, 948, 846, 818, 865, 849, 909, 872, 960, 906, 1139, 1069, 824, 868, 906, 870, 838, 805],
      "WindowCenter": [352.0, 349.0, 351.0, 348.0, 349.0, 349.0, 349.0, 347.0, 347.0, 345.0, 349.0, 348.0, 347.0, 348.0, 350.0, 347.0, 347.0, 349.0, 349.0, 347.0, 347.0, 347.0, 350.0, 351.0, 349.0, 348.0, 350.0, 347.0, 347.0, 346.0, 350.0, 348.0, 347.0, 347.0, 350.0, 348.0, 345.0, 348.0, 351.0, 349.0, 351.0, 346.0, 349.0, 346.0, 345.0, 348.0, 350.0, 349.0, 351.0, 347.0, 348.0, 348.0, 346.0, 346.0, 349.0, 347.0, 350.0, 347.0, 347.0, 350.0, 347.0, 346.0, 351.0, 349.0, 347.0, 350.0, 349.0, 349.0, 350.0, 348.0, 347.0, 351.0, 349.0, 347.0, 348.0, 352.0, 349.0, 347.0, 350.0, 349.0, 348.0, 347.0, 351.0, 349.0, 347.0, 346.0, 351.0, 348.0, 348.0, 349.0, 352.0, 350.0, 348.0, 347.0, 351.0, 350.0, 347.0, 347.0, 349.0, 350.0, 347.0, 347.0, 347.0, 347.0, 346.0, 348.0, 352.0, 350.0, 347.0, 348.0, 350.0, 346.0, 348.0, 351.0, 352.0, 350.0, 347.0, 348.0, 348.0, 345.0, 346.0, 348.0, 348.0, 347.0, 350.0, 349.0, 347.0, 348.0, 350.0, 350.0, 349.0, 348.0, 350.0, 348.0, 347.0, 347.0, 348.0, 347.0, 348.0, 348.0, 347.0, 348.0, 350.0, 349.0, 347.0, 349.0, 349.0, 349.0, 349.0, 348.0, 348.0, 347.0, 347.0, 347.0, 347.0, 347.0, 348.0, 348.0, 346.0, 348.0, 350.0, 349.0, 349.0, 350.0, 350.0, 347.0, 347.0, 348.0, 347.0, 347.0, 348.0, 350.0, 350.0, 348.0, 348.0, 347.0, 348.0, 348.0, 348.0, 347.0, 348.0, 351.0, 349.0, 349.0, 351.0, 349.0, 347.0, 347.0, 347.0, 347.0, 346.0, 348.0, 349.0, 350.0, 348.0, 350.0, 347.0, 347.0, 347.0, 350.0, 349.0, 350.0, 348.0, 347.0, 347.0, 348.0, 348.0, 347.0, 350.0, 348.0, 347.0, 347.0, 348.0, 350.0, 350.0, 347.0, 347.0, 347.0, 346.0, 349.0, 350.0, 348.0, 347.0, 347.0, 349.0, 350.0, 347.0, 348.0, 348.0, 348.0, 352.0, 348.0, 347.0, 348.0, 351.0, 348.0, 347.0, 348.0, 348.0, 347.0, 351.0, 351.0, 351.0, 350.0, 349.0, 349.0, 348.0, 346.0, 347.0, 348.0, 345.0, 345.0, 347.0, 347.0, 347.0, 348.0, 352.0, 350.0, 348.0, 347.0, 348.0, 349.0, 350.0, 348.0, 346.0, 347.0, 347.0, 347.0, 348.0, 347.0, 348.0, 348.0, 351.0, 350.0, 347.0, 348.0, 348.0, 347.0, 347.0, 346.0],
      "WindowWidth": [754.0, 749.0, 751.0, 747.0, 747.0, 747.0, 747.0, 745.0, 745.0, 743.0, 748.0, 747.0, 745.0, 746.0, 749.0, 746.0, 745.0, 748.0, 747.0, 745.0, 745.0, 744.0, 749.0, 752.0, 748.0, 747.0, 750.0, 746.0, 745.0, 744.0, 749.0, 747.0, 746.0, 745.0, 750.0, 747.0, 743.0, 747.0, 751.0, 748.0, 751.0, 744.0, 748.0, 744.0, 743.0, 746.0, 750.0, 748.0, 750.0, 744.0, 746.0, 746.0, 744.0, 743.0, 748.0, 746.0, 750.0, 746.0, 745.0, 750.0, 746.0, 743.0, 751.0, 748.0, 746.0, 750.0, 749.0, 748.0, 750.0, 747.0, 745.0, 750.0, 748.0, 746.0, 747.0, 752.0, 749.0, 745.0, 749.0, 748.0, 746.0, 745.0, 750.0, 748.0, 744.0, 744.0, 751.0, 747.0, 747.0, 749.0, 752.0, 750.0, 747.0, 746.0, 751.0, 750.0, 746.0, 744.0, 748.0, 749.0, 745.0, 744.0, 745.0, 745.0, 744.0, 747.0, 752.0, 749.0, 746.0, 746.0, 749.0, 743.0, 747.0, 751.0, 752.0, 749.0, 746.0, 746.0, 746.0, 741.0, 744.0, 746.0, 746.0, 745.0, 749.0, 748.0, 745.0, 747.0, 749.0, 750.0, 748.0, 747.0, 749.0, 746.0, 745.0, 745.0, 747.0, 745.0, 746.0, 747.0, 746.0, 746.0, 749.0, 748.0, 745.0, 748.0, 748.0, 747.0, 747.0, 747.0, 747.0, 746.0, 746.0, 745.0, 745.0, 745.0, 747.0, 746.0, 744.0, 746.0, 749.0, 748.0, 748.0, 750.0, 749.0, 746.0, 746.0, 746.0, 745.0, 746.0, 747.0, 750.0, 749.0, 747.0, 746.0, 746.0, 747.0, 747.0, 747.0, 746.0, 747.0, 750.0, 748.0, 749.0, 751.0, 748.0, 745.0, 746.0, 745.0, 744.0, 744.0, 747.0, 748.0, 750.0, 746.0, 749.0, 745.0, 746.0, 746.0, 749.0, 748.0, 750.0, 747.0, 745.0, 745.0, 746.0, 747.0, 745.0, 749.0, 747.0, 746.0, 746.0, 746.0, 749.0, 749.0, 745.0, 745.0, 745.0, 744.0, 748.0, 750.0, 746.0, 745.0, 745.0, 748.0, 750.0, 746.0, 747.0, 747.0, 747.0, 752.0, 747.0, 746.0, 747.0, 751.0, 746.0, 745.0, 746.0, 746.0, 744.0, 752.0, 751.0, 751.0, 749.0, 748.0, 747.0, 746.0, 743.0, 744.0, 745.0, 741.0, 743.0, 745.0, 745.0, 745.0, 747.0, 753.0, 749.0, 747.0, 745.0, 746.0, 748.0, 749.0, 746.0, 744.0, 745.0, 744.0, 745.0, 746.0, 745.0, 746.0, 746.0, 750.0, 749.0, 746.0, 747.0, 746.0, 745.0, 744.0, 744.0]
    },
    "slices": {}
  }
}