{
  "AcquisitionMatrixPE": 96,
  "AcquisitionNumber": 1,
  "AcquisitionTime": "14:34:47.755000",
  "BandwidthPerPixelPhaseEncode": 18.939,
  "BaseResolution": 96,
  "BodyPartExamined": "BRAIN",
  "ConsistencyInfo": "N4_VE11C_LATEST_20160120",
  "ConversionSoftware": "dcm2niix",
  "ConversionSoftwareVersion": "v1.0.20170923 (OpenJPEG build) GCC6.3.0",
  "DerivedVendorReportedEchoSpacing": 0.000550011,
  "DeviceSerialNumber": "66112",
  "DwellTime": 2.3e-06,
  "EchoTime": 0.033,
  "EchoTrainLength": 96,
  "EffectiveEchoSpacing": 0.000550011,
  "FlipAngle": 64,
  "ImageType": [
    "ORIGINAL",
    "PRIMARY",
    "FMRI",
    "NONE",
    "ND",
    "NORM",
    "MOSAIC"
],
  "InstitutionAddress": "Maynard_3_Hanover_NH_US_03755",
  "InstitutionName": "Dartmouth_College_-_PBS",
  "MagneticFieldStrength": 3,
  "Manufacturer": "Siemens",
  "ManufacturersModelName": "Prisma",
  "Modality": "MR",
  "MultibandAccelerationFactor": 4,
  "PartialFourier": 1,
  "PercentPhaseFOV": 100,
  "PhaseEncodingDirection": "j-",
  "PhaseEncodingSteps": 96,
  "PhaseResolution": 1,
  "ProcedureStepDescription": "Gobbini_Matteo_1017_famface-angles",
  "ProtocolName": "func_run-10_task-fam1back",
  "PulseSequenceDetails": "%SiemensSeq%_ep2d_bold",
  "ReceiveCoilActiveElements": "HEA;HEP",
  "ReceiveCoilName": "Head_32",
  "ReconMatrixPE": 96,
  "RepetitionTime": 1.25,
  "ScanOptions": "FS",
  "ScanningSequence": "EP",
  "SequenceName": "_epfid2d1_96",
  "SequenceVariant": "SK",
  "SeriesDescription": "func_run-10_task-fam1back",
  "SliceTiming": [0.88, 0, 0.615, 0.0875, 0.7025, 0.1775, 0.7925, 0.3525, 0.9675, 0.44, 1.055, 0.5275, 1.1425, 0.265, 0.88, 0, 0.615, 0.0875, 0.7025, 0.1775, 0.7925, 0.3525, 0.9675, 0.44, 1.055, 0.5275, 1.1425, 0.265, 0.88, 0, 0.615, 0.0875, 0.7025, 0.1775, 0.7925, 0.3525, 0.9675, 0.44, 1.055, 0.5275, 1.1425, 0.265, 0.88, 0, 0.615, 0.0875, 0.7025, 0.1775, 0.7925, 0.3525, 0.9675, 0.44, 1.055, 0.5275, 1.1425, 0.265],
  "SoftwareVersions": "syngo_MR_E11",
  "StationName": "AWP66112",
  "TaskName": "fam1back",
  "TotalReadoutTime": 0.0522511,
  "dcmmeta_affine": [
    [-2.4952425956726074, -0.06446858495473862, 0.14003124833106995, 122.60761260986328],
    [-0.0774565041065216, 2.4877352714538574, -0.23489031195640564, -88.1751480102539],
    [0.13328705728054047, 0.23878183960914612, 2.4849987030029297, -112.67821502685547],
    [0.0, 0.0, 0.0, 1.0]
],
  "dcmmeta_reorient_transform": [
    [0.0, -1.0, 0.0, 95.0],
    [1.0, 0.0, 0.0, 0.0],
    [0.0, 0.0, 1.0, 0.0],
    [0.0, 0.0, 0.0, 1.0]
],
  "dcmmeta_shape": [96, 96, 56, 280],
  "dcmmeta_slice_dim": 2,
  "dcmmeta_version": 0.6,
  "global": {
    "const": {
      "AccessionNumber": "A000280",
      "AcquisitionMatrix": [96, 0, 0, 96],
      "AngioFlag": "N",
      "BitsAllocated": 16,
      "BitsStored": 12,
      "BodyPartExamined": "BRAIN",
      "Columns": 768,
      "EchoNumbers": 1,
      "EchoTime": 33.0,
      "EchoTrainLength": 96,
      "FlipAngle": 64.0,
      "HighBit": 11,
      "ImageOrientationPatient": [0.99809699326046, 0.03098260222472, 0.05331482349051, -0.0257874344823, 0.99509412880006, -0.0955127376347],
      "ImagePositionPatient": [-933.22312556366, -1010.0641583811, -54.547688273601],
      "ImageType": [
        "ORIGINAL",
        "PRIMARY",
        "FMRI",
        "NONE",
        "ND",
        "NORM",
        "MOSAIC"
],
      "ImagedNucleus": "1H",
      "ImagingFrequency": 123.252409,
      "InPlanePhaseEncodingDirection": "COL",
      "MRAcquisitionType": "2D",
      "MagneticFieldStrength": 3.0,
      "Manufacturer": "SIEMENS",
      "ManufacturerModelName": "Prisma",
      "Modality": "MR",
      "NumberOfAverages": 1.0,
      "NumberOfPhaseEncodingSteps": 96,
      "PercentPhaseFieldOfView": 100.0,
      "PercentSampling": 100.0,
      "PerformedProcedureStepStartTime": "131037.285000",
      "PhotometricInterpretation": "MONOCHROME2",
      "PixelBandwidth": 2265.0,
      "PixelRepresentation": 0,
      "PixelSpacing": [2.5, 2.5],
      "PositionReferenceIndicator": "",
      "ProtocolName": "func_run-10_task-fam1back",
      "RepetitionTime": 1250.0,
      "Rows": 768,
      "SAR": 0.05396283094849,
      "SamplesPerPixel": 1,
      "ScanOptions": "FS",
      "ScanningSequence": "EP",
      "SequenceName": "*epfid2d1_96",
      "SequenceVariant": "SK",
      "SeriesDescription": "func_run-10_task-fam1back",
      "SeriesNumber": 71,
      "SeriesTime": "143449.745000",
      "SliceLocation": -96.84992229324,
      "SliceThickness": 2.5,
      "SmallestImagePixelValue": 0,
      "SoftwareVersions": "syngo MR E11",
      "SpacingBetweenSlices": 2.5000000516995,
      "SpecificCharacterSet": "ISO_IR 100",
      "StudyID": "1",
      "StudyTime": "131037.194000",
      "TransmitCoilName": "Body",
      "VariableFlipAngleFlag": "N",
      "WindowCenterWidthExplanation": "Algo1",
      "dBdt": 0.0},
    "slices": {}
  },
  "time": {
    "samples": {
      "AcquisitionNumber": [1, 2, 3, 4, 5, 6, 7, 8, 9, 10, 11, 12, 13, 14, 15, 16, 17, 18, 19, 20, 21, 22, 23, 24, 25, 26, 27, 28, 29, 30, 31, 32, 33, 34, 35, 36, 37, 38, 39, 40, 41, 42, 43, 44, 45, 46, 47, 48, 49, 50, 51, 52, 53, 54, 55, 56, 57, 58, 59, 60, 61, 62, 63, 64, 65, 66, 67, 68, 69, 70, 71, 72, 73, 74, 75, 76, 77, 78, 79, 80, 81, 82, 83, 84, 85, 86, 87, 88, 89, 90, 91, 92, 93, 94, 95, 96, 97, 98, 99, 100, 101, 102, 103, 104, 105, 106, 107, 108, 109, 110, 111, 112, 113, 114, 115, 116, 117, 118, 119, 120, 121, 122, 123, 124, 125, 126, 127, 128, 129, 130, 131, 132, 133, 134, 135, 136, 137, 138, 139, 140, 141, 142, 143, 144, 145, 146, 147, 148, 149, 150, 151, 152, 153, 154, 155, 156, 157, 158, 159, 160, 161, 162, 163, 164, 165, 166, 167, 168, 169, 170, 171, 172, 173, 174, 175, 176, 177, 178, 179, 180, 181, 182, 183, 184, 185, 186, 187, 188, 189, 190, 191, 192, 193, 194, 195, 196, 197, 198, 199, 200, 201, 202, 203, 204, 205, 206, 207, 208, 209, 210, 211, 212, 213, 214, 215, 216, 217, 218, 219, 220, 221, 222, 223, 224, 225, 226, 227, 228, 229, 230, 231, 232, 233, 234, 235, 236, 237, 238, 239, 240, 241, 242, 243, 244, 245, 246, 247, 248, 249, 250, 251, 252, 253, 254, 255, 256, 257, 258, 259, 260, 261, 262, 263, 264, 265, 266, 267, 268, 269, 270, 271, 272, 273, 274, 275, 276, 277, 278, 279, 280],
      "AcquisitionTime": ["143447.755000", "143449.005000", "143450.255000", "143451.505000", "143452.755000", "143454.005000", "143455.255000", "143456.505000", "143457.755000", "143459.005000", "143500.255000", "143501.505000", "143502.755000", "143504.005000", "143505.255000", "143506.505000", "143507.755000", "143509.005000", "143510.255000", "143511.505000", "143512.755000", "143514.005000", "143515.255000", "143516.505000", "143517.755000", "143519.005000", "143520.255000", "143521.505000", "143522.755000", "143524.005000", "143525.255000", "143526.505000", "143527.755000", "143529.005000", "143530.255000", "143531.505000", "143532.755000", "143534.005000", "143535.255000", "143536.505000", "143537.755000", "143539.005000", "143540.255000", "143541.505000", "143542.755000", "143544.005000", "143545.255000", "143546.505000", "143547.755000", "143549.005000", "143550.255000", "143551.505000", "143552.755000", "143554.005000", "143555.255000", "143556.505000", "143557.755000", "143559.005000", "143600.255000", "143601.505000", "143602.755000", "143604.005000", "143605.255000", "143606.505000", "143607.755000", "143609.005000", "143610.255000", "143611.505000", "143612.755000", "143614.005000", "143615.255000", "143616.505000", "143617.755000", "143619.005000", "143620.255000", "143621.505000", "143622.755000", "143624.005000", "143625.255000", "143626.505000", "143627.755000", "143629.005000", "143630.255000", "143631.505000", "143632.755000", "143634.005000", "143635.255000", "143636.505000", "143637.755000", "143639.005000", "143640.255000", "143641.505000", "143642.755000", "143644.005000", "143645.255000", "143646.505000", "143647.755000", "143649.005000", "143650.255000", "143651.505000", "143652.755000", "143654.005000", "143655.255000", "143656.505000", "143657.755000", "143659.005000", "143700.255000", "143701.505000", "143702.755000", "143704.005000", "143705.255000", "143706.505000", "143707.755000", "143709.005000", "143710.255000", "143711.505000", "143712.755000", "143714.005000", "143715.255000", "143716.505000", "143717.755000", "143719.005000", "143720.255000", "143721.505000", "143722.755000", "143724.005000", "143725.255000", "143726.505000", "143727.755000", "143729.005000", "143730.255000", "143731.505000", "143732.755000", "143734.005000", "143735.255000", "143736.505000", "143737.755000", "143739.005000", "143740.255000", "143741.505000", "143742.755000", "143744.005000", "143745.255000", "143746.505000", "143747.755000", "143749.005000", "143750.255000", "143751.505000", "143752.755000", "143754.005000", "143755.255000", "143756.505000", "143757.755000", "143759.005000", "143800.255000", "143801.505000", "143802.755000", "143804.005000", "143805.255000", "143806.505000", "143807.755000", "143809.005000", "143810.255000", "143811.505000", "143812.755000", "143814.005000", "143815.255000", "143816.505000", "143817.755000", "143819.005000", "143820.255000", "143821.505000", "143822.755000", "143824.005000", "143825.255000", "143826.505000", "143827.755000", "143829.005000", "143830.255000", "143831.505000", "143832.755000", "143834.005000", "143835.255000", "143836.505000", "143837.755000", "143839.005000", "143840.255000", "143841.505000", "143842.755000", "143844.005000", "143845.255000", "143846.505000", "143847.755000", "143849.005000", "143850.255000", "143851.505000", "143852.755000", "143854.005000", "143855.255000", "143856.505000", "143857.755000", "143859.005000", "143900.255000", "143901.505000", "143902.755000", "143904.005000", "143905.255000", "143906.505000", "143907.755000", "143909.005000", "143910.255000", "143911.505000", "143912.755000", "143914.005000", "143915.255000", "143916.505000", "143917.755000", "143919.005000", "143920.255000", "143921.505000", "143922.755000", "143924.005000", "143925.255000", "143926.505000", "143927.755000", "143929.005000", "143930.255000", "143931.505000", "143932.755000", "143934.005000", "143935.255000", "143936.505000", "143937.755000", "143939.005000", "143940.255000", "143941.505000", "143942.755000", "143944.005000", "143945.255000", "143946.505000", "143947.755000", "143949.005000", "143950.255000", "143951.505000", "143952.755000", "143954.005000", "143955.255000", "143956.505000", "143957.755000", "143959.005000", "144000.255000", "144001.505000", "144002.755000", "144004.005000", "144005.255000", "144006.505000", "144007.755000", "144009.005000", "144010.255000", "144011.505000", "144012.755000", "144014.005000", "144015.255000", "144016.505000", "144017.755000", "144019.005000", "144020.255000", "144021.505000", "144022.755000", "144024.005000", "144025.255000", "144026.505000", "144027.755000", "144029.005000", "144030.255000", "144031.505000", "144032.755000", "144034.005000", "144035.255000", "144036.505000"],
      "ContentTime": ["143449.749000", "143450.791000", "143452.107000", "143453.298000", "143454.539000", "143455.801000", "143457.065000", "143458.320000", "143459.608000", "143500.825000", "143502.047000", "143503.314000", "143504.568000", "143505.792000", "143507.088000", "143508.326000", "143509.557000", "143510.819000", "143512.058000", "143513.328000", "143514.549000", "143515.815000", "143517.033000", "143518.304000", "143519.556000", "143520.795000", "143522.054000", "143523.305000", "143524.519000", "143525.803000", "143527.073000", "143528.291000", "143529.563000", "143530.803000", "143532.045000", "143533.296000", "143534.536000", "143535.820000", "143537.060000", "143538.292000", "143539.568000", "143540.793000", "143542.072000", "143543.346000", "143544.547000", "143545.781000", "143547.075000", "143548.298000", "143549.523000", "143550.782000", "143552.042000", "143553.321000", "143554.578000", "143555.798000", "143557.077000", "143558.316000", "143559.557000", "143600.811000", "143602.072000", "143603.271000", "143604.550000", "143605.775000", "143607.055000", "143608.289000", "143609.526000", "143610.813000", "143612.038000", "143613.300000", "143614.557000", "143615.796000", "143617.068000", "143618.305000", "143619.560000", "143620.817000", "143622.045000", "143623.307000", "143624.545000", "143625.813000", "143627.023000", "143628.288000", "143629.546000", "143630.796000", "143632.032000", "143633.296000", "143634.531000", "143635.827000", "143637.062000", "143638.315000", "143639.547000", "143640.799000", "143642.033000", "143643.289000", "143644.556000", "143645.777000", "143647.041000", "143648.317000", "143649.539000", "143650.806000", "143652.043000", "143653.285000", "143654.544000", "143655.830000", "143657.102000", "143658.315000", "143659.565000", "143700.824000", "143702.052000", "143703.309000", "143704.560000", "143705.793000", "143707.077000", "143708.314000", "143709.582000", "143710.827000", "143712.056000", "143713.319000", "143714.584000", "143715.832000", "143717.102000", "143718.313000", "143719.548000", "143720.802000", "143722.086000", "143723.307000", "143724.526000", "143725.795000", "143727.050000", "143728.290000", "143729.555000", "143730.810000", "143732.022000", "143733.295000", "143734.538000", "143735.799000", "143737.030000", "143738.293000", "143739.559000", "143740.825000", "143742.108000", "143743.318000", "143744.555000", "143745.846000", "143747.081000", "143748.283000", "143749.571000", "143750.819000", "143752.066000", "143753.340000", "143754.563000", "143755.795000", "143757.159000", "143758.324000", "143759.544000", "143800.817000", "143802.044000", "143803.315000", "143804.544000", "143805.799000", "143807.042000", "143808.304000", "143809.553000", "143810.788000", "143812.044000", "143813.304000", "143814.574000", "143815.813000", "143817.066000", "143818.306000", "143819.559000", "143820.791000", "143822.081000", "143823.299000", "143824.539000", "143825.793000", "143827.045000", "143828.324000", "143829.546000", "143830.808000", "143832.049000", "143833.306000", "143834.554000", "143835.815000", "143837.072000", "143838.336000", "143839.551000", "143840.790000", "143842.032000", "143843.318000", "143844.558000", "143845.801000", "143847.038000", "143848.406000", "143849.558000", "143850.810000", "143852.029000", "143853.289000", "143854.555000", "143855.799000", "143857.027000", "143858.277000", "143859.561000", "143900.777000", "143902.042000", "143903.315000", "143904.563000", "143905.815000", "143907.049000", "143908.314000", "143909.539000", "143910.797000", "143912.064000", "143913.302000", "143914.560000", "143915.808000", "143917.065000", "143918.269000", "143919.586000", "143920.804000", "143922.108000", "143923.318000", "143924.581000", "143925.825000", "143927.062000", "143928.254000", "143929.537000", "143930.842000", "143932.013000", "143933.287000", "143934.573000", "143935.777000", "143937.041000", "143938.309000", "143939.566000", "143940.829000", "143942.048000", "143943.295000", "143944.559000", "143945.802000", "143947.073000", "143948.319000", "143949.578000", "143950.793000", "143952.046000", "143953.272000", "143954.574000", "143955.782000", "143957.049000", "143958.315000", "143959.548000", "144000.807000", "144002.073000", "144003.331000", "144004.542000", "144005.796000", "144007.051000", "144008.332000", "144009.560000", "144010.851000", "144012.112000", "144013.313000", "144014.583000", "144015.790000", "144017.043000", "144018.302000", "144019.530000", "144020.781000", "144022.095000", "144023.323000", "144024.542000", "144025.806000", "144027.077000", "144028.305000", "144029.571000", "144030.822000", "144032.054000", "144033.310000", "144034.548000", "144035.815000", "144037.031000", "144038.337000"],
      "InstanceCreationTime": ["143449.749000", "143450.791000", "143452.107000", "143453.298000", "143454.539000", "143455.801000", "143457.065000", "143458.320000", "143459.608000", "143500.825000", "143502.047000", "143503.314000", "143504.568000", "143505.792000", "143507.088000", "143508.326000", "143509.557000", "143510.819000", "143512.058000", "143513.328000", "143514.549000", "143515.815000", "143517.033000", "143518.304000", "143519.556000", "143520.795000", "143522.054000", "143523.305000", "143524.519000", "143525.803000", "143527.073000", "143528.291000", "143529.563000", "143530.803000", "143532.045000", "143533.296000", "143534.536000", "143535.820000", "143537.060000", "143538.292000", "143539.568000", "143540.793000", "143542.072000", "143543.346000", "143544.547000", "143545.781000", "143547.075000", "143548.298000", "143549.523000", "143550.782000", "143552.042000", "143553.321000", "143554.578000", "143555.798000", "143557.077000", "143558.316000", "143559.557000", "143600.811000", "143602.072000", "143603.271000", "143604.550000", "143605.775000", "143607.055000", "143608.289000", "143609.526000", "143610.813000", "143612.038000", "143613.300000", "143614.557000", "143615.796000", "143617.068000", "143618.305000", "143619.560000", "143620.817000", "143622.045000", "143623.307000", "143624.545000", "143625.813000", "143627.023000", "143628.288000", "143629.546000", "143630.796000", "143632.032000", "143633.296000", "143634.531000", "143635.827000", "143637.062000", "143638.315000", "143639.547000", "143640.799000", "143642.033000", "143643.289000", "143644.556000", "143645.777000", "143647.041000", "143648.317000", "143649.539000", "143650.806000", "143652.043000", "143653.285000", "143654.544000", "143655.830000", "143657.102000", "143658.315000", "143659.565000", "143700.824000", "143702.052000", "143703.309000", "143704.560000", "143705.793000", "143707.077000", "143708.314000", "143709.582000", "143710.827000", "143712.056000", "143713.319000", "143714.584000", "143715.832000", "143717.102000", "143718.313000", "143719.548000", "143720.802000", "143722.086000", "143723.307000", "143724.526000", "143725.795000", "143727.050000", "143728.290000", "143729.555000", "143730.810000", "143732.022000", "143733.295000", "143734.538000", "143735.799000", "143737.030000", "143738.293000", "143739.559000", "143740.825000", "143742.108000", "143743.318000", "143744.555000", "143745.846000", "143747.081000", "143748.283000", "143749.571000", "143750.819000", "143752.066000", "143753.340000", "143754.563000", "143755.795000", "143757.159000", "143758.324000", "143759.544000", "143800.817000", "143802.044000", "143803.315000", "143804.544000", "143805.799000", "143807.042000", "143808.304000", "143809.553000", "143810.788000", "143812.044000", "143813.304000", "143814.574000", "143815.813000", "143817.066000", "143818.306000", "143819.559000", "143820.791000", "143822.081000", "143823.299000", "143824.539000", "143825.793000", "143827.045000", "143828.324000", "143829.546000", "143830.808000", "143832.049000", "143833.306000", "143834.554000", "143835.815000", "143837.072000", "143838.336000", "143839.551000", "143840.790000", "143842.032000", "143843.318000", "143844.558000", "143845.801000", "143847.038000", "143848.406000", "143849.558000", "143850.810000", "143852.029000", "143853.289000", "143854.555000", "143855.799000", "143857.027000", "143858.277000", "143859.561000", "143900.777000", "143902.042000", "143903.315000", "143904.563000", "143905.815000", "143907.049000", "143908.314000", "143909.539000", "143910.797000", "143912.064000", "143913.302000", "143914.560000", "143915.808000", "143917.065000", "143918.269000", "143919.586000", "143920.804000", "143922.108000", "143923.318000", "143924.581000", "143925.825000", "143927.062000", "143928.254000", "143929.537000", "143930.842000", "143932.013000", "143933.287000", "143934.573000", "143935.777000", "143937.041000", "143938.309000", "143939.566000", "143940.829000", "143942.048000", "143943.295000", "143944.559000", "143945.802000", "143947.073000", "143948.319000", "143949.578000", "143950.793000", "143952.046000", "143953.272000", "143954.574000", "143955.782000", "143957.049000", "143958.315000", "143959.548000", "144000.807000", "144002.073000", "144003.331000", "144004.542000", "144005.796000", "144007.051000", "144008.332000", "144009.560000", "144010.851000", "144012.112000", "144013.313000", "144014.583000", "144015.790000", "144017.043000", "144018.302000", "144019.530000", "144020.781000", "144022.095000", "144023.323000", "144024.542000", "144025.806000", "144027.077000", "144028.305000", "144029.571000", "144030.822000", "144032.054000", "144033.310000", "144034.548000", "144035.815000", "144037.031000", "144038.337000"],
      "InstanceNumber": [1, 2, 3, 4, 5, 6, 7, 8, 9, 10, 11, 12, 13, 14, 15, 16, 17, 18, 19, 20, 21, 22, 23, 24, 25, 26, 27, 28, 29, 30, 31, 32, 33, 34, 35, 36, 37, 38, 39, 40, 41, 42, 43, 44, 45, 46, 47, 48, 49, 50, 51, 52, 53, 54, 55, 56, 57, 58, 59, 60, 61, 62, 63, 64, 65, 66, 67, 68, 69, 70, 71, 72, 73, 74, 75, 76, 77, 78, 79, 80, 81, 82, 83, 84, 85, 86, 87, 88, 89, 90, 91, 92, 93, 94, 95, 96, 97, 98, 99, 100, 101, 102, 103, 104, 105, 106, 107, 108, 109, 110, 111, 112, 113, 114, 115, 116, 117, 118, 119, 120, 121, 122, 123, 124, 125, 126, 127, 128, 129, 130, 131, 132, 133, 134, 135, 136, 137, 138, 139, 140, 141, 142, 143, 144, 145, 146, 147, 148, 149, 150, 151, 152, 153, 154, 155, 156, 157, 158, 159, 160, 161, 162, 163, 164, 165, 166, 167, 168, 169, 170, 171, 172, 173, 174, 175, 176, 177, 178, 179, 180, 181, 182, 183, 184, 185, 186, 187, 188, 189, 190, 191, 192, 193, 194, 195, 196, 197, 198, 199, 200, 201, 202, 203, 204, 205, 206, 207, 208, 209, 210, 211, 212, 213, 214, 215, 216, 217, 218, 219, 220, 221, 222, 223, 224, 225, 226, 227, 228, 229, 230, 231, 232, 233, 234, 235, 236, 237, 238, 239, 240, 241, 242, 243, 244, 245, 246, 247, 248, 249, 250, 251, 252, 253, 254, 255, 256, 257, 258, 259, 260, 261, 262, 263, 264, 265, 266, 267, 268, 269, 270, 271, 272, 273, 274, 275, 276, 277, 278, 279, 280],
      "LargestImagePixelValue": [1252, 1160, 985, 1179, 1197, 776, 732, 816, 1225, 981, 1123, 983, 764, 743, 1049, 885, 846, 1228, 922, 818, 859, 1337, 1072, 821, 1053, 916, 853, 761, 754, 796, 1117, 812, 1092, 1155, 805, 848, 809, 1071, 820, 804, 789, 1142, 893, 792, 1074, 836, 840, 713, 1084, 906, 826, 855, 1157, 826, 825, 770, 1083, 775, 790, 1131, 930, 761, 829, 1192, 965, 821, 1097, 1006, 796, 757, 1088, 878, 776, 817, 1105, 943, 846, 732, 998, 1034, 829, 791, 823, 715, 1192, 812, 910, 932, 1046, 942, 797, 839, 1200, 1032, 813, 853, 887, 951, 1023, 844, 801, 800, 866, 1103, 959, 820, 833, 879, 1199, 885, 771, 806, 829, 764, 1195, 943, 883, 773, 1185, 844, 844, 799, 1026, 1119, 858, 784, 982, 1053, 782, 776, 1129, 796, 792, 790, 1057, 855, 751, 1028, 784, 808, 999, 877, 859, 1238, 1012, 774, 1034, 808, 1114, 842, 757, 1108, 805, 794, 1135, 755, 777, 1079, 908, 824, 1184, 991, 854, 1018, 845, 731, 1051, 825, 1044, 1012, 813, 820, 1106, 769, 875, 1130, 821, 886, 971, 804, 756, 1089, 997, 1236, 853, 746, 919, 791, 826, 785, 1046, 993, 1135, 782, 998, 762, 809, 1033, 1232, 998, 830, 829, 1218, 827, 788, 772, 857, 1119, 798, 767, 844, 762, 988, 1248, 867, 829, 1139, 1091, 818, 851, 984, 983, 980, 961, 787, 864, 1126, 918, 789, 771, 1120, 886, 822, 839, 1109, 796, 795, 751, 993, 846, 1229, 1011, 831, 946, 778, 732, 1030, 889, 1141, 1082, 769, 1186, 1187, 781, 813, 1165, 857, 895, 829, 1204, 1046, 782, 835, 1095, 925, 763, 868, 727, 1171, 961, 885, 736, 993, 907, 766, 742, 828, 1245, 951, 773],
      "WindowCenter": [352.0, 350.0, 346.0, 347.0, 347.0, 344.0, 345.0, 346.0, 349.0, 347.0, 348.0, 347.0, 345.0, 346.0, 350.0, 348.0, 347.0, 350.0, 347.0, 347.0, 347.0, 351.0, 348.0, 345.0, 348.0, 347.0, 346.0, 345.0, 346.0, 347.0, 351.0, 348.0, 350.0, 350.0, 346.0, 346.0, 345.0, 349.0, 347.0, 347.0, 347.0, 350.0, 347.0, 346.0, 349.0, 347.0, 347.0, 346.0, 350.0, 347.0, 347.0, 347.0, 350.0, 347.0, 347.0, 347.0, 350.0, 347.0, 347.0, 350.0, 348.0, 347.0, 348.0, 351.0, 348.0, 347.0, 349.0, 348.0, 346.0, 346.0, 350.0, 347.0, 347.0, 347.0, 350.0, 348.0, 347.0, 346.0, 349.0, 349.0, 347.0, 347.0, 347.0, 346.0, 352.0, 348.0, 348.0, 349.0, 350.0, 349.0, 348.0, 348.0, 350.0, 349.0, 347.0, 347.0, 347.0, 348.0, 348.0, 347.0, 346.0, 347.0, 347.0, 350.0, 348.0, 347.0, 347.0, 347.0, 349.0, 347.0, 346.0, 347.0, 347.0, 347.0, 351.0, 348.0, 347.0, 346.0, 351.0, 347.0, 347.0, 347.0, 348.0, 349.0, 347.0, 346.0, 348.0, 349.0, 346.0, 346.0, 349.0, 347.0, 347.0, 347.0, 350.0, 347.0, 346.0, 349.0, 347.0, 347.0, 350.0, 349.0, 348.0, 351.0, 348.0, 346.0, 349.0, 347.0, 350.0, 347.0, 346.0, 350.0, 347.0, 347.0, 350.0, 347.0, 348.0, 350.0, 349.0, 347.0, 351.0, 349.0, 347.0, 349.0, 347.0, 346.0, 350.0, 347.0, 349.0, 349.0, 347.0, 347.0, 350.0, 347.0, 348.0, 350.0, 347.0, 347.0, 349.0, 347.0, 347.0, 350.0, 349.0, 350.0, 347.0, 345.0, 348.0, 347.0, 349.0, 348.0, 350.0, 349.0, 350.0, 347.0, 349.0, 346.0, 348.0, 350.0, 351.0, 348.0, 346.0, 345.0, 349.0, 346.0, 346.0, 346.0, 347.0, 350.0, 347.0, 346.0, 348.0, 347.0, 350.0, 351.0, 347.0, 347.0, 350.0, 350.0, 347.0, 347.0, 348.0, 349.0, 348.0, 348.0, 346.0, 347.0, 350.0, 347.0, 346.0, 346.0, 350.0, 347.0, 347.0, 347.0, 349.0, 346.0, 347.0, 346.0, 350.0, 348.0, 351.0, 349.0, 347.0, 349.0, 347.0, 347.0, 351.0, 349.0, 351.0, 351.0, 346.0, 350.0, 350.0, 346.0, 347.0, 350.0, 347.0, 349.0, 347.0, 350.0, 349.0, 346.0, 347.0, 349.0, 348.0, 346.0, 347.0, 346.0, 350.0, 348.0, 347.0, 345.0, 348.0, 348.0, 347.0, 347.0, 348.0, 352.0, 349.0, 347.0],
      "WindowWidth": [752.0, 749.0, 743.0, 744.0, 744.0, 740.0, 742.0, 743.0, 747.0, 744.0, 745.0, 744.0, 742.0, 744.0, 749.0, 747.0, 744.0, 749.0, 745.0, 744.0, 746.0, 750.0, 746.0, 742.0, 746.0, 745.0, 744.0, 742.0, 743.0, 745.0, 751.0, 746.0, 749.0, 749.0, 743.0, 743.0, 742.0, 747.0, 745.0, 745.0, 745.0, 750.0, 745.0, 743.0, 747.0, 744.0, 744.0, 743.0, 748.0, 745.0, 744.0, 745.0, 749.0, 744.0, 745.0, 745.0, 750.0, 745.0, 745.0, 750.0, 747.0, 745.0, 747.0, 751.0, 747.0, 744.0, 748.0, 747.0, 743.0, 744.0, 749.0, 745.0, 745.0, 746.0, 750.0, 747.0, 746.0, 744.0, 748.0, 748.0, 746.0, 745.0, 746.0, 745.0, 753.0, 747.0, 747.0, 748.0, 750.0, 748.0, 746.0, 747.0, 749.0, 748.0, 744.0, 744.0, 744.0, 745.0, 746.0, 744.0, 744.0, 744.0, 745.0, 748.0, 747.0, 746.0, 746.0, 745.0, 748.0, 745.0, 744.0, 745.0, 746.0, 745.0, 751.0, 747.0, 745.0, 744.0, 750.0, 746.0, 745.0, 745.0, 747.0, 748.0, 744.0, 743.0, 746.0, 748.0, 744.0, 744.0, 748.0, 745.0, 745.0, 745.0, 749.0, 746.0, 744.0, 748.0, 745.0, 745.0, 749.0, 748.0, 747.0, 750.0, 747.0, 744.0, 748.0, 745.0, 750.0, 746.0, 744.0, 749.0, 745.0, 744.0, 749.0, 745.0, 746.0, 750.0, 747.0, 746.0, 751.0, 748.0, 745.0, 748.0, 745.0, 743.0, 749.0, 746.0, 748.0, 748.0, 744.0, 745.0, 750.0, 745.0, 746.0, 749.0, 744.0, 745.0, 748.0, 746.0, 746.0, 750.0, 747.0, 749.0, 744.0, 743.0, 746.0, 746.0, 749.0, 748.0, 750.0, 748.0, 750.0, 745.0, 748.0, 744.0, 746.0, 749.0, 750.0, 746.0, 743.0, 742.0, 748.0, 743.0, 744.0, 744.0, 745.0, 749.0, 745.0, 744.0, 746.0, 745.0, 750.0, 751.0, 746.0, 744.0, 749.0, 749.0, 745.0, 746.0, 747.0, 747.0, 747.0, 747.0, 744.0, 745.0, 748.0, 745.0, 743.0, 744.0, 748.0, 745.0, 744.0, 744.0, 748.0, 744.0, 745.0, 744.0, 749.0, 747.0, 751.0, 748.0, 746.0, 748.0, 745.0, 746.0, 752.0, 749.0, 751.0, 751.0, 744.0, 749.0, 749.0, 744.0, 744.0, 748.0, 745.0, 747.0, 746.0, 749.0, 748.0, 744.0, 744.0, 747.0, 746.0, 744.0, 745.0, 743.0, 749.0, 746.0, 744.0, 742.0, 746.0, 746.0, 745.0, 746.0, 747.0, 752.0, 748.0, 746.0]
    },
    "slices": {}
  }
}