{
  "AcquisitionMatrixPE": 96,
  "AcquisitionNumber": 1,
  "AcquisitionTime": "11:01:46.417500",
  "BandwidthPerPixelPhaseEncode": 18.939,
  "BaseResolution": 96,
  "BodyPartExamined": "BRAIN",
  "ConsistencyInfo": "N4_VE11C_LATEST_20160120",
  "ConversionSoftware": "dcm2niix",
  "ConversionSoftwareVersion": "v1.0.20170923 (OpenJPEG build) GCC6.3.0",
  "DerivedVendorReportedEchoSpacing": 0.000550011,
  "DeviceSerialNumber": "66112",
  "DwellTime": 2.3e-06,
  "EchoTime": 0.033,
  "EchoTrainLength": 96,
  "EffectiveEchoSpacing": 0.000550011,
  "FlipAngle": 64,
  "ImageType": [
    "ORIGINAL",
    "PRIMARY",
    "FMRI",
    "NONE",
    "ND",
    "NORM",
    "MOSAIC"
],
  "InstitutionAddress": "Maynard_3_Hanover_NH_US_03755",
  "InstitutionName": "Dartmouth_College_-_PBS",
  "MagneticFieldStrength": 3,
  "Manufacturer": "Siemens",
  "ManufacturersModelName": "Prisma",
  "Modality": "MR",
  "MultibandAccelerationFactor": 4,
  "PartialFourier": 1,
  "PercentPhaseFOV": 100,
  "PhaseEncodingDirection": "j-",
  "PhaseEncodingSteps": 96,
  "PhaseResolution": 1,
  "ProcedureStepDescription": "Gobbini_Matteo_1017_famface-angles",
  "ProtocolName": "func_run-05_task-str1back",
  "PulseSequenceDetails": "%SiemensSeq%_ep2d_bold",
  "ReceiveCoilActiveElements": "HEA;HEP",
  "ReceiveCoilName": "Head_32",
  "ReconMatrixPE": 96,
  "RepetitionTime": 1.25,
  "ScanOptions": "FS",
  "ScanningSequence": "EP",
  "SequenceName": "_epfid2d1_96",
  "SequenceVariant": "SK",
  "SeriesDescription": "func_run-05_task-str1back",
  "SliceTiming": [0.8775, 0, 0.615, 0.0875, 0.7025, 0.175, 0.79, 0.3525, 0.9675, 0.44, 1.055, 0.5275, 1.1425, 0.2625, 0.8775, 0, 0.615, 0.0875, 0.7025, 0.175, 0.79, 0.3525, 0.9675, 0.44, 1.055, 0.5275, 1.1425, 0.2625, 0.8775, 0, 0.615, 0.0875, 0.7025, 0.175, 0.79, 0.3525, 0.9675, 0.44, 1.055, 0.5275, 1.1425, 0.2625, 0.8775, 0, 0.615, 0.0875, 0.7025, 0.175, 0.79, 0.3525, 0.9675, 0.44, 1.055, 0.5275, 1.1425, 0.2625],
  "SoftwareVersions": "syngo_MR_E11",
  "StationName": "AWP66112",
  "TaskName": "str1back",
  "TotalReadoutTime": 0.0522511,
  "dcmmeta_affine": [
    [-2.492647886276245, 0.04742610082030296, 0.1856268346309662, 115.20972442626953],
    [0.07616527378559113, 2.4678611755371094, 0.3922502100467682, -110.462890625],
    [0.17579935491085052, -0.3967519998550415, 2.462048292160034, -44.667640686035156],
    [0.0, 0.0, 0.0, 1.0]
],
  "dcmmeta_reorient_transform": [
    [0.0, -1.0, 0.0, 95.0],
    [1.0, 0.0, 0.0, 0.0],
    [0.0, 0.0, 1.0, 0.0],
    [0.0, 0.0, 0.0, 1.0]
],
  "dcmmeta_shape": [96, 96, 56, 280],
  "dcmmeta_slice_dim": 2,
  "dcmmeta_version": 0.6,
  "global": {
    "const": {
      "AccessionNumber": "A000491",
      "AcquisitionMatrix": [96, 0, 0, 96],
      "AngioFlag": "N",
      "BitsAllocated": 16,
      "BitsStored": 12,
      "BodyPartExamined": "BRAIN",
      "Columns": 768,
      "EchoNumbers": 1,
      "EchoTime": 33.0,
      "EchoTrainLength": 96,
      "FlipAngle": 64.0,
      "HighBit": 11,
      "ImageOrientationPatient": [0.99705915091762, -0.0304661089803, 0.07031973958309, 0.01897044058389, 0.98714445611666, 0.15870080384864],
      "ImagePositionPatient": [-973.18006052089, -927.59372934891, -274.7363391261],
      "ImageType": [
        "ORIGINAL",
        "PRIMARY",
        "FMRI",
        "NONE",
        "ND",
        "NORM",
        "MOSAIC"
],
      "ImagedNucleus": "1H",
      "ImagingFrequency": 123.252535,
      "InPlanePhaseEncodingDirection": "COL",
      "MRAcquisitionType": "2D",
      "MagneticFieldStrength": 3.0,
      "Manufacturer": "SIEMENS",
      "ManufacturerModelName": "Prisma",
      "Modality": "MR",
      "NumberOfAverages": 1.0,
      "NumberOfPhaseEncodingSteps": 96,
      "PercentPhaseFieldOfView": 100.0,
      "PercentSampling": 100.0,
      "PerformedProcedureStepStartTime": "102444.623000",
      "PhotometricInterpretation": "MONOCHROME2",
      "PixelBandwidth": 2265.0,
      "PixelRepresentation": 0,
      "PixelSpacing": [2.5, 2.5],
      "PositionReferenceIndicator": "",
      "ProtocolName": "func_run-05_task-str1back",
      "RepetitionTime": 1250.0,
      "Rows": 768,
      "SAR": 0.04941021401557,
      "SamplesPerPixel": 1,
      "ScanOptions": "FS",
      "ScanningSequence": "EP",
      "SequenceName": "*epfid2d1_96",
      "SequenceVariant": "SK",
      "SeriesDescription": "func_run-05_task-str1back",
      "SeriesNumber": 39,
      "SeriesTime": "110148.067000",
      "SliceLocation": -52.766789531645,
      "SliceThickness": 2.5,
      "SmallestImagePixelValue": 0,
      "SoftwareVersions": "syngo MR E11",
      "SpacingBetweenSlices": 2.4999999199391,
      "SpecificCharacterSet": "ISO_IR 100",
      "StudyID": "2",
      "StudyTime": "102444.520000",
      "TransmitCoilName": "Body",
      "VariableFlipAngleFlag": "N",
      "WindowCenterWidthExplanation": "Algo1",
      "dBdt": 0.0},
    "slices": {}
  },
  "time": {
    "samples": {
      "AcquisitionNumber": [1, 2, 3, 4, 5, 6, 7, 8, 9, 10, 11, 12, 13, 14, 15, 16, 17, 18, 19, 20, 21, 22, 23, 24, 25, 26, 27, 28, 29, 30, 31, 32, 33, 34, 35, 36, 37, 38, 39, 40, 41, 42, 43, 44, 45, 46, 47, 48, 49, 50, 51, 52, 53, 54, 55, 56, 57, 58, 59, 60, 61, 62, 63, 64, 65, 66, 67, 68, 69, 70, 71, 72, 73, 74, 75, 76, 77, 78, 79, 80, 81, 82, 83, 84, 85, 86, 87, 88, 89, 90, 91, 92, 93, 94, 95, 96, 97, 98, 99, 100, 101, 102, 103, 104, 105, 106, 107, 108, 109, 110, 111, 112, 113, 114, 115, 116, 117, 118, 119, 120, 121, 122, 123, 124, 125, 126, 127, 128, 129, 130, 131, 132, 133, 134, 135, 136, 137, 138, 139, 140, 141, 142, 143, 144, 145, 146, 147, 148, 149, 150, 151, 152, 153, 154, 155, 156, 157, 158, 159, 160, 161, 162, 163, 164, 165, 166, 167, 168, 169, 170, 171, 172, 173, 174, 175, 176, 177, 178, 179, 180, 181, 182, 183, 184, 185, 186, 187, 188, 189, 190, 191, 192, 193, 194, 195, 196, 197, 198, 199, 200, 201, 202, 203, 204, 205, 206, 207, 208, 209, 210, 211, 212, 213, 214, 215, 216, 217, 218, 219, 220, 221, 222, 223, 224, 225, 226, 227, 228, 229, 230, 231, 232, 233, 234, 235, 236, 237, 238, 239, 240, 241, 242, 243, 244, 245, 246, 247, 248, 249, 250, 251, 252, 253, 254, 255, 256, 257, 258, 259, 260, 261, 262, 263, 264, 265, 266, 267, 268, 269, 270, 271, 272, 273, 274, 275, 276, 277, 278, 279, 280],
      "AcquisitionTime": ["110146.417500", "110147.667500", "110148.917500", "110150.167500", "110151.417500", "110152.667500", "110153.917500", "110155.167500", "110156.417500", "110157.667500", "110158.917500", "110200.167500", "110201.417500", "110202.667500", "110203.917500", "110205.167500", "110206.417500", "110207.667500", "110208.917500", "110210.167500", "110211.417500", "110212.667500", "110213.917500", "110215.167500", "110216.417500", "110217.667500", "110218.917500", "110220.167500", "110221.417500", "110222.667500", "110223.917500", "110225.167500", "110226.417500", "110227.667500", "110228.917500", "110230.167500", "110231.417500", "110232.667500", "110233.917500", "110235.167500", "110236.417500", "110237.667500", "110238.917500", "110240.167500", "110241.417500", "110242.667500", "110243.917500", "110245.167500", "110246.417500", "110247.667500", "110248.917500", "110250.167500", "110251.417500", "110252.667500", "110253.917500", "110255.167500", "110256.417500", "110257.667500", "110258.917500", "110300.167500", "110301.417500", "110302.667500", "110303.917500", "110305.167500", "110306.417500", "110307.667500", "110308.917500", "110310.167500", "110311.417500", "110312.667500", "110313.917500", "110315.167500", "110316.417500", "110317.667500", "110318.917500", "110320.167500", "110321.417500", "110322.667500", "110323.917500", "110325.167500", "110326.417500", "110327.667500", "110328.917500", "110330.167500", "110331.417500", "110332.667500", "110333.917500", "110335.167500", "110336.417500", "110337.667500", "110338.917500", "110340.167500", "110341.417500", "110342.667500", "110343.917500", "110345.167500", "110346.417500", "110347.667500", "110348.917500", "110350.167500", "110351.417500", "110352.667500", "110353.917500", "110355.167500", "110356.417500", "110357.667500", "110358.917500", "110400.167500", "110401.417500", "110402.667500", "110403.917500", "110405.167500", "110406.417500", "110407.667500", "110408.917500", "110410.167500", "110411.417500", "110412.667500", "110413.917500", "110415.167500", "110416.417500", "110417.667500", "110418.917500", "110420.167500", "110421.417500", "110422.667500", "110423.917500", "110425.167500", "110426.417500", "110427.667500", "110428.917500", "110430.167500", "110431.417500", "110432.667500", "110433.917500", "110435.167500", "110436.417500", "110437.667500", "110438.917500", "110440.167500", "110441.417500", "110442.667500", "110443.917500", "110445.167500", "110446.417500", "110447.667500", "110448.917500", "110450.167500", "110451.417500", "110452.667500", "110453.917500", "110455.167500", "110456.417500", "110457.667500", "110458.917500", "110500.167500", "110501.417500", "110502.667500", "110503.917500", "110505.167500", "110506.417500", "110507.667500", "110508.917500", "110510.167500", "110511.417500", "110512.667500", "110513.917500", "110515.167500", "110516.417500", "110517.667500", "110518.917500", "110520.167500", "110521.417500", "110522.667500", "110523.917500", "110525.167500", "110526.417500", "110527.667500", "110528.917500", "110530.167500", "110531.417500", "110532.667500", "110533.917500", "110535.167500", "110536.417500", "110537.667500", "110538.917500", "110540.167500", "110541.417500", "110542.667500", "110543.917500", "110545.167500", "110546.417500", "110547.667500", "110548.917500", "110550.167500", "110551.417500", "110552.667500", "110553.917500", "110555.167500", "110556.417500", "110557.667500", "110558.917500", "110600.167500", "110601.417500", "110602.667500", "110603.917500", "110605.167500", "110606.417500", "110607.667500", "110608.917500", "110610.167500", "110611.417500", "110612.667500", "110613.917500", "110615.167500", "110616.417500", "110617.667500", "110618.917500", "110620.167500", "110621.417500", "110622.667500", "110623.917500", "110625.167500", "110626.417500", "110627.667500", "110628.917500", "110630.167500", "110631.417500", "110632.667500", "110633.917500", "110635.167500", "110636.417500", "110637.667500", "110638.917500", "110640.167500", "110641.417500", "110642.667500", "110643.917500", "110645.167500", "110646.417500", "110647.667500", "110648.917500", "110650.167500", "110651.417500", "110652.667500", "110653.917500", "110655.167500", "110656.417500", "110657.667500", "110658.917500", "110700.167500", "110701.417500", "110702.667500", "110703.917500", "110705.167500", "110706.417500", "110707.667500", "110708.917500", "110710.167500", "110711.417500", "110712.667500", "110713.917500", "110715.167500", "110716.417500", "110717.667500", "110718.917500", "110720.167500", "110721.417500", "110722.667500", "110723.917500", "110725.167500", "110726.417500", "110727.667500", "110728.917500", "110730.167500", "110731.417500", "110732.667500", "110733.917500", "110735.167500"],
      "ContentTime": ["110148.072000", "110149.125000", "110150.374000", "110151.685000", "110152.821000", "110154.096000", "110155.376000", "110156.648000", "110157.857000", "110159.105000", "110200.345000", "110201.617000", "110202.909000", "110204.107000", "110205.363000", "110206.598000", "110207.850000", "110209.115000", "110210.359000", "110211.587000", "110212.830000", "110214.088000", "110215.357000", "110216.611000", "110217.838000", "110219.132000", "110220.406000", "110221.612000", "110222.887000", "110224.103000", "110225.357000", "110226.606000", "110227.854000", "110229.123000", "110230.351000", "110231.601000", "110232.830000", "110234.093000", "110235.370000", "110236.649000", "110237.876000", "110239.115000", "110240.385000", "110241.613000", "110242.844000", "110244.079000", "110245.327000", "110246.603000", "110247.840000", "110249.088000", "110250.344000", "110251.597000", "110252.848000", "110254.114000", "110255.359000", "110256.591000", "110257.830000", "110259.101000", "110300.370000", "110301.612000", "110302.872000", "110304.087000", "110305.346000", "110306.602000", "110307.848000", "110309.096000", "110310.361000", "110311.588000", "110312.868000", "110314.081000", "110315.372000", "110316.591000", "110317.853000", "110319.106000", "110320.355000", "110321.629000", "110322.843000", "110324.095000", "110325.359000", "110326.611000", "110327.847000", "110329.094000", "110330.348000", "110331.601000", "110332.862000", "110334.098000", "110335.340000", "110336.600000", "110337.860000", "110339.142000", "110340.353000", "110341.575000", "110342.867000", "110344.107000", "110345.389000", "110346.603000", "110347.873000", "110349.075000", "110350.314000", "110351.603000", "110352.826000", "110354.124000", "110355.355000", "110356.609000", "110357.845000", "110359.117000", "110400.356000", "110401.618000", "110402.850000", "110404.117000", "110405.349000", "110406.614000", "110407.849000", "110409.101000", "110410.355000", "110411.645000", "110412.865000", "110414.135000", "110415.436000", "110416.644000", "110417.913000", "110419.101000", "110420.365000", "110421.608000", "110422.852000", "110424.122000", "110425.357000", "110426.605000", "110427.852000", "110429.122000", "110430.373000", "110431.612000", "110432.853000", "110434.127000", "110435.365000", "110436.635000", "110437.864000", "110439.110000", "110440.369000", "110441.719000", "110442.861000", "110444.092000", "110445.370000", "110446.654000", "110447.871000", "110449.103000", "110450.340000", "110451.604000", "110452.864000", "110454.119000", "110455.349000", "110456.610000", "110457.853000", "110459.099000", "110500.343000", "110501.606000", "110502.869000", "110504.115000", "110505.347000", "110506.617000", "110507.862000", "110509.124000", "110510.336000", "110511.603000", "110512.872000", "110514.104000", "110515.357000", "110516.621000", "110517.893000", "110519.133000", "110520.395000", "110521.611000", "110522.872000", "110524.126000", "110525.373000", "110526.613000", "110527.845000", "110529.119000", "110530.339000", "110531.596000", "110532.854000", "110534.115000", "110535.369000", "110536.609000", "110537.854000", "110539.064000", "110540.367000", "110541.609000", "110542.882000", "110544.090000", "110545.387000", "110546.625000", "110547.833000", "110549.119000", "110550.366000", "110551.630000", "110552.827000", "110554.108000", "110555.395000", "110556.665000", "110557.863000", "110559.128000", "110600.402000", "110601.615000", "110602.885000", "110604.090000", "110605.348000", "110606.617000", "110607.839000", "110609.128000", "110610.373000", "110611.611000", "110612.864000", "110614.110000", "110615.359000", "110616.618000", "110617.874000", "110619.095000", "110620.367000", "110621.605000", "110622.850000", "110624.104000", "110625.363000", "110626.609000", "110627.831000", "110629.085000", "110630.345000", "110631.605000", "110632.870000", "110634.098000", "110635.356000", "110636.597000", "110637.844000", "110639.130000", "110640.350000", "110641.625000", "110642.865000", "110644.116000", "110645.394000", "110646.617000", "110647.942000", "110649.091000", "110650.357000", "110651.588000", "110652.873000", "110654.151000", "110655.440000", "110656.604000", "110657.856000", "110659.113000", "110700.357000", "110701.635000", "110702.892000", "110704.101000", "110705.342000", "110706.610000", "110707.834000", "110709.111000", "110710.364000", "110711.662000", "110712.859000", "110714.085000", "110715.344000", "110716.643000", "110717.854000", "110719.109000", "110720.366000", "110721.636000", "110722.899000", "110724.117000", "110725.381000", "110726.619000", "110727.862000", "110729.115000", "110730.374000", "110731.617000", "110732.880000", "110734.140000", "110735.368000", "110736.662000"],
      "InstanceCreationTime": ["110148.072000", "110149.125000", "110150.374000", "110151.685000", "110152.821000", "110154.096000", "110155.376000", "110156.648000", "110157.857000", "110159.105000", "110200.345000", "110201.617000", "110202.909000", "110204.107000", "110205.363000", "110206.598000", "110207.850000", "110209.115000", "110210.359000", "110211.587000", "110212.830000", "110214.088000", "110215.357000", "110216.611000", "110217.838000", "110219.132000", "110220.406000", "110221.612000", "110222.887000", "110224.103000", "110225.357000", "110226.606000", "110227.854000", "110229.123000", "110230.351000", "110231.601000", "110232.830000", "110234.093000", "110235.370000", "110236.649000", "110237.876000", "110239.115000", "110240.385000", "110241.613000", "110242.844000", "110244.079000", "110245.327000", "110246.603000", "110247.840000", "110249.088000", "110250.344000", "110251.597000", "110252.848000", "110254.114000", "110255.359000", "110256.591000", "110257.830000", "110259.101000", "110300.370000", "110301.612000", "110302.872000", "110304.087000", "110305.346000", "110306.602000", "110307.848000", "110309.096000", "110310.361000", "110311.588000", "110312.868000", "110314.081000", "110315.372000", "110316.591000", "110317.853000", "110319.106000", "110320.355000", "110321.629000", "110322.843000", "110324.095000", "110325.359000", "110326.611000", "110327.847000", "110329.094000", "110330.348000", "110331.601000", "110332.862000", "110334.098000", "110335.340000", "110336.600000", "110337.860000", "110339.142000", "110340.353000", "110341.575000", "110342.867000", "110344.107000", "110345.389000", "110346.603000", "110347.873000", "110349.075000", "110350.314000", "110351.603000", "110352.826000", "110354.124000", "110355.355000", "110356.609000", "110357.845000", "110359.117000", "110400.356000", "110401.618000", "110402.850000", "110404.117000", "110405.349000", "110406.614000", "110407.849000", "110409.101000", "110410.355000", "110411.645000", "110412.865000", "110414.135000", "110415.436000", "110416.644000", "110417.913000", "110419.101000", "110420.365000", "110421.608000", "110422.852000", "110424.122000", "110425.357000", "110426.605000", "110427.852000", "110429.122000", "110430.373000", "110431.612000", "110432.853000", "110434.127000", "110435.365000", "110436.635000", "110437.864000", "110439.110000", "110440.369000", "110441.719000", "110442.861000", "110444.092000", "110445.370000", "110446.654000", "110447.871000", "110449.103000", "110450.340000", "110451.604000", "110452.864000", "110454.119000", "110455.349000", "110456.610000", "110457.853000", "110459.099000", "110500.343000", "110501.606000", "110502.869000", "110504.115000", "110505.347000", "110506.617000", "110507.862000", "110509.124000", "110510.336000", "110511.603000", "110512.872000", "110514.104000", "110515.357000", "110516.621000", "110517.893000", "110519.133000", "110520.395000", "110521.611000", "110522.872000", "110524.126000", "110525.373000", "110526.613000", "110527.845000", "110529.119000", "110530.339000", "110531.596000", "110532.854000", "110534.115000", "110535.369000", "110536.609000", "110537.854000", "110539.064000", "110540.367000", "110541.609000", "110542.882000", "110544.090000", "110545.387000", "110546.625000", "110547.833000", "110549.119000", "110550.366000", "110551.630000", "110552.827000", "110554.108000", "110555.395000", "110556.665000", "110557.863000", "110559.128000", "110600.402000", "110601.615000", "110602.885000", "110604.090000", "110605.348000", "110606.617000", "110607.839000", "110609.128000", "110610.373000", "110611.611000", "110612.864000", "110614.110000", "110615.359000", "110616.618000", "110617.874000", "110619.095000", "110620.367000", "110621.605000", "110622.850000", "110624.104000", "110625.363000", "110626.609000", "110627.831000", "110629.085000", "110630.345000", "110631.605000", "110632.870000", "110634.098000", "110635.356000", "110636.597000", "110637.844000", "110639.130000", "110640.350000", "110641.625000", "110642.865000", "110644.116000", "110645.394000", "110646.617000", "110647.942000", "110649.091000", "110650.357000", "110651.588000", "110652.873000", "110654.151000", "110655.440000", "110656.604000", "110657.856000", "110659.113000", "110700.357000", "110701.635000", "110702.892000", "110704.101000", "110705.342000", "110706.610000", "110707.834000", "110709.111000", "110710.364000", "110711.662000", "110712.859000", "110714.085000", "110715.344000", "110716.643000", "110717.854000", "110719.109000", "110720.366000", "110721.636000", "110722.899000", "110724.117000", "110725.381000", "110726.619000", "110727.862000", "110729.115000", "110730.374000", "110731.617000", "110732.880000", "110734.140000", "110735.368000", "110736.662000"],
      "InstanceNumber": [1, 2, 3, 4, 5, 6, 7, 8, 9, 10, 11, 12, 13, 14, 15, 16, 17, 18, 19, 20, 21, 22, 23, 24, 25, 26, 27, 28, 29, 30, 31, 32, 33, 34, 35, 36, 37, 38, 39, 40, 41, 42, 43, 44, 45, 46, 47, 48, 49, 50, 51, 52, 53, 54, 55, 56, 57, 58, 59, 60, 61, 62, 63, 64, 65, 66, 67, 68, 69, 70, 71, 72, 73, 74, 75, 76, 77, 78, 79, 80, 81, 82, 83, 84, 85, 86, 87, 88, 89, 90, 91, 92, 93, 94, 95, 96, 97, 98, 99, 100, 101, 102, 103, 104, 105, 106, 107, 108, 109, 110, 111, 112, 113, 114, 115, 116, 117, 118, 119, 120, 121, 122, 123, 124, 125, 126, 127, 128, 129, 130, 131, 132, 133, 134, 135, 136, 137, 138, 139, 140, 141, 142, 143, 144, 145, 146, 147, 148, 149, 150, 151, 152, 153, 154, 155, 156, 157, 158, 159, 160, 161, 162, 163, 164, 165, 166, 167, 168, 169, 170, 171, 172, 173, 174, 175, 176, 177, 178, 179, 180, 181, 182, 183, 184, 185, 186, 187, 188, 189, 190, 191, 192, 193, 194, 195, 196, 197, 198, 199, 200, 201, 202, 203, 204, 205, 206, 207, 208, 209, 210, 211, 212, 213, 214, 215, 216, 217, 218, 219, 220, 221, 222, 223, 224, 225, 226, 227, 228, 229, 230, 231, 232, 233, 234, 235, 236, 237, 238, 239, 240, 241, 242, 243, 244, 245, 246, 247, 248, 249, 250, 251, 252, 253, 254, 255, 256, 257, 258, 259, 260, 261, 262, 263, 264, 265, 266, 267, 268, 269, 270, 271, 272, 273, 274, 275, 276, 277, 278, 279, 280],
      "LargestImagePixelValue": [1029, 1136, 1137, 927, 1135, 1067, 1007, 1103, 1068, 945, 1084, 1149, 1049, 1152, 1062, 1076, 926, 1068, 1006, 869, 1058, 926, 952, 1127, 889, 1079, 907, 1100, 1119, 934, 1114, 970, 1108, 916, 1158, 943, 1141, 914, 1117, 944, 1154, 937, 1109, 930, 1126, 1059, 1057, 1077, 1032, 1093, 1012, 1103, 903, 1069, 927, 927, 1061, 946, 1110, 1076, 1040, 1104, 1003, 1100, 955, 1114, 934, 1109, 925, 1121, 1148, 1119, 1160, 877, 1099, 864, 1065, 926, 1105, 1103, 1042, 1151, 1015, 1016, 1022, 1123, 1039, 1079, 1031, 1033, 1013, 971, 1053, 1008, 1059, 1050, 1053, 1057, 994, 1001, 1060, 1001, 1068, 957, 1072, 932, 1067, 921, 1083, 897, 1096, 904, 1077, 914, 1113, 987, 1109, 1051, 1145, 1005, 1146, 911, 1101, 877, 1055, 889, 1055, 984, 1052, 1076, 968, 1071, 909, 1082, 871, 1099, 864, 1045, 839, 1051, 959, 1101, 1177, 1018, 1105, 1069, 981, 1169, 958, 1169, 1072, 999, 1125, 1003, 1097, 941, 1060, 1012, 1014, 935, 1033, 924, 1083, 1038, 1041, 1003, 1052, 888, 1126, 925, 1166, 1128, 982, 1167, 959, 1185, 917, 1199, 893, 1183, 902, 1028, 1061, 906, 1184, 987, 1241, 1073, 1222, 950, 1111, 1051, 945, 1131, 1003, 1159, 1005, 1167, 935, 1192, 908, 1229, 945, 1196, 1089, 975, 1145, 934, 1237, 913, 1227, 975, 1263, 1071, 1114, 1057, 1192, 910, 1174, 925, 1135, 968, 1059, 952, 1075, 938, 1029, 905, 1048, 875, 1084, 884, 1129, 942, 1088, 1002, 1036, 1097, 1010, 1095, 944, 1165, 909, 1148, 888, 1106, 961, 1130, 955, 1136, 1104, 1079, 1008, 1072, 967, 1106, 934, 1247, 1115, 1210, 1166, 1068, 1099, 867, 1078, 853, 1038, 979, 902, 1022, 933, 998, 1084, 892, 1210, 1014, 1183, 1066, 975, 1061],
      "WindowCenter": [401.0, 400.0, 400.0, 399.0, 402.0, 400.0, 401.0, 401.0, 401.0, 399.0, 400.0, 400.0, 398.0, 396.0, 395.0, 395.0, 394.0, 395.0, 396.0, 395.0, 399.0, 396.0, 398.0, 400.0, 398.0, 400.0, 398.0, 400.0, 401.0, 399.0, 401.0, 399.0, 400.0, 397.0, 400.0, 398.0, 400.0, 398.0, 400.0, 399.0, 401.0, 399.0, 400.0, 399.0, 401.0, 401.0, 400.0, 400.0, 400.0, 400.0, 399.0, 400.0, 397.0, 400.0, 398.0, 399.0, 401.0, 399.0, 401.0, 400.0, 399.0, 400.0, 398.0, 400.0, 398.0, 400.0, 398.0, 400.0, 398.0, 400.0, 399.0, 400.0, 399.0, 397.0, 399.0, 397.0, 400.0, 399.0, 401.0, 400.0, 400.0, 401.0, 400.0, 400.0, 400.0, 401.0, 399.0, 400.0, 399.0, 400.0, 399.0, 399.0, 400.0, 398.0, 399.0, 399.0, 399.0, 399.0, 398.0, 399.0, 400.0, 399.0, 400.0, 399.0, 400.0, 398.0, 400.0, 398.0, 400.0, 398.0, 400.0, 398.0, 400.0, 398.0, 400.0, 399.0, 399.0, 399.0, 399.0, 398.0, 399.0, 396.0, 398.0, 397.0, 399.0, 397.0, 399.0, 399.0, 399.0, 400.0, 399.0, 400.0, 399.0, 400.0, 398.0, 400.0, 398.0, 400.0, 398.0, 401.0, 401.0, 401.0, 401.0, 400.0, 401.0, 400.0, 399.0, 400.0, 398.0, 399.0, 398.0, 398.0, 399.0, 397.0, 398.0, 397.0, 398.0, 397.0, 398.0, 399.0, 400.0, 399.0, 400.0, 400.0, 399.0, 399.0, 400.0, 399.0, 401.0, 400.0, 402.0, 401.0, 399.0, 400.0, 398.0, 400.0, 398.0, 400.0, 397.0, 400.0, 397.0, 399.0, 400.0, 399.0, 402.0, 399.0, 401.0, 398.0, 399.0, 396.0, 399.0, 400.0, 399.0, 400.0, 398.0, 399.0, 398.0, 399.0, 398.0, 401.0, 398.0, 401.0, 399.0, 400.0, 400.0, 399.0, 400.0, 398.0, 401.0, 397.0, 400.0, 398.0, 401.0, 400.0, 400.0, 400.0, 401.0, 397.0, 399.0, 396.0, 398.0, 397.0, 398.0, 398.0, 399.0, 397.0, 398.0, 397.0, 400.0, 398.0, 400.0, 398.0, 400.0, 399.0, 400.0, 399.0, 400.0, 401.0, 401.0, 402.0, 400.0, 402.0, 398.0, 401.0, 398.0, 401.0, 399.0, 402.0, 399.0, 401.0, 400.0, 400.0, 399.0, 400.0, 398.0, 400.0, 398.0, 400.0, 398.0, 398.0, 397.0, 396.0, 396.0, 395.0, 398.0, 396.0, 399.0, 399.0, 398.0, 400.0, 399.0, 399.0, 400.0, 398.0, 401.0, 399.0, 401.0, 399.0, 399.0, 400.0],
      "WindowWidth": [849.0, 847.0, 847.0, 845.0, 849.0, 848.0, 848.0, 849.0, 849.0, 846.0, 848.0, 847.0, 843.0, 839.0, 837.0, 837.0, 836.0, 838.0, 840.0, 839.0, 844.0, 841.0, 843.0, 847.0, 843.0, 847.0, 844.0, 847.0, 848.0, 845.0, 848.0, 846.0, 846.0, 843.0, 846.0, 843.0, 846.0, 844.0, 847.0, 846.0, 849.0, 846.0, 847.0, 846.0, 848.0, 849.0, 848.0, 847.0, 847.0, 846.0, 845.0, 846.0, 843.0, 846.0, 844.0, 845.0, 849.0, 846.0, 849.0, 847.0, 845.0, 846.0, 844.0, 846.0, 844.0, 846.0, 844.0, 846.0, 844.0, 846.0, 846.0, 845.0, 845.0, 841.0, 846.0, 843.0, 847.0, 845.0, 849.0, 847.0, 846.0, 848.0, 847.0, 848.0, 848.0, 849.0, 846.0, 847.0, 845.0, 846.0, 845.0, 846.0, 847.0, 844.0, 845.0, 845.0, 844.0, 845.0, 844.0, 845.0, 846.0, 846.0, 846.0, 845.0, 846.0, 844.0, 846.0, 843.0, 846.0, 844.0, 847.0, 844.0, 846.0, 844.0, 847.0, 846.0, 846.0, 845.0, 845.0, 843.0, 844.0, 840.0, 843.0, 842.0, 845.0, 843.0, 846.0, 845.0, 845.0, 846.0, 845.0, 847.0, 845.0, 847.0, 844.0, 847.0, 843.0, 846.0, 845.0, 849.0, 849.0, 850.0, 849.0, 847.0, 848.0, 847.0, 845.0, 846.0, 843.0, 844.0, 844.0, 843.0, 845.0, 842.0, 843.0, 841.0, 844.0, 842.0, 844.0, 845.0, 846.0, 845.0, 848.0, 847.0, 845.0, 846.0, 846.0, 845.0, 850.0, 847.0, 850.0, 848.0, 845.0, 847.0, 843.0, 847.0, 844.0, 846.0, 842.0, 846.0, 842.0, 845.0, 847.0, 845.0, 849.0, 846.0, 848.0, 844.0, 844.0, 840.0, 844.0, 846.0, 845.0, 847.0, 844.0, 845.0, 844.0, 846.0, 844.0, 848.0, 844.0, 848.0, 845.0, 846.0, 846.0, 845.0, 847.0, 844.0, 847.0, 842.0, 846.0, 844.0, 847.0, 846.0, 847.0, 847.0, 847.0, 842.0, 844.0, 840.0, 842.0, 842.0, 843.0, 843.0, 845.0, 843.0, 844.0, 843.0, 846.0, 844.0, 847.0, 844.0, 847.0, 845.0, 847.0, 846.0, 847.0, 849.0, 848.0, 850.0, 847.0, 850.0, 845.0, 848.0, 845.0, 848.0, 846.0, 849.0, 846.0, 848.0, 848.0, 846.0, 845.0, 847.0, 844.0, 847.0, 844.0, 846.0, 842.0, 843.0, 842.0, 840.0, 839.0, 838.0, 842.0, 840.0, 845.0, 845.0, 844.0, 847.0, 845.0, 846.0, 847.0, 844.0, 849.0, 846.0, 848.0, 846.0, 845.0, 846.0]
    },
    "slices": {}
  }
}