{
  "AcquisitionMatrixPE": 96,
  "AcquisitionNumber": 1,
  "AcquisitionTime": "14:17:54.450000",
  "BandwidthPerPixelPhaseEncode": 18.939,
  "BaseResolution": 96,
  "BodyPartExamined": "BRAIN",
  "ConsistencyInfo": "N4_VE11C_LATEST_20160120",
  "ConversionSoftware": "dcm2niix",
  "ConversionSoftwareVersion": "v1.0.20170923 (OpenJPEG build) GCC6.3.0",
  "DerivedVendorReportedEchoSpacing": 0.000550011,
  "DeviceSerialNumber": "66112",
  "DwellTime": 2.3e-06,
  "EchoTime": 0.033,
  "EchoTrainLength": 96,
  "EffectiveEchoSpacing": 0.000550011,
  "FlipAngle": 64,
  "ImageType": [
    "ORIGINAL",
    "PRIMARY",
    "FMRI",
    "NONE",
    "ND",
    "NORM",
    "MOSAIC"
],
  "InstitutionAddress": "Maynard_3_Hanover_NH_US_03755",
  "InstitutionName": "Dartmouth_College_-_PBS",
  "MagneticFieldStrength": 3,
  "Manufacturer": "Siemens",
  "ManufacturersModelName": "Prisma",
  "Modality": "MR",
  "MultibandAccelerationFactor": 4,
  "PartialFourier": 1,
  "PercentPhaseFOV": 100,
  "PhaseEncodingDirection": "j-",
  "PhaseEncodingSteps": 96,
  "PhaseResolution": 1,
  "ProcedureStepDescription": "Gobbini_Matteo_1017_famface-angles",
  "ProtocolName": "func_run-11_task-fam1back",
  "PulseSequenceDetails": "%SiemensSeq%_ep2d_bold",
  "ReceiveCoilActiveElements": "HEA;HEP",
  "ReceiveCoilName": "Head_32",
  "ReconMatrixPE": 96,
  "RepetitionTime": 1.25,
  "ScanOptions": "FS",
  "ScanningSequence": "EP",
  "SequenceName": "_epfid2d1_96",
  "SequenceVariant": "SK",
  "SeriesDescription": "func_run-11_task-fam1back",
  "SliceTiming": [0.8775, 0, 0.615, 0.0875, 0.7025, 0.175, 0.79, 0.3525, 0.9675, 0.44, 1.055, 0.5275, 1.1425, 0.2625, 0.8775, 0, 0.615, 0.0875, 0.7025, 0.175, 0.79, 0.3525, 0.9675, 0.44, 1.055, 0.5275, 1.1425, 0.2625, 0.8775, 0, 0.615, 0.0875, 0.7025, 0.175, 0.79, 0.3525, 0.9675, 0.44, 1.055, 0.5275, 1.1425, 0.2625, 0.8775, 0, 0.615, 0.0875, 0.7025, 0.175, 0.79, 0.3525, 0.9675, 0.44, 1.055, 0.5275, 1.1425, 0.2625],
  "SoftwareVersions": "syngo_MR_E11",
  "StationName": "AWP66112",
  "TaskName": "fam1back",
  "TotalReadoutTime": 0.0522511,
  "dcmmeta_affine": [
    [-2.5, 0.0, 6.0574999877216484e-12, 120.0],
    [0.0, 2.5, 7.859999977266607e-12, -102.13999938964844],
    [6.0574999877216484e-12, -7.859999977266607e-12, 2.5, -84.75],
    [0.0, 0.0, 0.0, 1.0]
],
  "dcmmeta_reorient_transform": [
    [0.0, -1.0, 0.0, 95.0],
    [1.0, 0.0, 0.0, 0.0],
    [0.0, 0.0, 1.0, 0.0],
    [0.0, 0.0, 0.0, 1.0]
],
  "dcmmeta_shape": [96, 96, 56, 280],
  "dcmmeta_slice_dim": 2,
  "dcmmeta_version": 0.6,
  "global": {
    "const": {
      "AccessionNumber": "A000642",
      "AcquisitionMatrix": [96, 0, 0, 96],
      "AngioFlag": "N",
      "BitsAllocated": 16,
      "BitsStored": 12,
      "BodyPartExamined": "BRAIN",
      "Columns": 768,
      "EchoNumbers": 1,
      "EchoTime": 33.0,
      "EchoTrainLength": 96,
      "FlipAngle": 64.0,
      "HighBit": 11,
      "ImageOrientationPatient": [1.0, 0.0, 2.423e-12, 0.0, 1.0, 3.144e-12],
      "ImagePositionPatient": [-959.99999999983, -975.36000061035, -84.750000005344],
      "ImageType": [
        "ORIGINAL",
        "PRIMARY",
        "FMRI",
        "NONE",
        "ND",
        "NORM",
        "MOSAIC"
],
      "ImagedNucleus": "1H",
      "ImagingFrequency": 123.252327,
      "InPlanePhaseEncodingDirection": "COL",
      "MRAcquisitionType": "2D",
      "MagneticFieldStrength": 3.0,
      "Manufacturer": "SIEMENS",
      "ManufacturerModelName": "Prisma",
      "Modality": "MR",
      "NumberOfAverages": 1.0,
      "NumberOfPhaseEncodingSteps": 96,
      "PercentPhaseFieldOfView": 100.0,
      "PercentSampling": 100.0,
      "PerformedProcedureStepStartTime": "125927.241000",
      "PhotometricInterpretation": "MONOCHROME2",
      "PixelBandwidth": 2265.0,
      "PixelRepresentation": 0,
      "PixelSpacing": [2.5, 2.5],
      "PositionReferenceIndicator": "",
      "ProtocolName": "func_run-11_task-fam1back",
      "RepetitionTime": 1250.0,
      "Rows": 768,
      "SAR": 0.06428351136128,
      "SamplesPerPixel": 1,
      "ScanOptions": "FS",
      "ScanningSequence": "EP",
      "SequenceName": "*epfid2d1_96",
      "SequenceVariant": "SK",
      "SeriesDescription": "func_run-11_task-fam1back",
      "SeriesNumber": 78,
      "SeriesTime": "141756.419000",
      "SliceLocation": -84.749999999952,
      "SliceThickness": 2.5,
      "SmallestImagePixelValue": 0,
      "SoftwareVersions": "syngo MR E11",
      "SpacingBetweenSlices": 2.5,
      "SpecificCharacterSet": "ISO_IR 100",
      "StudyID": "2",
      "StudyTime": "125927.189000",
      "TransmitCoilName": "Body",
      "VariableFlipAngleFlag": "N",
      "WindowCenterWidthExplanation": "Algo1",
      "dBdt": 0.0},
    "slices": {}
  },
  "time": {
    "samples": {
      "AcquisitionNumber": [1, 2, 3, 4, 5, 6, 7, 8, 9, 10, 11, 12, 13, 14, 15, 16, 17, 18, 19, 20, 21, 22, 23, 24, 25, 26, 27, 28, 29, 30, 31, 32, 33, 34, 35, 36, 37, 38, 39, 40, 41, 42, 43, 44, 45, 46, 47, 48, 49, 50, 51, 52, 53, 54, 55, 56, 57, 58, 59, 60, 61, 62, 63, 64, 65, 66, 67, 68, 69, 70, 71, 72, 73, 74, 75, 76, 77, 78, 79, 80, 81, 82, 83, 84, 85, 86, 87, 88, 89, 90, 91, 92, 93, 94, 95, 96, 97, 98, 99, 100, 101, 102, 103, 104, 105, 106, 107, 108, 109, 110, 111, 112, 113, 114, 115, 116, 117, 118, 119, 120, 121, 122, 123, 124, 125, 126, 127, 128, 129, 130, 131, 132, 133, 134, 135, 136, 137, 138, 139, 140, 141, 142, 143, 144, 145, 146, 147, 148, 149, 150, 151, 152, 153, 154, 155, 156, 157, 158, 159, 160, 161, 162, 163, 164, 165, 166, 167, 168, 169, 170, 171, 172, 173, 174, 175, 176, 177, 178, 179, 180, 181, 182, 183, 184, 185, 186, 187, 188, 189, 190, 191, 192, 193, 194, 195, 196, 197, 198, 199, 200, 201, 202, 203, 204, 205, 206, 207, 208, 209, 210, 211, 212, 213, 214, 215, 216, 217, 218, 219, 220, 221, 222, 223, 224, 225, 226, 227, 228, 229, 230, 231, 232, 233, 234, 235, 236, 237, 238, 239, 240, 241, 242, 243, 244, 245, 246, 247, 248, 249, 250, 251, 252, 253, 254, 255, 256, 257, 258, 259, 260, 261, 262, 263, 264, 265, 266, 267, 268, 269, 270, 271, 272, 273, 274, 275, 276, 277, 278, 279, 280],
      "AcquisitionTime": ["141754.450000", "141755.700000", "141756.950000", "141758.200000", "141759.450000", "141800.700000", "141801.950000", "141803.200000", "141804.450000", "141805.700000", "141806.950000", "141808.200000", "141809.450000", "141810.700000", "141811.950000", "141813.200000", "141814.450000", "141815.700000", "141816.950000", "141818.200000", "141819.450000", "141820.700000", "141821.950000", "141823.200000", "141824.450000", "141825.700000", "141826.950000", "141828.200000", "141829.450000", "141830.700000", "141831.950000", "141833.200000", "141834.450000", "141835.700000", "141836.950000", "141838.200000", "141839.450000", "141840.700000", "141841.950000", "141843.200000", "141844.450000", "141845.700000", "141846.950000", "141848.200000", "141849.450000", "141850.700000", "141851.950000", "141853.200000", "141854.450000", "141855.700000", "141856.950000", "141858.200000", "141859.450000", "141900.700000", "141901.950000", "141903.200000", "141904.450000", "141905.700000", "141906.950000", "141908.200000", "141909.450000", "141910.700000", "141911.950000", "141913.200000", "141914.450000", "141915.700000", "141916.950000", "141918.200000", "141919.450000", "141920.700000", "141921.950000", "141923.200000", "141924.450000", "141925.700000", "141926.950000", "141928.200000", "141929.450000", "141930.700000", "141931.950000", "141933.200000", "141934.450000", "141935.700000", "141936.950000", "141938.200000", "141939.450000", "141940.700000", "141941.950000", "141943.200000", "141944.450000", "141945.700000", "141946.950000", "141948.200000", "141949.450000", "141950.700000", "141951.950000", "141953.200000", "141954.450000", "141955.700000", "141956.950000", "141958.200000", "141959.450000", "142000.700000", "142001.950000", "142003.200000", "142004.450000", "142005.700000", "142006.950000", "142008.200000", "142009.450000", "142010.700000", "142011.950000", "142013.200000", "142014.450000", "142015.700000", "142016.950000", "142018.200000", "142019.450000", "142020.700000", "142021.950000", "142023.200000", "142024.450000", "142025.700000", "142026.950000", "142028.200000", "142029.450000", "142030.700000", "142031.950000", "142033.200000", "142034.450000", "142035.700000", "142036.950000", "142038.200000", "142039.450000", "142040.700000", "142041.950000", "142043.200000", "142044.450000", "142045.700000", "142046.950000", "142048.200000", "142049.450000", "142050.700000", "142051.950000", "142053.200000", "142054.450000", "142055.700000", "142056.950000", "142058.200000", "142059.450000", "142100.700000", "142101.950000", "142103.200000", "142104.450000", "142105.700000", "142106.950000", "142108.200000", "142109.450000", "142110.700000", "142111.950000", "142113.200000", "142114.450000", "142115.700000", "142116.950000", "142118.200000", "142119.450000", "142120.700000", "142121.950000", "142123.200000", "142124.450000", "142125.700000", "142126.950000", "142128.200000", "142129.450000", "142130.700000", "142131.950000", "142133.200000", "142134.450000", "142135.700000", "142136.950000", "142138.200000", "142139.450000", "142140.700000", "142141.950000", "142143.200000", "142144.450000", "142145.700000", "142146.950000", "142148.200000", "142149.450000", "142150.700000", "142151.950000", "142153.200000", "142154.450000", "142155.700000", "142156.950000", "142158.200000", "142159.450000", "142200.700000", "142201.950000", "142203.200000", "142204.450000", "142205.700000", "142206.950000", "142208.200000", "142209.450000", "142210.700000", "142211.950000", "142213.200000", "142214.450000", "142215.700000", "142216.950000", "142218.200000", "142219.450000", "142220.700000", "142221.950000", "142223.200000", "142224.450000", "142225.700000", "142226.950000", "142228.200000", "142229.450000", "142230.700000", "142231.950000", "142233.200000", "142234.450000", "142235.700000", "142236.950000", "142238.200000", "142239.450000", "142240.700000", "142241.950000", "142243.200000", "142244.450000", "142245.700000", "142246.950000", "142248.200000", "142249.450000", "142250.700000", "142251.950000", "142253.200000", "142254.450000", "142255.700000", "142256.950000", "142258.200000", "142259.450000", "142300.700000", "142301.950000", "142303.200000", "142304.450000", "142305.700000", "142306.950000", "142308.200000", "142309.450000", "142310.700000", "142311.950000", "142313.200000", "142314.450000", "142315.700000", "142316.950000", "142318.200000", "142319.450000", "142320.700000", "142321.950000", "142323.200000", "142324.450000", "142325.700000", "142326.950000", "142328.200000", "142329.450000", "142330.700000", "142331.950000", "142333.200000", "142334.450000", "142335.700000", "142336.950000", "142338.200000", "142339.450000", "142340.700000", "142341.950000", "142343.200000"],
      "ContentTime": ["141756.423000", "141757.441000", "141758.667000", "141759.938000", "141801.200000", "141802.454000", "141803.659000", "141804.916000", "141806.211000", "141807.403000", "141808.656000", "141809.887000", "141811.186000", "141812.454000", "141813.649000", "141814.925000", "141816.192000", "141817.434000", "141818.654000", "141819.948000", "141821.167000", "141822.466000", "141823.703000", "141824.939000", "141826.179000", "141827.398000", "141828.699000", "141829.947000", "141831.174000", "141832.420000", "141833.679000", "141834.930000", "141836.200000", "141837.441000", "141838.650000", "141839.906000", "141841.151000", "141842.427000", "141843.692000", "141844.918000", "141846.190000", "141847.414000", "141848.704000", "141849.925000", "141851.164000", "141852.407000", "141853.686000", "141854.932000", "141856.203000", "141857.454000", "141858.680000", "141859.946000", "141901.174000", "141902.426000", "141903.683000", "141904.915000", "141906.163000", "141907.429000", "141908.691000", "141909.947000", "141911.158000", "141912.403000", "141913.708000", "141914.939000", "141916.158000", "141917.403000", "141918.677000", "141919.920000", "141921.171000", "141922.441000", "141923.660000", "141924.912000", "141926.170000", "141927.425000", "141928.657000", "141929.907000", "141931.187000", "141932.432000", "141933.660000", "141934.881000", "141936.212000", "141937.422000", "141938.658000", "141939.915000", "141941.169000", "141942.475000", "141943.676000", "141944.907000", "141946.187000", "141947.447000", "141948.703000", "141949.943000", "141951.162000", "141952.397000", "141953.668000", "141954.892000", "141956.173000", "141957.392000", "141958.675000", "141959.912000", "142001.184000", "142002.427000", "142003.697000", "142004.958000", "142006.189000", "142007.421000", "142008.677000", "142009.918000", "142011.122000", "142012.440000", "142013.671000", "142014.988000", "142016.187000", "142017.414000", "142018.704000", "142019.969000", "142021.167000", "142022.440000", "142023.697000", "142024.922000", "142026.221000", "142027.422000", "142028.659000", "142029.936000", "142031.191000", "142032.427000", "142033.671000", "142034.947000", "142036.129000", "142037.480000", "142038.682000", "142039.929000", "142041.199000", "142042.438000", "142043.687000", "142044.953000", "142046.178000", "142047.446000", "142048.695000", "142049.926000", "142051.209000", "142052.435000", "142053.693000", "142054.969000", "142056.266000", "142057.441000", "142058.655000", "142059.938000", "142101.147000", "142102.463000", "142103.657000", "142104.939000", "142106.186000", "142107.513000", "142108.700000", "142109.993000", "142111.189000", "142112.436000", "142113.674000", "142114.932000", "142116.158000", "142117.429000", "142118.637000", "142119.921000", "142121.183000", "142122.433000", "142123.647000", "142124.915000", "142126.195000", "142127.433000", "142128.711000", "142129.923000", "142131.191000", "142132.429000", "142133.681000", "142134.930000", "142136.212000", "142137.411000", "142138.689000", "142139.940000", "142141.159000", "142142.430000", "142143.678000", "142144.954000", "142146.251000", "142147.417000", "142148.700000", "142149.923000", "142151.167000", "142152.471000", "142153.696000", "142154.912000", "142156.162000", "142157.443000", "142158.673000", "142159.915000", "142201.195000", "142202.445000", "142203.677000", "142204.953000", "142206.226000", "142207.460000", "142208.688000", "142209.930000", "142211.195000", "142212.427000", "142213.700000", "142214.913000", "142216.203000", "142217.474000", "142218.683000", "142219.922000", "142221.161000", "142222.488000", "142223.699000", "142224.922000", "142226.204000", "142227.417000", "142228.678000", "142229.914000", "142231.190000", "142232.417000", "142233.688000", "142234.927000", "142236.145000", "142237.432000", "142238.689000", "142239.944000", "142241.157000", "142242.430000", "142243.685000", "142244.927000", "142246.186000", "142247.424000", "142248.649000", "142249.908000", "142251.139000", "142252.424000", "142253.681000", "142254.917000", "142256.181000", "142257.437000", "142258.657000", "142259.946000", "142301.185000", "142302.436000", "142303.623000", "142304.925000", "142306.163000", "142307.454000", "142308.700000", "142309.972000", "142311.173000", "142312.444000", "142313.668000", "142314.957000", "142316.220000", "142317.432000", "142318.707000", "142319.932000", "142321.204000", "142322.406000", "142323.692000", "142324.958000", "142326.165000", "142327.450000", "142328.674000", "142329.923000", "142331.142000", "142332.391000", "142333.669000", "142334.877000", "142336.222000", "142337.439000", "142338.654000", "142339.922000", "142341.198000", "142342.428000", "142343.681000", "142344.960000"],
      "InstanceCreationTime": ["141756.423000", "141757.441000", "141758.667000", "141759.938000", "141801.200000", "141802.454000", "141803.659000", "141804.916000", "141806.211000", "141807.403000", "141808.656000", "141809.887000", "141811.186000", "141812.454000", "141813.649000", "141814.925000", "141816.192000", "141817.434000", "141818.654000", "141819.948000", "141821.167000", "141822.466000", "141823.703000", "141824.939000", "141826.179000", "141827.398000", "141828.699000", "141829.947000", "141831.174000", "141832.420000", "141833.679000", "141834.930000", "141836.200000", "141837.441000", "141838.650000", "141839.906000", "141841.151000", "141842.427000", "141843.692000", "141844.918000", "141846.190000", "141847.414000", "141848.704000", "141849.925000", "141851.164000", "141852.407000", "141853.686000", "141854.932000", "141856.203000", "141857.454000", "141858.680000", "141859.946000", "141901.174000", "141902.426000", "141903.683000", "141904.915000", "141906.163000", "141907.429000", "141908.691000", "141909.947000", "141911.158000", "141912.403000", "141913.708000", "141914.939000", "141916.158000", "141917.403000", "141918.677000", "141919.920000", "141921.171000", "141922.441000", "141923.660000", "141924.912000", "141926.170000", "141927.425000", "141928.657000", "141929.907000", "141931.187000", "141932.432000", "141933.660000", "141934.881000", "141936.212000", "141937.422000", "141938.658000", "141939.915000", "141941.169000", "141942.475000", "141943.676000", "141944.907000", "141946.187000", "141947.447000", "141948.703000", "141949.943000", "141951.162000", "141952.397000", "141953.668000", "141954.892000", "141956.173000", "141957.392000", "141958.675000", "141959.912000", "142001.184000", "142002.427000", "142003.697000", "142004.958000", "142006.189000", "142007.421000", "142008.677000", "142009.918000", "142011.122000", "142012.440000", "142013.671000", "142014.988000", "142016.187000", "142017.414000", "142018.704000", "142019.969000", "142021.167000", "142022.440000", "142023.697000", "142024.922000", "142026.221000", "142027.422000", "142028.659000", "142029.936000", "142031.191000", "142032.427000", "142033.671000", "142034.947000", "142036.129000", "142037.480000", "142038.682000", "142039.929000", "142041.199000", "142042.438000", "142043.687000", "142044.953000", "142046.178000", "142047.446000", "142048.695000", "142049.926000", "142051.209000", "142052.435000", "142053.693000", "142054.969000", "142056.266000", "142057.441000", "142058.655000", "142059.938000", "142101.147000", "142102.463000", "142103.657000", "142104.939000", "142106.186000", "142107.513000", "142108.700000", "142109.993000", "142111.189000", "142112.436000", "142113.674000", "142114.932000", "142116.158000", "142117.429000", "142118.637000", "142119.921000", "142121.183000", "142122.433000", "142123.647000", "142124.915000", "142126.195000", "142127.433000", "142128.711000", "142129.923000", "142131.191000", "142132.429000", "142133.681000", "142134.930000", "142136.212000", "142137.411000", "142138.689000", "142139.940000", "142141.159000", "142142.430000", "142143.678000", "142144.954000", "142146.251000", "142147.417000", "142148.700000", "142149.923000", "142151.167000", "142152.471000", "142153.696000", "142154.912000", "142156.162000", "142157.443000", "142158.673000", "142159.915000", "142201.195000", "142202.445000", "142203.677000", "142204.953000", "142206.226000", "142207.460000", "142208.688000", "142209.930000", "142211.195000", "142212.427000", "142213.700000", "142214.913000", "142216.203000", "142217.474000", "142218.683000", "142219.922000", "142221.161000", "142222.488000", "142223.699000", "142224.922000", "142226.204000", "142227.417000", "142228.678000", "142229.914000", "142231.190000", "142232.417000", "142233.688000", "142234.927000", "142236.145000", "142237.432000", "142238.689000", "142239.944000", "142241.157000", "142242.430000", "142243.685000", "142244.927000", "142246.186000", "142247.424000", "142248.649000", "142249.908000", "142251.139000", "142252.424000", "142253.681000", "142254.917000", "142256.181000", "142257.437000", "142258.657000", "142259.946000", "142301.185000", "142302.436000", "142303.623000", "142304.925000", "142306.163000", "142307.454000", "142308.700000", "142309.972000", "142311.173000", "142312.444000", "142313.668000", "142314.957000", "142316.220000", "142317.432000", "142318.707000", "142319.932000", "142321.204000", "142322.406000", "142323.692000", "142324.958000", "142326.165000", "142327.450000", "142328.674000", "142329.923000", "142331.142000", "142332.391000", "142333.669000", "142334.877000", "142336.222000", "142337.439000", "142338.654000", "142339.922000", "142341.198000", "142342.428000", "142343.681000", "142344.960000"],
      "InstanceNumber": [1, 2, 3, 4, 5, 6, 7, 8, 9, 10, 11, 12, 13, 14, 15, 16, 17, 18, 19, 20, 21, 22, 23, 24, 25, 26, 27, 28, 29, 30, 31, 32, 33, 34, 35, 36, 37, 38, 39, 40, 41, 42, 43, 44, 45, 46, 47, 48, 49, 50, 51, 52, 53, 54, 55, 56, 57, 58, 59, 60, 61, 62, 63, 64, 65, 66, 67, 68, 69, 70, 71, 72, 73, 74, 75, 76, 77, 78, 79, 80, 81, 82, 83, 84, 85, 86, 87, 88, 89, 90, 91, 92, 93, 94, 95, 96, 97, 98, 99, 100, 101, 102, 103, 104, 105, 106, 107, 108, 109, 110, 111, 112, 113, 114, 115, 116, 117, 118, 119, 120, 121, 122, 123, 124, 125, 126, 127, 128, 129, 130, 131, 132, 133, 134, 135, 136, 137, 138, 139, 140, 141, 142, 143, 144, 145, 146, 147, 148, 149, 150, 151, 152, 153, 154, 155, 156, 157, 158, 159, 160, 161, 162, 163, 164, 165, 166, 167, 168, 169, 170, 171, 172, 173, 174, 175, 176, 177, 178, 179, 180, 181, 182, 183, 184, 185, 186, 187, 188, 189, 190, 191, 192, 193, 194, 195, 196, 197, 198, 199, 200, 201, 202, 203, 204, 205, 206, 207, 208, 209, 210, 211, 212, 213, 214, 215, 216, 217, 218, 219, 220, 221, 222, 223, 224, 225, 226, 227, 228, 229, 230, 231, 232, 233, 234, 235, 236, 237, 238, 239, 240, 241, 242, 243, 244, 245, 246, 247, 248, 249, 250, 251, 252, 253, 254, 255, 256, 257, 258, 259, 260, 261, 262, 263, 264, 265, 266, 267, 268, 269, 270, 271, 272, 273, 274, 275, 276, 277, 278, 279, 280],
      "LargestImagePixelValue": [882, 931, 766, 782, 802, 746, 821, 1085, 1001, 864, 757, 748, 647, 711, 936, 789, 708, 724, 1019, 839, 750, 753, 699, 750, 964, 750, 772, 683, 1054, 817, 728, 709, 988, 869, 728, 693, 902, 762, 723, 735, 712, 785, 716, 717, 716, 992, 753, 1114, 862, 801, 734, 747, 713, 705, 906, 761, 695, 721, 698, 688, 1078, 807, 709, 733, 728, 746, 717, 711, 686, 932, 673, 1020, 804, 900, 786, 696, 721, 709, 710, 714, 896, 731, 717, 727, 717, 703, 736, 675, 925, 980, 794, 705, 722, 717, 672, 1005, 786, 755, 700, 922, 808, 711, 737, 719, 692, 692, 695, 870, 836, 770, 743, 691, 707, 906, 858, 1092, 854, 868, 770, 736, 701, 704, 686, 675, 731, 706, 755, 707, 704, 739, 857, 821, 773, 722, 710, 704, 680, 1013, 806, 771, 663, 1057, 865, 766, 714, 714, 837, 705, 726, 741, 677, 1035, 812, 726, 708, 828, 692, 752, 672, 790, 745, 1078, 814, 708, 723, 694, 711, 722, 718, 742, 705, 710, 660, 676, 994, 749, 940, 778, 738, 743, 703, 713, 716, 700, 670, 652, 878, 1020, 810, 745, 786, 831, 749, 793, 699, 694, 685, 682, 887, 830, 863, 1009, 1107, 887, 990, 670, 702, 709, 670, 899, 755, 757, 672, 1011, 911, 809, 796, 770, 734, 927, 801, 766, 694, 726, 668, 891, 780, 783, 809, 720, 701, 884, 837, 959, 765, 711, 670, 851, 871, 748, 723, 699, 721, 980, 823, 694, 722, 760, 974, 805, 693, 697, 831, 870, 866, 770, 789, 692, 834, 748, 1012, 799, 708, 740, 863, 854, 823, 739, 715, 778, 678, 689, 682, 679, 694, 963, 1025, 994, 888, 968],
      "WindowCenter": [333.0, 332.0, 330.0, 330.0, 331.0, 330.0, 331.0, 333.0, 332.0, 330.0, 329.0, 329.0, 327.0, 329.0, 332.0, 331.0, 329.0, 329.0, 333.0, 331.0, 330.0, 330.0, 330.0, 331.0, 334.0, 331.0, 331.0, 329.0, 333.0, 331.0, 329.0, 329.0, 332.0, 331.0, 329.0, 329.0, 332.0, 330.0, 329.0, 329.0, 329.0, 331.0, 329.0, 330.0, 330.0, 333.0, 330.0, 333.0, 330.0, 329.0, 328.0, 328.0, 328.0, 327.0, 331.0, 328.0, 328.0, 329.0, 328.0, 328.0, 333.0, 330.0, 328.0, 329.0, 329.0, 329.0, 328.0, 329.0, 328.0, 331.0, 328.0, 332.0, 330.0, 330.0, 329.0, 328.0, 329.0, 329.0, 329.0, 329.0, 331.0, 328.0, 328.0, 329.0, 329.0, 329.0, 329.0, 328.0, 332.0, 332.0, 330.0, 329.0, 329.0, 329.0, 328.0, 332.0, 330.0, 329.0, 328.0, 331.0, 330.0, 329.0, 329.0, 329.0, 329.0, 329.0, 329.0, 332.0, 331.0, 330.0, 329.0, 329.0, 329.0, 332.0, 331.0, 333.0, 330.0, 330.0, 329.0, 329.0, 328.0, 328.0, 328.0, 327.0, 329.0, 329.0, 329.0, 328.0, 329.0, 329.0, 330.0, 330.0, 330.0, 329.0, 329.0, 329.0, 329.0, 333.0, 330.0, 329.0, 327.0, 332.0, 330.0, 328.0, 328.0, 328.0, 330.0, 329.0, 329.0, 329.0, 329.0, 333.0, 330.0, 329.0, 329.0, 330.0, 329.0, 329.0, 328.0, 330.0, 329.0, 332.0, 330.0, 328.0, 329.0, 328.0, 329.0, 329.0, 329.0, 329.0, 328.0, 329.0, 327.0, 329.0, 332.0, 329.0, 331.0, 330.0, 329.0, 329.0, 329.0, 328.0, 329.0, 328.0, 328.0, 327.0, 331.0, 332.0, 330.0, 329.0, 330.0, 330.0, 329.0, 328.0, 327.0, 327.0, 328.0, 329.0, 332.0, 330.0, 330.0, 331.0, 330.0, 327.0, 329.0, 326.0, 327.0, 328.0, 329.0, 332.0, 331.0, 329.0, 329.0, 332.0, 331.0, 329.0, 329.0, 329.0, 328.0, 331.0, 330.0, 329.0, 328.0, 329.0, 328.0, 332.0, 330.0, 330.0, 330.0, 329.0, 329.0, 331.0, 330.0, 332.0, 329.0, 329.0, 329.0, 331.0, 331.0, 329.0, 329.0, 329.0, 329.0, 332.0, 330.0, 329.0, 329.0, 330.0, 332.0, 330.0, 329.0, 329.0, 331.0, 332.0, 331.0, 330.0, 330.0, 329.0, 330.0, 329.0, 332.0, 330.0, 328.0, 328.0, 330.0, 330.0, 329.0, 329.0, 329.0, 329.0, 328.0, 328.0, 329.0, 328.0, 329.0, 331.0, 332.0, 331.0, 329.0, 331.0],
      "WindowWidth": [717.0, 714.0, 711.0, 712.0, 713.0, 711.0, 713.0, 715.0, 713.0, 711.0, 709.0, 710.0, 708.0, 710.0, 714.0, 712.0, 711.0, 711.0, 715.0, 713.0, 712.0, 711.0, 712.0, 714.0, 717.0, 713.0, 712.0, 710.0, 716.0, 713.0, 710.0, 710.0, 714.0, 712.0, 709.0, 709.0, 714.0, 711.0, 710.0, 710.0, 710.0, 712.0, 711.0, 712.0, 712.0, 715.0, 711.0, 715.0, 711.0, 709.0, 709.0, 708.0, 708.0, 707.0, 712.0, 708.0, 708.0, 709.0, 708.0, 708.0, 714.0, 710.0, 708.0, 710.0, 709.0, 709.0, 708.0, 709.0, 708.0, 712.0, 708.0, 714.0, 711.0, 711.0, 710.0, 708.0, 709.0, 709.0, 709.0, 709.0, 712.0, 709.0, 708.0, 709.0, 709.0, 710.0, 710.0, 709.0, 713.0, 714.0, 711.0, 709.0, 710.0, 709.0, 708.0, 714.0, 710.0, 709.0, 708.0, 712.0, 710.0, 709.0, 709.0, 709.0, 709.0, 709.0, 710.0, 714.0, 713.0, 711.0, 709.0, 709.0, 710.0, 713.0, 713.0, 715.0, 712.0, 711.0, 709.0, 709.0, 708.0, 708.0, 708.0, 707.0, 709.0, 709.0, 710.0, 709.0, 709.0, 710.0, 712.0, 712.0, 711.0, 709.0, 710.0, 709.0, 710.0, 715.0, 712.0, 710.0, 707.0, 713.0, 711.0, 708.0, 709.0, 708.0, 712.0, 709.0, 710.0, 710.0, 710.0, 715.0, 712.0, 710.0, 709.0, 711.0, 709.0, 710.0, 708.0, 710.0, 709.0, 714.0, 710.0, 708.0, 709.0, 708.0, 709.0, 709.0, 709.0, 710.0, 708.0, 709.0, 708.0, 709.0, 714.0, 710.0, 713.0, 711.0, 709.0, 709.0, 709.0, 709.0, 709.0, 709.0, 708.0, 708.0, 712.0, 714.0, 712.0, 709.0, 710.0, 710.0, 709.0, 708.0, 707.0, 706.0, 708.0, 709.0, 714.0, 711.0, 710.0, 711.0, 711.0, 706.0, 708.0, 705.0, 706.0, 707.0, 709.0, 714.0, 712.0, 708.0, 710.0, 714.0, 712.0, 710.0, 709.0, 709.0, 708.0, 712.0, 710.0, 710.0, 708.0, 709.0, 708.0, 713.0, 712.0, 712.0, 712.0, 710.0, 710.0, 712.0, 712.0, 713.0, 710.0, 709.0, 709.0, 712.0, 712.0, 710.0, 710.0, 709.0, 709.0, 714.0, 712.0, 709.0, 710.0, 711.0, 714.0, 712.0, 710.0, 710.0, 713.0, 713.0, 712.0, 711.0, 711.0, 709.0, 711.0, 709.0, 714.0, 710.0, 708.0, 709.0, 711.0, 711.0, 708.0, 710.0, 709.0, 710.0, 708.0, 708.0, 709.0, 708.0, 709.0, 711.0, 713.0, 712.0, 708.0, 712.0]
    },
    "slices": {}
  }
}