{
  "AcquisitionMatrixPE": 96,
  "AcquisitionNumber": 1,
  "AcquisitionTime": "13:25:37.067500",
  "BandwidthPerPixelPhaseEncode": 18.939,
  "BaseResolution": 96,
  "BodyPartExamined": "BRAIN",
  "ConsistencyInfo": "N4_VE11C_LATEST_20160120",
  "ConversionSoftware": "dcm2niix",
  "ConversionSoftwareVersion": "v1.0.20170923 (OpenJPEG build) GCC6.3.0",
  "DerivedVendorReportedEchoSpacing": 0.000550011,
  "DeviceSerialNumber": "66112",
  "DwellTime": 2.3e-06,
  "EchoTime": 0.033,
  "EchoTrainLength": 96,
  "EffectiveEchoSpacing": 0.000550011,
  "FlipAngle": 64,
  "ImageType": [
    "ORIGINAL",
    "PRIMARY",
    "FMRI",
    "NONE",
    "ND",
    "NORM",
    "MOSAIC"
],
  "InstitutionAddress": "Maynard_3_Hanover_NH_US_03755",
  "InstitutionName": "Dartmouth_College_-_PBS",
  "MagneticFieldStrength": 3,
  "Manufacturer": "Siemens",
  "ManufacturersModelName": "Prisma",
  "Modality": "MR",
  "MultibandAccelerationFactor": 4,
  "PartialFourier": 1,
  "PercentPhaseFOV": 100,
  "PhaseEncodingDirection": "j-",
  "PhaseEncodingSteps": 96,
  "PhaseResolution": 1,
  "ProcedureStepDescription": "Gobbini_Matteo_1017_famface-angles",
  "ProtocolName": "func_run-03_task-str1back",
  "PulseSequenceDetails": "%SiemensSeq%_ep2d_bold",
  "ReceiveCoilActiveElements": "HEA;HEP",
  "ReceiveCoilName": "Head_32",
  "ReconMatrixPE": 96,
  "RepetitionTime": 1.25,
  "ScanOptions": "FS",
  "ScanningSequence": "EP",
  "SequenceName": "_epfid2d1_96",
  "SequenceVariant": "SK",
  "SeriesDescription": "func_run-03_task-str1back",
  "SliceTiming": [0.88, 0, 0.615, 0.0875, 0.7025, 0.175, 0.79, 0.3525, 0.9675, 0.44, 1.055, 0.5275, 1.1425, 0.265, 0.88, 0, 0.615, 0.0875, 0.7025, 0.175, 0.79, 0.3525, 0.9675, 0.44, 1.055, 0.5275, 1.1425, 0.265, 0.88, 0, 0.615, 0.0875, 0.7025, 0.175, 0.79, 0.3525, 0.9675, 0.44, 1.055, 0.5275, 1.1425, 0.265, 0.88, 0, 0.615, 0.0875, 0.7025, 0.175, 0.79, 0.3525, 0.9675, 0.44, 1.055, 0.5275, 1.1425, 0.265],
  "SoftwareVersions": "syngo_MR_E11",
  "StationName": "AWP66112",
  "TaskName": "str1back",
  "TotalReadoutTime": 0.0522511,
  "dcmmeta_affine": [
    [-2.5, 0.0, 6.0574999877216484e-12, 120.0],
    [0.0, 2.5, 7.859999977266607e-12, -102.13999938964844],
    [6.0574999877216484e-12, -7.859999977266607e-12, 2.5, -84.75],
    [0.0, 0.0, 0.0, 1.0]
],
  "dcmmeta_reorient_transform": [
    [0.0, -1.0, 0.0, 95.0],
    [1.0, 0.0, 0.0, 0.0],
    [0.0, 0.0, 1.0, 0.0],
    [0.0, 0.0, 0.0, 1.0]
],
  "dcmmeta_shape": [96, 96, 56, 280],
  "dcmmeta_slice_dim": 2,
  "dcmmeta_version": 0.6,
  "global": {
    "const": {
      "AccessionNumber": "A000642",
      "AcquisitionMatrix": [96, 0, 0, 96],
      "AngioFlag": "N",
      "BitsAllocated": 16,
      "BitsStored": 12,
      "BodyPartExamined": "BRAIN",
      "Columns": 768,
      "EchoNumbers": 1,
      "EchoTime": 33.0,
      "EchoTrainLength": 96,
      "FlipAngle": 64.0,
      "HighBit": 11,
      "ImageOrientationPatient": [1.0, 0.0, 2.423e-12, 0.0, 1.0, 3.144e-12],
      "ImagePositionPatient": [-959.99999999983, -975.36000061035, -84.750000005344],
      "ImageType": [
        "ORIGINAL",
        "PRIMARY",
        "FMRI",
        "NONE",
        "ND",
        "NORM",
        "MOSAIC"
],
      "ImagedNucleus": "1H",
      "ImagingFrequency": 123.252314,
      "InPlanePhaseEncodingDirection": "COL",
      "MRAcquisitionType": "2D",
      "MagneticFieldStrength": 3.0,
      "Manufacturer": "SIEMENS",
      "ManufacturerModelName": "Prisma",
      "Modality": "MR",
      "NumberOfAverages": 1.0,
      "NumberOfPhaseEncodingSteps": 96,
      "PercentPhaseFieldOfView": 100.0,
      "PercentSampling": 100.0,
      "PerformedProcedureStepStartTime": "125927.241000",
      "PhotometricInterpretation": "MONOCHROME2",
      "PixelBandwidth": 2265.0,
      "PixelRepresentation": 0,
      "PixelSpacing": [2.5, 2.5],
      "PositionReferenceIndicator": "",
      "ProtocolName": "func_run-03_task-str1back",
      "RepetitionTime": 1250.0,
      "Rows": 768,
      "SAR": 0.06428351136128,
      "SamplesPerPixel": 1,
      "ScanOptions": "FS",
      "ScanningSequence": "EP",
      "SequenceName": "*epfid2d1_96",
      "SequenceVariant": "SK",
      "SeriesDescription": "func_run-03_task-str1back",
      "SeriesNumber": 22,
      "SeriesTime": "132538.761000",
      "SliceLocation": -84.749999999952,
      "SliceThickness": 2.5,
      "SmallestImagePixelValue": 0,
      "SoftwareVersions": "syngo MR E11",
      "SpacingBetweenSlices": 2.5,
      "SpecificCharacterSet": "ISO_IR 100",
      "StudyID": "2",
      "StudyTime": "125927.189000",
      "TransmitCoilName": "Body",
      "VariableFlipAngleFlag": "N",
      "WindowCenterWidthExplanation": "Algo1",
      "dBdt": 0.0},
    "slices": {}
  },
  "time": {
    "samples": {
      "AcquisitionNumber": [1, 2, 3, 4, 5, 6, 7, 8, 9, 10, 11, 12, 13, 14, 15, 16, 17, 18, 19, 20, 21, 22, 23, 24, 25, 26, 27, 28, 29, 30, 31, 32, 33, 34, 35, 36, 37, 38, 39, 40, 41, 42, 43, 44, 45, 46, 47, 48, 49, 50, 51, 52, 53, 54, 55, 56, 57, 58, 59, 60, 61, 62, 63, 64, 65, 66, 67, 68, 69, 70, 71, 72, 73, 74, 75, 76, 77, 78, 79, 80, 81, 82, 83, 84, 85, 86, 87, 88, 89, 90, 91, 92, 93, 94, 95, 96, 97, 98, 99, 100, 101, 102, 103, 104, 105, 106, 107, 108, 109, 110, 111, 112, 113, 114, 115, 116, 117, 118, 119, 120, 121, 122, 123, 124, 125, 126, 127, 128, 129, 130, 131, 132, 133, 134, 135, 136, 137, 138, 139, 140, 141, 142, 143, 144, 145, 146, 147, 148, 149, 150, 151, 152, 153, 154, 155, 156, 157, 158, 159, 160, 161, 162, 163, 164, 165, 166, 167, 168, 169, 170, 171, 172, 173, 174, 175, 176, 177, 178, 179, 180, 181, 182, 183, 184, 185, 186, 187, 188, 189, 190, 191, 192, 193, 194, 195, 196, 197, 198, 199, 200, 201, 202, 203, 204, 205, 206, 207, 208, 209, 210, 211, 212, 213, 214, 215, 216, 217, 218, 219, 220, 221, 222, 223, 224, 225, 226, 227, 228, 229, 230, 231, 232, 233, 234, 235, 236, 237, 238, 239, 240, 241, 242, 243, 244, 245, 246, 247, 248, 249, 250, 251, 252, 253, 254, 255, 256, 257, 258, 259, 260, 261, 262, 263, 264, 265, 266, 267, 268, 269, 270, 271, 272, 273, 274, 275, 276, 277, 278, 279, 280],
      "AcquisitionTime": ["132537.067500", "132538.317500", "132539.567500", "132540.817500", "132542.067500", "132543.317500", "132544.567500", "132545.817500", "132547.067500", "132548.317500", "132549.567500", "132550.817500", "132552.067500", "132553.317500", "132554.567500", "132555.817500", "132557.067500", "132558.317500", "132559.567500", "132600.817500", "132602.067500", "132603.317500", "132604.567500", "132605.817500", "132607.067500", "132608.317500", "132609.567500", "132610.817500", "132612.067500", "132613.317500", "132614.567500", "132615.817500", "132617.067500", "132618.317500", "132619.567500", "132620.817500", "132622.067500", "132623.317500", "132624.567500", "132625.817500", "132627.067500", "132628.317500", "132629.567500", "132630.817500", "132632.067500", "132633.317500", "132634.567500", "132635.817500", "132637.067500", "132638.317500", "132639.567500", "132640.817500", "132642.067500", "132643.317500", "132644.567500", "132645.817500", "132647.067500", "132648.317500", "132649.567500", "132650.817500", "132652.067500", "132653.317500", "132654.567500", "132655.817500", "132657.067500", "132658.317500", "132659.567500", "132700.817500", "132702.067500", "132703.317500", "132704.567500", "132705.817500", "132707.067500", "132708.317500", "132709.567500", "132710.817500", "132712.067500", "132713.317500", "132714.567500", "132715.817500", "132717.067500", "132718.317500", "132719.567500", "132720.817500", "132722.067500", "132723.317500", "132724.567500", "132725.817500", "132727.067500", "132728.317500", "132729.567500", "132730.817500", "132732.067500", "132733.317500", "132734.567500", "132735.817500", "132737.067500", "132738.317500", "132739.567500", "132740.817500", "132742.067500", "132743.317500", "132744.567500", "132745.817500", "132747.067500", "132748.317500", "132749.567500", "132750.817500", "132752.067500", "132753.317500", "132754.567500", "132755.817500", "132757.067500", "132758.317500", "132759.567500", "132800.817500", "132802.067500", "132803.317500", "132804.567500", "132805.817500", "132807.067500", "132808.317500", "132809.567500", "132810.817500", "132812.067500", "132813.317500", "132814.567500", "132815.817500", "132817.067500", "132818.317500", "132819.567500", "132820.817500", "132822.067500", "132823.317500", "132824.567500", "132825.817500", "132827.067500", "132828.317500", "132829.567500", "132830.817500", "132832.067500", "132833.317500", "132834.567500", "132835.817500", "132837.067500", "132838.317500", "132839.567500", "132840.817500", "132842.067500", "132843.317500", "132844.567500", "132845.817500", "132847.067500", "132848.317500", "132849.567500", "132850.817500", "132852.067500", "132853.317500", "132854.567500", "132855.817500", "132857.067500", "132858.317500", "132859.567500", "132900.817500", "132902.067500", "132903.317500", "132904.567500", "132905.817500", "132907.067500", "132908.317500", "132909.567500", "132910.817500", "132912.067500", "132913.317500", "132914.567500", "132915.817500", "132917.067500", "132918.317500", "132919.567500", "132920.817500", "132922.067500", "132923.317500", "132924.567500", "132925.817500", "132927.067500", "132928.317500", "132929.567500", "132930.817500", "132932.067500", "132933.317500", "132934.567500", "132935.817500", "132937.067500", "132938.317500", "132939.567500", "132940.817500", "132942.067500", "132943.317500", "132944.567500", "132945.817500", "132947.067500", "132948.317500", "132949.567500", "132950.817500", "132952.067500", "132953.317500", "132954.567500", "132955.817500", "132957.067500", "132958.317500", "132959.567500", "133000.817500", "133002.067500", "133003.317500", "133004.567500", "133005.817500", "133007.067500", "133008.317500", "133009.567500", "133010.817500", "133012.067500", "133013.317500", "133014.567500", "133015.817500", "133017.067500", "133018.317500", "133019.567500", "133020.817500", "133022.067500", "133023.317500", "133024.567500", "133025.817500", "133027.067500", "133028.317500", "133029.567500", "133030.817500", "133032.067500", "133033.317500", "133034.567500", "133035.817500", "133037.067500", "133038.317500", "133039.567500", "133040.817500", "133042.067500", "133043.317500", "133044.567500", "133045.817500", "133047.067500", "133048.317500", "133049.567500", "133050.817500", "133052.067500", "133053.317500", "133054.567500", "133055.817500", "133057.067500", "133058.317500", "133059.567500", "133100.817500", "133102.067500", "133103.317500", "133104.567500", "133105.817500", "133107.067500", "133108.317500", "133109.567500", "133110.817500", "133112.067500", "133113.317500", "133114.567500", "133115.817500", "133117.067500", "133118.317500", "133119.567500", "133120.817500", "133122.067500", "133123.317500", "133124.567500", "133125.817500"],
      "ContentTime": ["132538.765000", "132539.838000", "132541.108000", "132542.344000", "132543.604000", "132544.856000", "132546.098000", "132547.375000", "132548.566000", "132549.853000", "132551.112000", "132552.368000", "132553.611000", "132554.853000", "132556.097000", "132557.359000", "132558.591000", "132559.844000", "132601.084000", "132602.371000", "132603.590000", "132604.839000", "132606.097000", "132607.339000", "132608.604000", "132609.860000", "132611.088000", "132612.339000", "132613.604000", "132614.871000", "132616.080000", "132617.379000", "132618.588000", "132619.838000", "132621.085000", "132622.337000", "132623.600000", "132624.827000", "132626.092000", "132627.371000", "132628.615000", "132629.869000", "132631.082000", "132632.374000", "132633.614000", "132634.828000", "132636.105000", "132637.371000", "132638.602000", "132639.844000", "132641.097000", "132642.366000", "132643.615000", "132644.829000", "132646.093000", "132647.339000", "132648.614000", "132649.850000", "132651.125000", "132652.320000", "132653.596000", "132654.860000", "132656.123000", "132657.348000", "132658.597000", "132659.839000", "132701.164000", "132702.351000", "132703.577000", "132704.851000", "132706.089000", "132707.364000", "132708.594000", "132709.847000", "132711.126000", "132712.361000", "132713.625000", "132714.819000", "132716.092000", "132717.342000", "132718.603000", "132719.841000", "132721.110000", "132722.353000", "132723.588000", "132724.847000", "132726.087000", "132727.330000", "132728.585000", "132729.874000", "132731.099000", "132732.334000", "132733.624000", "132734.853000", "132736.095000", "132737.335000", "132738.589000", "132739.855000", "132741.112000", "132742.332000", "132743.626000", "132744.870000", "132746.121000", "132747.355000", "132748.618000", "132749.878000", "132751.126000", "132752.354000", "132753.641000", "132754.864000", "132756.110000", "132757.367000", "132758.597000", "132759.859000", "132801.098000", "132802.353000", "132803.615000", "132804.854000", "132806.098000", "132807.357000", "132808.614000", "132809.854000", "132811.095000", "132812.383000", "132813.596000", "132814.869000", "132816.104000", "132817.372000", "132818.597000", "132819.875000", "132821.112000", "132822.352000", "132823.606000", "132824.862000", "132826.132000", "132827.365000", "132828.595000", "132829.865000", "132831.109000", "132832.355000", "132833.602000", "132834.852000", "132836.107000", "132837.367000", "132838.619000", "132839.851000", "132841.113000", "132842.345000", "132843.583000", "132844.852000", "132846.113000", "132847.373000", "132848.617000", "132849.868000", "132851.100000", "132852.350000", "132853.584000", "132854.856000", "132856.072000", "132857.339000", "132858.619000", "132859.862000", "132901.156000", "132902.366000", "132903.619000", "132904.872000", "132906.117000", "132907.361000", "132908.639000", "132909.847000", "132911.135000", "132912.356000", "132913.581000", "132914.861000", "132916.108000", "132917.366000", "132918.652000", "132919.848000", "132921.091000", "132922.362000", "132923.607000", "132924.854000", "132926.123000", "132927.353000", "132928.608000", "132929.827000", "132931.129000", "132932.414000", "132933.600000", "132934.829000", "132936.119000", "132937.351000", "132938.597000", "132939.858000", "132941.060000", "132942.354000", "132943.604000", "132944.876000", "132946.090000", "132947.384000", "132948.583000", "132949.839000", "132951.118000", "132952.336000", "132953.619000", "132954.867000", "132956.117000", "132957.354000", "132958.611000", "132959.882000", "133001.122000", "133002.356000", "133003.610000", "133004.846000", "133006.112000", "133007.342000", "133008.620000", "133009.859000", "133011.129000", "133012.350000", "133013.624000", "133014.864000", "133016.110000", "133017.362000", "133018.629000", "133019.854000", "133021.088000", "133022.334000", "133023.603000", "133024.826000", "133026.110000", "133027.365000", "133028.653000", "133029.867000", "133031.098000", "133032.376000", "133033.605000", "133034.878000", "133036.124000", "133037.362000", "133038.606000", "133039.861000", "133041.072000", "133042.330000", "133043.603000", "133044.854000", "133046.113000", "133047.372000", "133048.615000", "133049.864000", "133051.080000", "133052.345000", "133053.582000", "133054.870000", "133056.102000", "133057.341000", "133058.597000", "133059.840000", "133101.110000", "133102.361000", "133103.598000", "133104.865000", "133106.104000", "133107.389000", "133108.618000", "133109.861000", "133111.081000", "133112.344000", "133113.611000", "133114.843000", "133116.100000", "133117.372000", "133118.618000", "133119.864000", "133121.092000", "133122.351000", "133123.613000", "133124.819000", "133126.086000", "133127.396000"],
      "InstanceCreationTime": ["132538.765000", "132539.838000", "132541.108000", "132542.344000", "132543.604000", "132544.856000", "132546.098000", "132547.375000", "132548.566000", "132549.853000", "132551.112000", "132552.368000", "132553.611000", "132554.853000", "132556.097000", "132557.359000", "132558.591000", "132559.844000", "132601.084000", "132602.371000", "132603.590000", "132604.839000", "132606.097000", "132607.339000", "132608.604000", "132609.860000", "132611.088000", "132612.339000", "132613.604000", "132614.871000", "132616.080000", "132617.379000", "132618.588000", "132619.838000", "132621.085000", "132622.337000", "132623.600000", "132624.827000", "132626.092000", "132627.371000", "132628.615000", "132629.869000", "132631.082000", "132632.374000", "132633.614000", "132634.828000", "132636.105000", "132637.371000", "132638.602000", "132639.844000", "132641.097000", "132642.366000", "132643.615000", "132644.829000", "132646.093000", "132647.339000", "132648.614000", "132649.850000", "132651.125000", "132652.320000", "132653.596000", "132654.860000", "132656.123000", "132657.348000", "132658.597000", "132659.839000", "132701.164000", "132702.351000", "132703.577000", "132704.851000", "132706.089000", "132707.364000", "132708.594000", "132709.847000", "132711.126000", "132712.361000", "132713.625000", "132714.819000", "132716.092000", "132717.342000", "132718.603000", "132719.841000", "132721.110000", "132722.353000", "132723.588000", "132724.847000", "132726.087000", "132727.330000", "132728.585000", "132729.874000", "132731.099000", "132732.334000", "132733.624000", "132734.853000", "132736.095000", "132737.335000", "132738.589000", "132739.855000", "132741.112000", "132742.332000", "132743.626000", "132744.870000", "132746.121000", "132747.355000", "132748.618000", "132749.878000", "132751.126000", "132752.354000", "132753.641000", "132754.864000", "132756.110000", "132757.367000", "132758.597000", "132759.859000", "132801.098000", "132802.353000", "132803.615000", "132804.854000", "132806.098000", "132807.357000", "132808.614000", "132809.854000", "132811.095000", "132812.383000", "132813.596000", "132814.869000", "132816.104000", "132817.372000", "132818.597000", "132819.875000", "132821.112000", "132822.352000", "132823.606000", "132824.862000", "132826.132000", "132827.365000", "132828.595000", "132829.865000", "132831.109000", "132832.355000", "132833.602000", "132834.852000", "132836.107000", "132837.367000", "132838.619000", "132839.851000", "132841.113000", "132842.345000", "132843.583000", "132844.852000", "132846.113000", "132847.373000", "132848.617000", "132849.868000", "132851.100000", "132852.350000", "132853.584000", "132854.856000", "132856.072000", "132857.339000", "132858.619000", "132859.862000", "132901.156000", "132902.366000", "132903.619000", "132904.872000", "132906.117000", "132907.361000", "132908.639000", "132909.847000", "132911.135000", "132912.356000", "132913.581000", "132914.861000", "132916.108000", "132917.366000", "132918.652000", "132919.848000", "132921.091000", "132922.362000", "132923.607000", "132924.854000", "132926.123000", "132927.353000", "132928.608000", "132929.827000", "132931.129000", "132932.414000", "132933.600000", "132934.829000", "132936.119000", "132937.351000", "132938.597000", "132939.858000", "132941.060000", "132942.354000", "132943.604000", "132944.876000", "132946.090000", "132947.384000", "132948.583000", "132949.839000", "132951.118000", "132952.336000", "132953.619000", "132954.867000", "132956.117000", "132957.354000", "132958.611000", "132959.882000", "133001.122000", "133002.356000", "133003.610000", "133004.846000", "133006.112000", "133007.342000", "133008.620000", "133009.859000", "133011.129000", "133012.350000", "133013.624000", "133014.864000", "133016.110000", "133017.362000", "133018.629000", "133019.854000", "133021.088000", "133022.334000", "133023.603000", "133024.826000", "133026.110000", "133027.365000", "133028.653000", "133029.867000", "133031.098000", "133032.376000", "133033.605000", "133034.878000", "133036.124000", "133037.362000", "133038.606000", "133039.861000", "133041.072000", "133042.330000", "133043.603000", "133044.854000", "133046.113000", "133047.372000", "133048.615000", "133049.864000", "133051.080000", "133052.345000", "133053.582000", "133054.870000", "133056.102000", "133057.341000", "133058.597000", "133059.840000", "133101.110000", "133102.361000", "133103.598000", "133104.865000", "133106.104000", "133107.389000", "133108.618000", "133109.861000", "133111.081000", "133112.344000", "133113.611000", "133114.843000", "133116.100000", "133117.372000", "133118.618000", "133119.864000", "133121.092000", "133122.351000", "133123.613000", "133124.819000", "133126.086000", "133127.396000"],
      "InstanceNumber": [1, 2, 3, 4, 5, 6, 7, 8, 9, 10, 11, 12, 13, 14, 15, 16, 17, 18, 19, 20, 21, 22, 23, 24, 25, 26, 27, 28, 29, 30, 31, 32, 33, 34, 35, 36, 37, 38, 39, 40, 41, 42, 43, 44, 45, 46, 47, 48, 49, 50, 51, 52, 53, 54, 55, 56, 57, 58, 59, 60, 61, 62, 63, 64, 65, 66, 67, 68, 69, 70, 71, 72, 73, 74, 75, 76, 77, 78, 79, 80, 81, 82, 83, 84, 85, 86, 87, 88, 89, 90, 91, 92, 93, 94, 95, 96, 97, 98, 99, 100, 101, 102, 103, 104, 105, 106, 107, 108, 109, 110, 111, 112, 113, 114, 115, 116, 117, 118, 119, 120, 121, 122, 123, 124, 125, 126, 127, 128, 129, 130, 131, 132, 133, 134, 135, 136, 137, 138, 139, 140, 141, 142, 143, 144, 145, 146, 147, 148, 149, 150, 151, 152, 153, 154, 155, 156, 157, 158, 159, 160, 161, 162, 163, 164, 165, 166, 167, 168, 169, 170, 171, 172, 173, 174, 175, 176, 177, 178, 179, 180, 181, 182, 183, 184, 185, 186, 187, 188, 189, 190, 191, 192, 193, 194, 195, 196, 197, 198, 199, 200, 201, 202, 203, 204, 205, 206, 207, 208, 209, 210, 211, 212, 213, 214, 215, 216, 217, 218, 219, 220, 221, 222, 223, 224, 225, 226, 227, 228, 229, 230, 231, 232, 233, 234, 235, 236, 237, 238, 239, 240, 241, 242, 243, 244, 245, 246, 247, 248, 249, 250, 251, 252, 253, 254, 255, 256, 257, 258, 259, 260, 261, 262, 263, 264, 265, 266, 267, 268, 269, 270, 271, 272, 273, 274, 275, 276, 277, 278, 279, 280],
      "LargestImagePixelValue": [897, 1111, 790, 1107, 1016, 1140, 1060, 1046, 1027, 945, 969, 848, 839, 885, 661, 811, 661, 999, 667, 979, 719, 953, 708, 728, 915, 763, 939, 787, 934, 706, 820, 765, 1096, 1088, 886, 1085, 817, 879, 798, 865, 1065, 1052, 837, 817, 692, 808, 866, 920, 739, 907, 677, 885, 872, 1038, 782, 775, 780, 971, 713, 701, 739, 862, 924, 1078, 1134, 890, 868, 776, 761, 666, 851, 681, 959, 681, 802, 694, 840, 805, 1094, 1102, 1168, 925, 755, 746, 681, 943, 661, 935, 654, 845, 730, 849, 1164, 1105, 1121, 816, 735, 655, 657, 647, 953, 672, 913, 860, 751, 967, 1118, 1094, 1138, 880, 707, 743, 709, 738, 748, 1001, 938, 1111, 813, 763, 863, 869, 1012, 992, 990, 787, 783, 729, 851, 733, 1051, 694, 878, 830, 1009, 823, 1060, 708, 742, 642, 772, 738, 1044, 923, 942, 838, 828, 761, 797, 919, 977, 778, 792, 652, 651, 666, 741, 830, 657, 658, 831, 941, 998, 837, 929, 740, 875, 827, 1129, 1071, 1062, 886, 1050, 907, 830, 747, 779, 759, 907, 836, 834, 630, 636, 626, 638, 666, 800, 647, 859, 685, 772, 795, 1078, 1043, 1082, 926, 851, 833, 912, 882, 1075, 950, 948, 834, 824, 820, 798, 873, 987, 926, 968, 904, 790, 732, 918, 795, 992, 676, 692, 612, 696, 717, 690, 754, 827, 957, 1096, 1095, 1150, 823, 743, 667, 800, 940, 1133, 907, 969, 754, 690, 654, 635, 733, 1035, 887, 1090, 920, 855, 870, 781, 722, 724, 674, 846, 853, 907, 628, 647, 701, 713, 919, 1056, 856, 887, 907, 836, 846, 766, 681, 675, 650, 953, 843, 1068, 842, 956, 1145, 947, 835, 801, 769],
      "WindowCenter": [333.0, 334.0, 330.0, 333.0, 332.0, 333.0, 332.0, 332.0, 332.0, 331.0, 331.0, 330.0, 329.0, 330.0, 327.0, 330.0, 328.0, 332.0, 328.0, 332.0, 329.0, 332.0, 329.0, 329.0, 332.0, 329.0, 331.0, 329.0, 331.0, 328.0, 330.0, 329.0, 332.0, 332.0, 331.0, 332.0, 330.0, 331.0, 330.0, 331.0, 332.0, 332.0, 330.0, 331.0, 328.0, 330.0, 331.0, 331.0, 329.0, 331.0, 328.0, 331.0, 331.0, 332.0, 329.0, 329.0, 329.0, 331.0, 328.0, 328.0, 329.0, 331.0, 331.0, 333.0, 333.0, 331.0, 330.0, 329.0, 329.0, 328.0, 331.0, 328.0, 331.0, 328.0, 329.0, 328.0, 331.0, 330.0, 332.0, 332.0, 332.0, 330.0, 329.0, 329.0, 328.0, 331.0, 328.0, 331.0, 328.0, 330.0, 329.0, 331.0, 334.0, 332.0, 332.0, 329.0, 328.0, 328.0, 328.0, 328.0, 332.0, 328.0, 331.0, 330.0, 329.0, 331.0, 332.0, 332.0, 332.0, 329.0, 327.0, 327.0, 328.0, 329.0, 330.0, 332.0, 331.0, 332.0, 329.0, 329.0, 331.0, 331.0, 333.0, 332.0, 332.0, 329.0, 329.0, 329.0, 331.0, 329.0, 332.0, 328.0, 331.0, 330.0, 331.0, 330.0, 332.0, 328.0, 328.0, 327.0, 329.0, 329.0, 332.0, 331.0, 331.0, 330.0, 330.0, 329.0, 330.0, 331.0, 332.0, 329.0, 329.0, 327.0, 328.0, 328.0, 330.0, 331.0, 328.0, 328.0, 331.0, 332.0, 332.0, 330.0, 331.0, 329.0, 331.0, 330.0, 332.0, 332.0, 332.0, 330.0, 332.0, 330.0, 330.0, 329.0, 329.0, 330.0, 331.0, 330.0, 329.0, 327.0, 326.0, 327.0, 328.0, 328.0, 329.0, 327.0, 330.0, 328.0, 329.0, 329.0, 332.0, 332.0, 332.0, 330.0, 329.0, 329.0, 330.0, 331.0, 332.0, 331.0, 330.0, 329.0, 329.0, 330.0, 330.0, 331.0, 332.0, 331.0, 332.0, 331.0, 330.0, 330.0, 331.0, 330.0, 330.0, 328.0, 328.0, 327.0, 328.0, 329.0, 328.0, 329.0, 330.0, 332.0, 332.0, 332.0, 332.0, 329.0, 328.0, 328.0, 329.0, 331.0, 332.0, 330.0, 330.0, 328.0, 327.0, 328.0, 327.0, 329.0, 332.0, 330.0, 332.0, 330.0, 330.0, 330.0, 329.0, 328.0, 328.0, 328.0, 329.0, 330.0, 331.0, 326.0, 326.0, 328.0, 329.0, 331.0, 332.0, 330.0, 328.0, 330.0, 330.0, 331.0, 329.0, 328.0, 328.0, 328.0, 332.0, 330.0, 332.0, 330.0, 331.0, 332.0, 330.0, 329.0, 329.0, 329.0],
      "WindowWidth": [717.0, 716.0, 711.0, 715.0, 714.0, 715.0, 713.0, 713.0, 713.0, 712.0, 712.0, 711.0, 710.0, 710.0, 706.0, 711.0, 708.0, 713.0, 707.0, 713.0, 709.0, 713.0, 709.0, 709.0, 713.0, 710.0, 712.0, 710.0, 712.0, 708.0, 710.0, 710.0, 714.0, 714.0, 711.0, 714.0, 711.0, 711.0, 711.0, 712.0, 714.0, 713.0, 710.0, 712.0, 708.0, 711.0, 712.0, 712.0, 710.0, 712.0, 708.0, 713.0, 712.0, 713.0, 708.0, 708.0, 708.0, 711.0, 708.0, 708.0, 709.0, 713.0, 713.0, 715.0, 715.0, 711.0, 710.0, 710.0, 709.0, 707.0, 711.0, 708.0, 712.0, 707.0, 709.0, 708.0, 711.0, 711.0, 714.0, 714.0, 713.0, 711.0, 709.0, 709.0, 708.0, 712.0, 707.0, 712.0, 707.0, 710.0, 709.0, 711.0, 716.0, 714.0, 713.0, 710.0, 708.0, 707.0, 708.0, 708.0, 713.0, 709.0, 711.0, 710.0, 709.0, 712.0, 713.0, 713.0, 712.0, 709.0, 705.0, 706.0, 707.0, 709.0, 710.0, 713.0, 713.0, 713.0, 709.0, 709.0, 712.0, 713.0, 714.0, 713.0, 713.0, 710.0, 710.0, 709.0, 712.0, 709.0, 714.0, 708.0, 711.0, 711.0, 712.0, 710.0, 713.0, 707.0, 707.0, 706.0, 710.0, 709.0, 713.0, 712.0, 712.0, 710.0, 710.0, 710.0, 711.0, 712.0, 713.0, 710.0, 710.0, 706.0, 708.0, 708.0, 710.0, 712.0, 709.0, 708.0, 712.0, 713.0, 713.0, 711.0, 711.0, 709.0, 711.0, 711.0, 714.0, 714.0, 712.0, 711.0, 712.0, 711.0, 710.0, 710.0, 710.0, 710.0, 711.0, 710.0, 709.0, 706.0, 705.0, 707.0, 708.0, 709.0, 710.0, 707.0, 710.0, 707.0, 708.0, 710.0, 713.0, 713.0, 712.0, 711.0, 709.0, 709.0, 711.0, 711.0, 713.0, 712.0, 711.0, 709.0, 709.0, 710.0, 711.0, 713.0, 713.0, 712.0, 713.0, 712.0, 711.0, 710.0, 712.0, 711.0, 710.0, 707.0, 708.0, 707.0, 708.0, 709.0, 708.0, 710.0, 711.0, 713.0, 714.0, 714.0, 713.0, 709.0, 708.0, 707.0, 710.0, 712.0, 712.0, 710.0, 710.0, 707.0, 706.0, 707.0, 706.0, 709.0, 713.0, 710.0, 712.0, 711.0, 710.0, 710.0, 709.0, 708.0, 708.0, 708.0, 708.0, 710.0, 711.0, 705.0, 705.0, 708.0, 709.0, 712.0, 714.0, 710.0, 707.0, 711.0, 710.0, 711.0, 709.0, 709.0, 708.0, 709.0, 714.0, 710.0, 714.0, 711.0, 712.0, 712.0, 710.0, 709.0, 708.0, 708.0]
    },
    "slices": {}
  }
}