{
  "AcquisitionMatrixPE": 96,
  "AcquisitionNumber": 1,
  "AcquisitionTime": "13:45:1.670000",
  "BandwidthPerPixelPhaseEncode": 18.939,
  "BaseResolution": 96,
  "BodyPartExamined": "BRAIN",
  "ConsistencyInfo": "N4_VE11C_LATEST_20160120",
  "ConversionSoftware": "dcm2niix",
  "ConversionSoftwareVersion": "v1.0.20170923 (OpenJPEG build) GCC6.3.0",
  "DerivedVendorReportedEchoSpacing": 0.000550011,
  "DeviceSerialNumber": "66112",
  "DwellTime": 2.3e-06,
  "EchoTime": 0.033,
  "EchoTrainLength": 96,
  "EffectiveEchoSpacing": 0.000550011,
  "FlipAngle": 64,
  "ImageType": [
    "ORIGINAL",
    "PRIMARY",
    "FMRI",
    "NONE",
    "ND",
    "NORM",
    "MOSAIC"
],
  "InstitutionAddress": "Maynard_3_Hanover_NH_US_03755",
  "InstitutionName": "Dartmouth_College_-_PBS",
  "MagneticFieldStrength": 3,
  "Manufacturer": "Siemens",
  "ManufacturersModelName": "Prisma",
  "Modality": "MR",
  "MultibandAccelerationFactor": 4,
  "PartialFourier": 1,
  "PercentPhaseFOV": 100,
  "PhaseEncodingDirection": "j-",
  "PhaseEncodingSteps": 96,
  "PhaseResolution": 1,
  "ProcedureStepDescription": "Gobbini_Matteo_1017_famface-angles",
  "ProtocolName": "func_run-06_task-localizer",
  "PulseSequenceDetails": "%SiemensSeq%_ep2d_bold",
  "ReceiveCoilActiveElements": "HEA;HEP",
  "ReceiveCoilName": "Head_32",
  "ReconMatrixPE": 96,
  "RepetitionTime": 1.25,
  "ScanOptions": "FS",
  "ScanningSequence": "EP",
  "SequenceName": "_epfid2d1_96",
  "SequenceVariant": "SK",
  "SeriesDescription": "func_run-06_task-localizer",
  "SliceTiming": [0.8775, 0, 0.615, 0.0875, 0.7025, 0.175, 0.79, 0.35, 0.965, 0.4375, 1.0525, 0.5275, 1.1425, 0.2625, 0.8775, 0, 0.615, 0.0875, 0.7025, 0.175, 0.79, 0.35, 0.965, 0.4375, 1.0525, 0.5275, 1.1425, 0.2625, 0.8775, 0, 0.615, 0.0875, 0.7025, 0.175, 0.79, 0.35, 0.965, 0.4375, 1.0525, 0.5275, 1.1425, 0.2625, 0.8775, 0, 0.615, 0.0875, 0.7025, 0.175, 0.79, 0.35, 0.965, 0.4375, 1.0525, 0.5275, 1.1425, 0.2625],
  "SoftwareVersions": "syngo_MR_E11",
  "StationName": "AWP66112",
  "TaskName": "localizer",
  "TotalReadoutTime": 0.0522511,
  "dcmmeta_affine": [
    [-2.5, 0.0, 6.0574999877216484e-12, 120.0],
    [0.0, 2.5, 7.859999977266607e-12, -102.13999938964844],
    [6.0574999877216484e-12, -7.859999977266607e-12, 2.5, -84.75],
    [0.0, 0.0, 0.0, 1.0]
],
  "dcmmeta_reorient_transform": [
    [0.0, -1.0, 0.0, 95.0],
    [1.0, 0.0, 0.0, 0.0],
    [0.0, 0.0, 1.0, 0.0],
    [0.0, 0.0, 0.0, 1.0]
],
  "dcmmeta_shape": [96, 96, 56, 325],
  "dcmmeta_slice_dim": 2,
  "dcmmeta_version": 0.6,
  "global": {
    "const": {
      "AccessionNumber": "A000642",
      "AcquisitionMatrix": [96, 0, 0, 96],
      "AngioFlag": "N",
      "BitsAllocated": 16,
      "BitsStored": 12,
      "BodyPartExamined": "BRAIN",
      "Columns": 768,
      "EchoNumbers": 1,
      "EchoTime": 33.0,
      "EchoTrainLength": 96,
      "FlipAngle": 64.0,
      "HighBit": 11,
      "ImageOrientationPatient": [1.0, 0.0, 2.423e-12, 0.0, 1.0, 3.144e-12],
      "ImagePositionPatient": [-959.99999999983, -975.36000061035, -84.750000005344],
      "ImageType": [
        "ORIGINAL",
        "PRIMARY",
        "FMRI",
        "NONE",
        "ND",
        "NORM",
        "MOSAIC"
],
      "ImagedNucleus": "1H",
      "ImagingFrequency": 123.25232,
      "InPlanePhaseEncodingDirection": "COL",
      "MRAcquisitionType": "2D",
      "MagneticFieldStrength": 3.0,
      "Manufacturer": "SIEMENS",
      "ManufacturerModelName": "Prisma",
      "Modality": "MR",
      "NumberOfAverages": 1.0,
      "NumberOfPhaseEncodingSteps": 96,
      "PercentPhaseFieldOfView": 100.0,
      "PercentSampling": 100.0,
      "PerformedProcedureStepStartTime": "125927.241000",
      "PhotometricInterpretation": "MONOCHROME2",
      "PixelBandwidth": 2265.0,
      "PixelRepresentation": 0,
      "PixelSpacing": [2.5, 2.5],
      "PositionReferenceIndicator": "",
      "ProtocolName": "func_run-06_task-localizer",
      "RepetitionTime": 1250.0,
      "Rows": 768,
      "SAR": 0.06437093792791,
      "SamplesPerPixel": 1,
      "ScanOptions": "FS",
      "ScanningSequence": "EP",
      "SequenceName": "*epfid2d1_96",
      "SequenceVariant": "SK",
      "SeriesDescription": "func_run-06_task-localizer",
      "SeriesNumber": 43,
      "SeriesTime": "134502.918000",
      "SliceLocation": -84.749999999952,
      "SliceThickness": 2.5,
      "SmallestImagePixelValue": 0,
      "SoftwareVersions": "syngo MR E11",
      "SpacingBetweenSlices": 2.5,
      "SpecificCharacterSet": "ISO_IR 100",
      "StudyID": "2",
      "StudyTime": "125927.189000",
      "TransmitCoilName": "Body",
      "VariableFlipAngleFlag": "N",
      "WindowCenterWidthExplanation": "Algo1",
      "dBdt": 0.0},
    "slices": {}
  },
  "time": {
    "samples": {
      "AcquisitionNumber": [1, 2, 3, 4, 5, 6, 7, 8, 9, 10, 11, 12, 13, 14, 15, 16, 17, 18, 19, 20, 21, 22, 23, 24, 25, 26, 27, 28, 29, 30, 31, 32, 33, 34, 35, 36, 37, 38, 39, 40, 41, 42, 43, 44, 45, 46, 47, 48, 49, 50, 51, 52, 53, 54, 55, 56, 57, 58, 59, 60, 61, 62, 63, 64, 65, 66, 67, 68, 69, 70, 71, 72, 73, 74, 75, 76, 77, 78, 79, 80, 81, 82, 83, 84, 85, 86, 87, 88, 89, 90, 91, 92, 93, 94, 95, 96, 97, 98, 99, 100, 101, 102, 103, 104, 105, 106, 107, 108, 109, 110, 111, 112, 113, 114, 115, 116, 117, 118, 119, 120, 121, 122, 123, 124, 125, 126, 127, 128, 129, 130, 131, 132, 133, 134, 135, 136, 137, 138, 139, 140, 141, 142, 143, 144, 145, 146, 147, 148, 149, 150, 151, 152, 153, 154, 155, 156, 157, 158, 159, 160, 161, 162, 163, 164, 165, 166, 167, 168, 169, 170, 171, 172, 173, 174, 175, 176, 177, 178, 179, 180, 181, 182, 183, 184, 185, 186, 187, 188, 189, 190, 191, 192, 193, 194, 195, 196, 197, 198, 199, 200, 201, 202, 203, 204, 205, 206, 207, 208, 209, 210, 211, 212, 213, 214, 215, 216, 217, 218, 219, 220, 221, 222, 223, 224, 225, 226, 227, 228, 229, 230, 231, 232, 233, 234, 235, 236, 237, 238, 239, 240, 241, 242, 243, 244, 245, 246, 247, 248, 249, 250, 251, 252, 253, 254, 255, 256, 257, 258, 259, 260, 261, 262, 263, 264, 265, 266, 267, 268, 269, 270, 271, 272, 273, 274, 275, 276, 277, 278, 279, 280, 281, 282, 283, 284, 285, 286, 287, 288, 289, 290, 291, 292, 293, 294, 295, 296, 297, 298, 299, 300, 301, 302, 303, 304, 305, 306, 307, 308, 309, 310, 311, 312, 313, 314, 315, 316, 317, 318, 319, 320, 321, 322, 323, 324, 325],
      "AcquisitionTime": ["134501.670000", "134502.920000", "134504.170000", "134505.420000", "134506.670000", "134507.920000", "134509.170000", "134510.420000", "134511.670000", "134512.920000", "134514.170000", "134515.420000", "134516.670000", "134517.920000", "134519.170000", "134520.420000", "134521.670000", "134522.920000", "134524.170000", "134525.420000", "134526.670000", "134527.920000", "134529.170000", "134530.420000", "134531.670000", "134532.920000", "134534.170000", "134535.420000", "134536.670000", "134537.920000", "134539.170000", "134540.420000", "134541.670000", "134542.920000", "134544.170000", "134545.420000", "134546.670000", "134547.920000", "134549.170000", "134550.420000", "134551.670000", "134552.920000", "134554.170000", "134555.420000", "134556.670000", "134557.920000", "134559.170000", "134600.420000", "134601.670000", "134602.920000", "134604.170000", "134605.420000", "134606.670000", "134607.920000", "134609.170000", "134610.420000", "134611.670000", "134612.920000", "134614.170000", "134615.420000", "134616.670000", "134617.920000", "134619.170000", "134620.420000", "134621.670000", "134622.920000", "134624.170000", "134625.420000", "134626.670000", "134627.920000", "134629.170000", "134630.420000", "134631.670000", "134632.920000", "134634.170000", "134635.420000", "134636.670000", "134637.920000", "134639.170000", "134640.420000", "134641.670000", "134642.920000", "134644.170000", "134645.420000", "134646.670000", "134647.920000", "134649.170000", "134650.420000", "134651.670000", "134652.920000", "134654.170000", "134655.420000", "134656.670000", "134657.920000", "134659.170000", "134700.420000", "134701.670000", "134702.920000", "134704.170000", "134705.420000", "134706.670000", "134707.920000", "134709.170000", "134710.420000", "134711.670000", "134712.920000", "134714.170000", "134715.420000", "134716.670000", "134717.920000", "134719.170000", "134720.420000", "134721.670000", "134722.920000", "134724.170000", "134725.420000", "134726.670000", "134727.920000", "134729.170000", "134730.420000", "134731.670000", "134732.920000", "134734.170000", "134735.420000", "134736.670000", "134737.920000", "134739.170000", "134740.420000", "134741.670000", "134742.920000", "134744.170000", "134745.420000", "134746.670000", "134747.920000", "134749.170000", "134750.420000", "134751.670000", "134752.920000", "134754.170000", "134755.420000", "134756.670000", "134757.920000", "134759.170000", "134800.420000", "134801.670000", "134802.920000", "134804.170000", "134805.420000", "134806.670000", "134807.920000", "134809.170000", "134810.420000", "134811.670000", "134812.920000", "134814.170000", "134815.420000", "134816.670000", "134817.920000", "134819.170000", "134820.420000", "134821.670000", "134822.920000", "134824.170000", "134825.420000", "134826.670000", "134827.920000", "134829.170000", "134830.420000", "134831.670000", "134832.920000", "134834.170000", "134835.420000", "134836.670000", "134837.920000", "134839.170000", "134840.420000", "134841.670000", "134842.920000", "134844.170000", "134845.420000", "134846.670000", "134847.920000", "134849.170000", "134850.420000", "134851.670000", "134852.920000", "134854.170000", "134855.420000", "134856.670000", "134857.920000", "134859.170000", "134900.420000", "134901.670000", "134902.920000", "134904.170000", "134905.420000", "134906.670000", "134907.920000", "134909.170000", "134910.420000", "134911.670000", "134912.920000", "134914.170000", "134915.420000", "134916.670000", "134917.920000", "134919.170000", "134920.420000", "134921.670000", "134922.920000", "134924.170000", "134925.420000", "134926.670000", "134927.920000", "134929.170000", "134930.420000", "134931.670000", "134932.920000", "134934.170000", "134935.420000", "134936.670000", "134937.920000", "134939.170000", "134940.420000", "134941.670000", "134942.920000", "134944.170000", "134945.420000", "134946.670000", "134947.920000", "134949.170000", "134950.420000", "134951.670000", "134952.920000", "134954.170000", "134955.420000", "134956.670000", "134957.920000", "134959.170000", "135000.420000", "135001.670000", "135002.920000", "135004.170000", "135005.420000", "135006.670000", "135007.920000", "135009.170000", "135010.420000", "135011.670000", "135012.920000", "135014.170000", "135015.420000", "135016.670000", "135017.920000", "135019.170000", "135020.420000", "135021.670000", "135022.920000", "135024.170000", "135025.420000", "135026.670000", "135027.920000", "135029.170000", "135030.420000", "135031.670000", "135032.920000", "135034.170000", "135035.420000", "135036.670000", "135037.920000", "135039.170000", "135040.420000", "135041.670000", "135042.920000", "135044.170000", "135045.420000", "135046.670000", "135047.920000", "135049.170000", "135050.420000", "135051.670000", "135052.920000", "135054.170000", "135055.420000", "135056.670000", "135057.920000", "135059.170000", "135100.420000", "135101.670000", "135102.920000", "135104.170000", "135105.420000", "135106.670000", "135107.920000", "135109.170000", "135110.420000", "135111.670000", "135112.920000", "135114.170000", "135115.420000", "135116.670000", "135117.920000", "135119.170000", "135120.420000", "135121.670000", "135122.920000", "135124.170000", "135125.420000", "135126.670000", "135127.920000", "135129.170000", "135130.420000", "135131.670000", "135132.920000", "135134.170000", "135135.420000", "135136.670000", "135137.920000", "135139.170000", "135140.420000", "135141.670000", "135142.920000", "135144.170000", "135145.420000", "135146.670000"],
      "ContentTime": ["134502.922000", "134503.912000", "134505.147000", "134506.411000", "134507.636000", "134508.940000", "134510.151000", "134511.380000", "134512.625000", "134513.906000", "134515.131000", "134516.396000", "134517.636000", "134518.903000", "134520.137000", "134521.366000", "134522.647000", "134523.878000", "134525.160000", "134526.489000", "134527.633000", "134528.899000", "134530.131000", "134531.413000", "134532.646000", "134533.915000", "134535.144000", "134536.377000", "134537.642000", "134538.912000", "134540.151000", "134541.383000", "134542.619000", "134543.922000", "134545.162000", "134546.413000", "134547.644000", "134548.886000", "134550.110000", "134551.428000", "134552.629000", "134553.887000", "134555.121000", "134556.383000", "134557.672000", "134558.908000", "134600.139000", "134601.386000", "134602.670000", "134603.899000", "134605.133000", "134606.397000", "134607.643000", "134608.894000", "134610.131000", "134611.400000", "134612.652000", "134613.885000", "134615.141000", "134616.388000", "134617.656000", "134618.909000", "134620.127000", "134621.378000", "134622.644000", "134623.904000", "134625.137000", "134626.414000", "134627.628000", "134628.891000", "134630.134000", "134631.403000", "134632.632000", "134633.893000", "134635.135000", "134636.390000", "134637.625000", "134638.909000", "134640.126000", "134641.372000", "134642.672000", "134643.874000", "134645.166000", "134646.389000", "134647.679000", "134648.888000", "134650.142000", "134651.400000", "134652.642000", "134653.879000", "134655.150000", "134656.377000", "134657.629000", "134658.885000", "134700.136000", "134701.381000", "134702.626000", "134703.893000", "134705.149000", "134706.391000", "134707.652000", "134708.910000", "134710.151000", "134711.415000", "134712.648000", "134713.906000", "134715.160000", "134716.428000", "134717.651000", "134718.923000", "134720.154000", "134721.414000", "134722.664000", "134723.923000", "134725.140000", "134726.387000", "134727.659000", "134728.926000", "134730.167000", "134731.408000", "134732.652000", "134733.924000", "134735.214000", "134736.409000", "134737.663000", "134738.922000", "134740.160000", "134741.422000", "134742.643000", "134743.922000", "134745.157000", "134746.408000", "134747.654000", "134748.898000", "134750.166000", "134751.401000", "134752.662000", "134753.907000", "134755.164000", "134756.406000", "134757.659000", "134758.876000", "134800.148000", "134801.407000", "134802.651000", "134803.891000", "134805.152000", "134806.423000", "134807.649000", "134808.898000", "134810.161000", "134811.403000", "134812.660000", "134813.898000", "134815.181000", "134816.418000", "134817.639000", "134818.909000", "134820.160000", "134821.393000", "134822.655000", "134823.913000", "134825.152000", "134826.406000", "134827.652000", "134828.927000", "134830.141000", "134831.405000", "134832.664000", "134833.896000", "134835.168000", "134836.414000", "134837.662000", "134838.913000", "134840.148000", "134841.419000", "134842.649000", "134843.915000", "134845.159000", "134846.394000", "134847.637000", "134848.914000", "134850.221000", "134851.418000", "134852.657000", "134853.916000", "134855.144000", "134856.398000", "134857.653000", "134858.898000", "134900.199000", "134901.400000", "134902.667000", "134903.899000", "134905.160000", "134906.415000", "134907.653000", "134908.939000", "134910.132000", "134911.422000", "134912.649000", "134913.897000", "134915.148000", "134916.385000", "134917.639000", "134918.883000", "134920.168000", "134921.418000", "134922.669000", "134923.909000", "134925.153000", "134926.396000", "134927.655000", "134928.905000", "134930.150000", "134931.395000", "134932.655000", "134933.889000", "134935.143000", "134936.390000", "134937.670000", "134938.894000", "134940.141000", "134941.398000", "134942.667000", "134943.909000", "134945.163000", "134946.396000", "134947.650000", "134948.874000", "134950.130000", "134951.412000", "134952.630000", "134953.876000", "134955.135000", "134956.388000", "134957.667000", "134958.895000", "135000.153000", "135001.411000", "135002.654000", "135003.883000", "135005.145000", "135006.421000", "135007.648000", "135008.923000", "135010.160000", "135011.405000", "135012.642000", "135013.893000", "135015.152000", "135016.395000", "135017.667000", "135018.923000", "135020.147000", "135021.384000", "135022.649000", "135023.904000", "135025.173000", "135026.413000", "135027.643000", "135028.893000", "135030.159000", "135031.421000", "135032.642000", "135033.904000", "135035.138000", "135036.396000", "135037.654000", "135038.914000", "135040.130000", "135041.408000", "135042.645000", "135043.894000", "135045.193000", "135046.414000", "135047.653000", "135048.924000", "135050.168000", "135051.380000", "135052.646000", "135053.905000", "135055.138000", "135056.417000", "135057.638000", "135058.886000", "135100.146000", "135101.397000", "135102.665000", "135103.917000", "135105.125000", "135106.388000", "135107.635000", "135108.866000", "135110.200000", "135111.384000", "135112.661000", "135113.891000", "135115.145000", "135116.396000", "135117.642000", "135118.896000", "135120.138000", "135121.397000", "135122.664000", "135123.902000", "135125.127000", "135126.397000", "135127.660000", "135128.896000", "135130.151000", "135131.395000", "135132.657000", "135133.905000", "135135.163000", "135136.394000", "135137.644000", "135138.896000", "135140.148000", "135141.428000", "135142.652000", "135143.906000", "135145.169000", "135146.397000", "135147.686000"],
      "InstanceCreationTime": ["134502.922000", "134503.912000", "134505.147000", "134506.411000", "134507.636000", "134508.940000", "134510.151000", "134511.380000", "134512.625000", "134513.906000", "134515.131000", "134516.396000", "134517.636000", "134518.903000", "134520.137000", "134521.366000", "134522.647000", "134523.878000", "134525.160000", "134526.489000", "134527.633000", "134528.899000", "134530.131000", "134531.413000", "134532.646000", "134533.915000", "134535.144000", "134536.377000", "134537.642000", "134538.912000", "134540.151000", "134541.383000", "134542.619000", "134543.922000", "134545.162000", "134546.413000", "134547.644000", "134548.886000", "134550.110000", "134551.428000", "134552.629000", "134553.887000", "134555.121000", "134556.383000", "134557.672000", "134558.908000", "134600.139000", "134601.386000", "134602.670000", "134603.899000", "134605.133000", "134606.397000", "134607.643000", "134608.894000", "134610.131000", "134611.400000", "134612.652000", "134613.885000", "134615.141000", "134616.388000", "134617.656000", "134618.909000", "134620.127000", "134621.378000", "134622.644000", "134623.904000", "134625.137000", "134626.414000", "134627.628000", "134628.891000", "134630.134000", "134631.403000", "134632.632000", "134633.893000", "134635.135000", "134636.390000", "134637.625000", "134638.909000", "134640.126000", "134641.372000", "134642.672000", "134643.874000", "134645.166000", "134646.389000", "134647.679000", "134648.888000", "134650.142000", "134651.400000", "134652.642000", "134653.879000", "134655.150000", "134656.377000", "134657.629000", "134658.885000", "134700.136000", "134701.381000", "134702.626000", "134703.893000", "134705.149000", "134706.391000", "134707.652000", "134708.910000", "134710.151000", "134711.415000", "134712.648000", "134713.906000", "134715.160000", "134716.428000", "134717.651000", "134718.923000", "134720.154000", "134721.414000", "134722.664000", "134723.923000", "134725.140000", "134726.387000", "134727.659000", "134728.926000", "134730.167000", "134731.408000", "134732.652000", "134733.924000", "134735.214000", "134736.409000", "134737.663000", "134738.922000", "134740.160000", "134741.422000", "134742.643000", "134743.922000", "134745.157000", "134746.408000", "134747.654000", "134748.898000", "134750.166000", "134751.401000", "134752.662000", "134753.907000", "134755.164000", "134756.406000", "134757.659000", "134758.876000", "134800.148000", "134801.407000", "134802.651000", "134803.891000", "134805.152000", "134806.423000", "134807.649000", "134808.898000", "134810.161000", "134811.403000", "134812.660000", "134813.898000", "134815.181000", "134816.418000", "134817.639000", "134818.909000", "134820.160000", "134821.393000", "134822.655000", "134823.913000", "134825.152000", "134826.406000", "134827.652000", "134828.927000", "134830.141000", "134831.405000", "134832.664000", "134833.896000", "134835.168000", "134836.414000", "134837.662000", "134838.913000", "134840.148000", "134841.419000", "134842.649000", "134843.915000", "134845.159000", "134846.394000", "134847.637000", "134848.914000", "134850.221000", "134851.418000", "134852.657000", "134853.916000", "134855.144000", "134856.398000", "134857.653000", "134858.898000", "134900.199000", "134901.400000", "134902.667000", "134903.899000", "134905.160000", "134906.415000", "134907.653000", "134908.939000", "134910.132000", "134911.422000", "134912.649000", "134913.897000", "134915.148000", "134916.385000", "134917.639000", "134918.883000", "134920.168000", "134921.418000", "134922.669000", "134923.909000", "134925.153000", "134926.396000", "134927.655000", "134928.905000", "134930.150000", "134931.395000", "134932.655000", "134933.889000", "134935.143000", "134936.390000", "134937.670000", "134938.894000", "134940.141000", "134941.398000", "134942.667000", "134943.909000", "134945.163000", "134946.396000", "134947.650000", "134948.874000", "134950.130000", "134951.412000", "134952.630000", "134953.876000", "134955.135000", "134956.388000", "134957.667000", "134958.895000", "135000.153000", "135001.411000", "135002.654000", "135003.883000", "135005.145000", "135006.421000", "135007.648000", "135008.923000", "135010.160000", "135011.405000", "135012.642000", "135013.893000", "135015.152000", "135016.395000", "135017.667000", "135018.923000", "135020.147000", "135021.384000", "135022.649000", "135023.904000", "135025.173000", "135026.413000", "135027.643000", "135028.893000", "135030.159000", "135031.421000", "135032.642000", "135033.904000", "135035.138000", "135036.396000", "135037.654000", "135038.914000", "135040.130000", "135041.408000", "135042.645000", "135043.894000", "135045.193000", "135046.414000", "135047.653000", "135048.924000", "135050.168000", "135051.380000", "135052.646000", "135053.905000", "135055.138000", "135056.417000", "135057.638000", "135058.886000", "135100.146000", "135101.397000", "135102.665000", "135103.917000", "135105.125000", "135106.388000", "135107.635000", "135108.866000", "135110.200000", "135111.384000", "135112.661000", "135113.891000", "135115.145000", "135116.396000", "135117.642000", "135118.896000", "135120.138000", "135121.397000", "135122.664000", "135123.902000", "135125.127000", "135126.397000", "135127.660000", "135128.896000", "135130.151000", "135131.395000", "135132.657000", "135133.905000", "135135.163000", "135136.394000", "135137.644000", "135138.896000", "135140.148000", "135141.428000", "135142.652000", "135143.906000", "135145.169000", "135146.397000", "135147.686000"],
      "InstanceNumber": [1, 2, 3, 4, 5, 6, 7, 8, 9, 10, 11, 12, 13, 14, 15, 16, 17, 18, 19, 20, 21, 22, 23, 24, 25, 26, 27, 28, 29, 30, 31, 32, 33, 34, 35, 36, 37, 38, 39, 40, 41, 42, 43, 44, 45, 46, 47, 48, 49, 50, 51, 52, 53, 54, 55, 56, 57, 58, 59, 60, 61, 62, 63, 64, 65, 66, 67, 68, 69, 70, 71, 72, 73, 74, 75, 76, 77, 78, 79, 80, 81, 82, 83, 84, 85, 86, 87, 88, 89, 90, 91, 92, 93, 94, 95, 96, 97, 98, 99, 100, 101, 102, 103, 104, 105, 106, 107, 108, 109, 110, 111, 112, 113, 114, 115, 116, 117, 118, 119, 120, 121, 122, 123, 124, 125, 126, 127, 128, 129, 130, 131, 132, 133, 134, 135, 136, 137, 138, 139, 140, 141, 142, 143, 144, 145, 146, 147, 148, 149, 150, 151, 152, 153, 154, 155, 156, 157, 158, 159, 160, 161, 162, 163, 164, 165, 166, 167, 168, 169, 170, 171, 172, 173, 174, 175, 176, 177, 178, 179, 180, 181, 182, 183, 184, 185, 186, 187, 188, 189, 190, 191, 192, 193, 194, 195, 196, 197, 198, 199, 200, 201, 202, 203, 204, 205, 206, 207, 208, 209, 210, 211, 212, 213, 214, 215, 216, 217, 218, 219, 220, 221, 222, 223, 224, 225, 226, 227, 228, 229, 230, 231, 232, 233, 234, 235, 236, 237, 238, 239, 240, 241, 242, 243, 244, 245, 246, 247, 248, 249, 250, 251, 252, 253, 254, 255, 256, 257, 258, 259, 260, 261, 262, 263, 264, 265, 266, 267, 268, 269, 270, 271, 272, 273, 274, 275, 276, 277, 278, 279, 280, 281, 282, 283, 284, 285, 286, 287, 288, 289, 290, 291, 292, 293, 294, 295, 296, 297, 298, 299, 300, 301, 302, 303, 304, 305, 306, 307, 308, 309, 310, 311, 312, 313, 314, 315, 316, 317, 318, 319, 320, 321, 322, 323, 324, 325],
      "LargestImagePixelValue": [817, 869, 872, 928, 832, 892, 826, 844, 743, 712, 638, 655, 721, 1005, 899, 805, 760, 765, 709, 864, 871, 916, 917, 865, 866, 878, 866, 847, 754, 788, 740, 795, 714, 849, 836, 886, 842, 854, 753, 777, 740, 667, 719, 722, 755, 836, 1144, 1060, 873, 842, 761, 713, 677, 668, 815, 1202, 852, 775, 765, 758, 674, 821, 1015, 1105, 867, 820, 772, 781, 806, 677, 766, 791, 965, 941, 866, 800, 792, 788, 806, 855, 932, 838, 829, 1098, 1097, 986, 958, 807, 767, 800, 835, 799, 783, 755, 702, 650, 666, 677, 971, 1149, 863, 814, 842, 747, 791, 831, 818, 758, 867, 731, 713, 642, 683, 728, 865, 894, 1051, 916, 860, 896, 873, 718, 667, 654, 822, 1186, 894, 893, 664, 745, 1033, 918, 788, 810, 1040, 937, 779, 731, 683, 892, 1133, 804, 873, 1016, 965, 819, 830, 681, 948, 946, 864, 781, 726, 743, 780, 1133, 863, 820, 1041, 947, 773, 685, 815, 1082, 844, 690, 1036, 918, 839, 697, 918, 909, 858, 809, 820, 1106, 865, 781, 760, 909, 957, 800, 1095, 890, 812, 656, 791, 1051, 805, 791, 1053, 873, 830, 678, 632, 725, 822, 1043, 1030, 936, 831, 876, 678, 798, 902, 958, 819, 830, 819, 765, 780, 840, 787, 1078, 951, 825, 885, 791, 891, 836, 1045, 1060, 935, 887, 716, 683, 633, 660, 632, 661, 844, 1029, 880, 888, 795, 905, 855, 815, 977, 770, 860, 799, 771, 829, 636, 638, 637, 803, 686, 687, 636, 770, 889, 933, 994, 1139, 968, 857, 818, 778, 833, 780, 678, 944, 851, 844, 840, 790, 810, 803, 847, 845, 1107, 986, 916, 823, 807, 903, 747, 999, 926, 992, 840, 842, 831, 813, 789, 824, 684, 735, 693, 856, 810, 855, 940, 791, 880, 684, 827, 864, 1027, 854, 826, 760, 746, 664, 906, 779, 889, 841, 926, 966, 771, 868, 780, 659, 934, 663, 981, 774, 977, 784, 794, 720, 646],
      "WindowCenter": [333.0, 333.0, 332.0, 332.0, 331.0, 331.0, 331.0, 331.0, 329.0, 329.0, 327.0, 328.0, 329.0, 333.0, 331.0, 330.0, 330.0, 330.0, 329.0, 331.0, 331.0, 332.0, 332.0, 331.0, 331.0, 331.0, 331.0, 330.0, 330.0, 330.0, 329.0, 330.0, 328.0, 330.0, 330.0, 330.0, 330.0, 331.0, 330.0, 330.0, 329.0, 328.0, 329.0, 329.0, 330.0, 331.0, 334.0, 332.0, 330.0, 329.0, 329.0, 328.0, 328.0, 328.0, 331.0, 334.0, 331.0, 329.0, 330.0, 330.0, 329.0, 331.0, 333.0, 333.0, 331.0, 330.0, 329.0, 330.0, 330.0, 328.0, 329.0, 329.0, 331.0, 331.0, 331.0, 330.0, 331.0, 331.0, 331.0, 331.0, 332.0, 331.0, 330.0, 333.0, 332.0, 331.0, 330.0, 329.0, 329.0, 329.0, 330.0, 329.0, 329.0, 328.0, 328.0, 328.0, 328.0, 328.0, 332.0, 333.0, 330.0, 330.0, 330.0, 329.0, 329.0, 331.0, 330.0, 330.0, 331.0, 329.0, 328.0, 327.0, 328.0, 330.0, 332.0, 332.0, 333.0, 331.0, 331.0, 331.0, 330.0, 328.0, 327.0, 328.0, 331.0, 334.0, 331.0, 330.0, 327.0, 329.0, 332.0, 331.0, 330.0, 331.0, 332.0, 331.0, 329.0, 329.0, 328.0, 332.0, 334.0, 330.0, 331.0, 332.0, 331.0, 330.0, 331.0, 329.0, 332.0, 332.0, 331.0, 330.0, 330.0, 330.0, 331.0, 334.0, 331.0, 330.0, 332.0, 331.0, 329.0, 329.0, 331.0, 333.0, 331.0, 329.0, 332.0, 331.0, 331.0, 328.0, 331.0, 332.0, 331.0, 331.0, 330.0, 332.0, 330.0, 330.0, 329.0, 332.0, 332.0, 330.0, 332.0, 330.0, 330.0, 328.0, 330.0, 332.0, 330.0, 329.0, 332.0, 331.0, 331.0, 328.0, 328.0, 330.0, 331.0, 332.0, 333.0, 331.0, 330.0, 330.0, 327.0, 329.0, 331.0, 332.0, 330.0, 331.0, 330.0, 329.0, 330.0, 331.0, 331.0, 335.0, 332.0, 331.0, 331.0, 331.0, 331.0, 331.0, 332.0, 332.0, 331.0, 330.0, 327.0, 327.0, 327.0, 328.0, 328.0, 328.0, 331.0, 332.0, 331.0, 331.0, 330.0, 331.0, 331.0, 331.0, 332.0, 329.0, 331.0, 329.0, 329.0, 330.0, 328.0, 328.0, 328.0, 330.0, 328.0, 328.0, 328.0, 330.0, 332.0, 332.0, 332.0, 333.0, 330.0, 331.0, 330.0, 331.0, 331.0, 331.0, 330.0, 332.0, 331.0, 331.0, 331.0, 332.0, 332.0, 332.0, 332.0, 331.0, 334.0, 332.0, 332.0, 331.0, 331.0, 331.0, 329.0, 332.0, 331.0, 332.0, 331.0, 331.0, 331.0, 331.0, 330.0, 331.0, 329.0, 330.0, 330.0, 332.0, 331.0, 332.0, 332.0, 330.0, 331.0, 328.0, 330.0, 331.0, 332.0, 331.0, 330.0, 329.0, 329.0, 328.0, 331.0, 329.0, 331.0, 331.0, 332.0, 332.0, 329.0, 330.0, 329.0, 327.0, 331.0, 327.0, 331.0, 329.0, 331.0, 329.0, 330.0, 329.0, 328.0],
