{
  "AcquisitionMatrixPE": 96,
  "AcquisitionNumber": 1,
  "AcquisitionTime": "13:12:52.322500",
  "BandwidthPerPixelPhaseEncode": 18.939,
  "BaseResolution": 96,
  "BodyPartExamined": "BRAIN",
  "ConsistencyInfo": "N4_VE11C_LATEST_20160120",
  "ConversionSoftware": "dcm2niix",
  "ConversionSoftwareVersion": "v1.0.20170923 (OpenJPEG build) GCC6.3.0",
  "DerivedVendorReportedEchoSpacing": 0.000550011,
  "DeviceSerialNumber": "66112",
  "DwellTime": 2.3e-06,
  "EchoTime": 0.033,
  "EchoTrainLength": 96,
  "EffectiveEchoSpacing": 0.000550011,
  "FlipAngle": 64,
  "ImageType": [
    "ORIGINAL",
    "PRIMARY",
    "FMRI",
    "NONE",
    "ND",
    "NORM",
    "MOSAIC"
],
  "InstitutionAddress": "Maynard_3_Hanover_NH_US_03755",
  "InstitutionName": "Dartmouth_College_-_PBS",
  "MagneticFieldStrength": 3,
  "Manufacturer": "Siemens",
  "ManufacturersModelName": "Prisma",
  "Modality": "MR",
  "MultibandAccelerationFactor": 4,
  "PartialFourier": 1,
  "PercentPhaseFOV": 100,
  "PhaseEncodingDirection": "j-",
  "PhaseEncodingSteps": 96,
  "PhaseResolution": 1,
  "ProcedureStepDescription": "Gobbini_Matteo_1017_famface-angles",
  "ProtocolName": "func_run-01_task-str1back",
  "PulseSequenceDetails": "%SiemensSeq%_ep2d_bold",
  "ReceiveCoilActiveElements": "HEA;HEP",
  "ReceiveCoilName": "Head_32",
  "ReconMatrixPE": 96,
  "RepetitionTime": 1.25,
  "ScanOptions": "FS",
  "ScanningSequence": "EP",
  "SequenceName": "_epfid2d1_96",
  "SequenceVariant": "SK",
  "SeriesDescription": "func_run-01_task-str1back",
  "SliceTiming": [0.88, 0, 0.615, 0.0875, 0.7025, 0.175, 0.79, 0.3525, 0.9675, 0.44, 1.055, 0.5275, 1.1425, 0.265, 0.88, 0, 0.615, 0.0875, 0.7025, 0.175, 0.79, 0.3525, 0.9675, 0.44, 1.055, 0.5275, 1.1425, 0.265, 0.88, 0, 0.615, 0.0875, 0.7025, 0.175, 0.79, 0.3525, 0.9675, 0.44, 1.055, 0.5275, 1.1425, 0.265, 0.88, 0, 0.615, 0.0875, 0.7025, 0.175, 0.79, 0.3525, 0.9675, 0.44, 1.055, 0.5275, 1.1425, 0.265],
  "SoftwareVersions": "syngo_MR_E11",
  "StationName": "AWP66112",
  "TaskName": "str1back",
  "TotalReadoutTime": 0.0522511,
  "dcmmeta_affine": [
    [-2.5, 0.0, 6.0574999877216484e-12, 120.0],
    [0.0, 2.5, 7.859999977266607e-12, -102.13999938964844],
    [6.0574999877216484e-12, -7.859999977266607e-12, 2.5, -84.75],
    [0.0, 0.0, 0.0, 1.0]
],
  "dcmmeta_reorient_transform": [
    [0.0, -1.0, 0.0, 95.0],
    [1.0, 0.0, 0.0, 0.0],
    [0.0, 0.0, 1.0, 0.0],
    [0.0, 0.0, 0.0, 1.0]
],
  "dcmmeta_shape": [96, 96, 56, 280],
  "dcmmeta_slice_dim": 2,
  "dcmmeta_version": 0.6,
  "global": {
    "const": {
      "AccessionNumber": "A000642",
      "AcquisitionMatrix": [96, 0, 0, 96],
      "AngioFlag": "N",
      "BitsAllocated": 16,
      "BitsStored": 12,
      "BodyPartExamined": "BRAIN",
      "Columns": 768,
      "EchoNumbers": 1,
      "EchoTime": 33.0,
      "EchoTrainLength": 96,
      "FlipAngle": 64.0,
      "HighBit": 11,
      "ImageOrientationPatient": [1.0, 0.0, 2.423e-12, 0.0, 1.0, 3.144e-12],
      "ImagePositionPatient": [-959.99999999983, -975.36000061035, -84.750000005344],
      "ImageType": [
        "ORIGINAL",
        "PRIMARY",
        "FMRI",
        "NONE",
        "ND",
        "NORM",
        "MOSAIC"
],
      "ImagedNucleus": "1H",
      "ImagingFrequency": 123.252305,
      "InPlanePhaseEncodingDirection": "COL",
      "MRAcquisitionType": "2D",
      "MagneticFieldStrength": 3.0,
      "Manufacturer": "SIEMENS",
      "ManufacturerModelName": "Prisma",
      "Modality": "MR",
      "NumberOfAverages": 1.0,
      "NumberOfPhaseEncodingSteps": 96,
      "PercentPhaseFieldOfView": 100.0,
      "PercentSampling": 100.0,
      "PerformedProcedureStepStartTime": "125927.241000",
      "PhotometricInterpretation": "MONOCHROME2",
      "PixelBandwidth": 2265.0,
      "PixelRepresentation": 0,
      "PixelSpacing": [2.5, 2.5],
      "PositionReferenceIndicator": "",
      "ProtocolName": "func_run-01_task-str1back",
      "RepetitionTime": 1250.0,
      "Rows": 768,
      "SAR": 0.06428351136128,
      "SamplesPerPixel": 1,
      "ScanOptions": "FS",
      "ScanningSequence": "EP",
      "SequenceName": "*epfid2d1_96",
      "SequenceVariant": "SK",
      "SeriesDescription": "func_run-01_task-str1back",
      "SeriesNumber": 8,
      "SeriesTime": "131253.823000",
      "SliceLocation": -84.749999999952,
      "SliceThickness": 2.5,
      "SmallestImagePixelValue": 0,
      "SoftwareVersions": "syngo MR E11",
      "SpacingBetweenSlices": 2.5,
      "SpecificCharacterSet": "ISO_IR 100",
      "StudyID": "2",
      "StudyTime": "125927.189000",
      "TransmitCoilName": "Body",
      "VariableFlipAngleFlag": "N",
      "WindowCenterWidthExplanation": "Algo1",
      "dBdt": 0.0},
    "slices": {}
  },
  "time": {
    "samples": {
      "AcquisitionNumber": [1, 2, 3, 4, 5, 6, 7, 8, 9, 10, 11, 12, 13, 14, 15, 16, 17, 18, 19, 20, 21, 22, 23, 24, 25, 26, 27, 28, 29, 30, 31, 32, 33, 34, 35, 36, 37, 38, 39, 40, 41, 42, 43, 44, 45, 46, 47, 48, 49, 50, 51, 52, 53, 54, 55, 56, 57, 58, 59, 60, 61, 62, 63, 64, 65, 66, 67, 68, 69, 70, 71, 72, 73, 74, 75, 76, 77, 78, 79, 80, 81, 82, 83, 84, 85, 86, 87, 88, 89, 90, 91, 92, 93, 94, 95, 96, 97, 98, 99, 100, 101, 102, 103, 104, 105, 106, 107, 108, 109, 110, 111, 112, 113, 114, 115, 116, 117, 118, 119, 120, 121, 122, 123, 124, 125, 126, 127, 128, 129, 130, 131, 132, 133, 134, 135, 136, 137, 138, 139, 140, 141, 142, 143, 144, 145, 146, 147, 148, 149, 150, 151, 152, 153, 154, 155, 156, 157, 158, 159, 160, 161, 162, 163, 164, 165, 166, 167, 168, 169, 170, 171, 172, 173, 174, 175, 176, 177, 178, 179, 180, 181, 182, 183, 184, 185, 186, 187, 188, 189, 190, 191, 192, 193, 194, 195, 196, 197, 198, 199, 200, 201, 202, 203, 204, 205, 206, 207, 208, 209, 210, 211, 212, 213, 214, 215, 216, 217, 218, 219, 220, 221, 222, 223, 224, 225, 226, 227, 228, 229, 230, 231, 232, 233, 234, 235, 236, 237, 238, 239, 240, 241, 242, 243, 244, 245, 246, 247, 248, 249, 250, 251, 252, 253, 254, 255, 256, 257, 258, 259, 260, 261, 262, 263, 264, 265, 266, 267, 268, 269, 270, 271, 272, 273, 274, 275, 276, 277, 278, 279, 280],
      "AcquisitionTime": ["131252.322500", "131253.572500", "131254.822500", "131256.072500", "131257.322500", "131258.572500", "131259.822500", "131301.072500", "131302.322500", "131303.572500", "131304.822500", "131306.072500", "131307.322500", "131308.572500", "131309.822500", "131311.072500", "131312.322500", "131313.572500", "131314.822500", "131316.072500", "131317.322500", "131318.572500", "131319.822500", "131321.072500", "131322.322500", "131323.572500", "131324.822500", "131326.072500", "131327.322500", "131328.572500", "131329.822500", "131331.072500", "131332.322500", "131333.572500", "131334.822500", "131336.072500", "131337.322500", "131338.572500", "131339.822500", "131341.072500", "131342.322500", "131343.572500", "131344.822500", "131346.072500", "131347.322500", "131348.572500", "131349.822500", "131351.072500", "131352.322500", "131353.572500", "131354.822500", "131356.072500", "131357.322500", "131358.572500", "131359.822500", "131401.072500", "131402.322500", "131403.572500", "131404.822500", "131406.072500", "131407.322500", "131408.572500", "131409.822500", "131411.072500", "131412.322500", "131413.572500", "131414.822500", "131416.072500", "131417.322500", "131418.572500", "131419.822500", "131421.072500", "131422.322500", "131423.572500", "131424.822500", "131426.072500", "131427.322500", "131428.572500", "131429.822500", "131431.072500", "131432.322500", "131433.572500", "131434.822500", "131436.072500", "131437.322500", "131438.572500", "131439.822500", "131441.072500", "131442.322500", "131443.572500", "131444.822500", "131446.072500", "131447.322500", "131448.572500", "131449.822500", "131451.072500", "131452.322500", "131453.572500", "131454.822500", "131456.072500", "131457.322500", "131458.572500", "131459.822500", "131501.072500", "131502.322500", "131503.572500", "131504.822500", "131506.072500", "131507.322500", "131508.572500", "131509.822500", "131511.072500", "131512.322500", "131513.572500", "131514.822500", "131516.072500", "131517.322500", "131518.572500", "131519.822500", "131521.072500", "131522.322500", "131523.572500", "131524.822500", "131526.072500", "131527.322500", "131528.572500", "131529.822500", "131531.072500", "131532.322500", "131533.572500", "131534.822500", "131536.072500", "131537.322500", "131538.572500", "131539.822500", "131541.072500", "131542.322500", "131543.572500", "131544.822500", "131546.072500", "131547.322500", "131548.572500", "131549.822500", "131551.072500", "131552.322500", "131553.572500", "131554.822500", "131556.072500", "131557.322500", "131558.572500", "131559.822500", "131601.072500", "131602.322500", "131603.572500", "131604.822500", "131606.072500", "131607.322500", "131608.572500", "131609.822500", "131611.072500", "131612.322500", "131613.572500", "131614.822500", "131616.072500", "131617.322500", "131618.572500", "131619.822500", "131621.072500", "131622.322500", "131623.572500", "131624.822500", "131626.072500", "131627.322500", "131628.572500", "131629.822500", "131631.072500", "131632.322500", "131633.572500", "131634.822500", "131636.072500", "131637.322500", "131638.572500", "131639.822500", "131641.072500", "131642.322500", "131643.572500", "131644.822500", "131646.072500", "131647.322500", "131648.572500", "131649.822500", "131651.072500", "131652.322500", "131653.572500", "131654.822500", "131656.072500", "131657.322500", "131658.572500", "131659.822500", "131701.072500", "131702.322500", "131703.572500", "131704.822500", "131706.072500", "131707.322500", "131708.572500", "131709.822500", "131711.072500", "131712.322500", "131713.572500", "131714.822500", "131716.072500", "131717.322500", "131718.572500", "131719.822500", "131721.072500", "131722.322500", "131723.572500", "131724.822500", "131726.072500", "131727.322500", "131728.572500", "131729.822500", "131731.072500", "131732.322500", "131733.572500", "131734.822500", "131736.072500", "131737.322500", "131738.572500", "131739.822500", "131741.072500", "131742.322500", "131743.572500", "131744.822500", "131746.072500", "131747.322500", "131748.572500", "131749.822500", "131751.072500", "131752.322500", "131753.572500", "131754.822500", "131756.072500", "131757.322500", "131758.572500", "131759.822500", "131801.072500", "131802.322500", "131803.572500", "131804.822500", "131806.072500", "131807.322500", "131808.572500", "131809.822500", "131811.072500", "131812.322500", "131813.572500", "131814.822500", "131816.072500", "131817.322500", "131818.572500", "131819.822500", "131821.072500", "131822.322500", "131823.572500", "131824.822500", "131826.072500", "131827.322500", "131828.572500", "131829.822500", "131831.072500", "131832.322500", "131833.572500", "131834.822500", "131836.072500", "131837.322500", "131838.572500", "131839.822500", "131841.072500"],
      "ContentTime": ["131253.827000", "131254.881000", "131256.122000", "131257.380000", "131258.628000", "131259.869000", "131301.126000", "131302.390000", "131303.645000", "131304.857000", "131306.132000", "131307.333000", "131308.641000", "131309.900000", "131311.124000", "131312.378000", "131313.608000", "131314.888000", "131316.128000", "131317.379000", "131318.643000", "131319.873000", "131321.152000", "131322.391000", "131323.655000", "131324.905000", "131326.136000", "131327.380000", "131328.634000", "131329.879000", "131331.135000", "131332.381000", "131333.627000", "131334.872000", "131336.131000", "131337.433000", "131338.611000", "131339.885000", "131341.128000", "131342.374000", "131343.620000", "131344.870000", "131346.103000", "131347.365000", "131348.624000", "131349.858000", "131351.138000", "131352.385000", "131353.615000", "131354.878000", "131356.121000", "131357.350000", "131358.631000", "131359.875000", "131401.124000", "131402.377000", "131403.608000", "131404.886000", "131406.102000", "131407.389000", "131408.651000", "131409.913000", "131411.154000", "131412.359000", "131413.638000", "131414.863000", "131416.118000", "131417.388000", "131418.616000", "131419.869000", "131421.129000", "131422.370000", "131423.694000", "131424.885000", "131426.109000", "131427.366000", "131428.626000", "131429.938000", "131431.137000", "131432.370000", "131433.623000", "131434.875000", "131436.105000", "131437.375000", "131438.651000", "131439.866000", "131441.119000", "131442.396000", "131443.619000", "131444.875000", "131446.114000", "131447.394000", "131448.622000", "131449.880000", "131451.146000", "131452.373000", "131453.613000", "131454.863000", "131456.143000", "131457.354000", "131458.612000", "131459.867000", "131501.138000", "131502.370000", "131503.620000", "131504.883000", "131506.133000", "131507.377000", "131508.624000", "131509.932000", "131511.154000", "131512.380000", "131513.648000", "131514.903000", "131516.119000", "131517.390000", "131518.655000", "131519.888000", "131521.127000", "131522.400000", "131523.648000", "131524.877000", "131526.133000", "131527.381000", "131528.651000", "131529.876000", "131531.146000", "131532.397000", "131533.638000", "131534.878000", "131536.151000", "131537.376000", "131538.650000", "131539.901000", "131541.143000", "131542.389000", "131543.659000", "131544.890000", "131546.125000", "131547.383000", "131548.643000", "131549.880000", "131551.139000", "131552.397000", "131553.640000", "131554.875000", "131556.148000", "131557.389000", "131558.644000", "131559.887000", "131601.135000", "131602.407000", "131603.659000", "131604.908000", "131606.133000", "131607.380000", "131608.613000", "131609.937000", "131611.126000", "131612.380000", "131613.647000", "131614.894000", "131616.142000", "131617.377000", "131618.629000", "131619.909000", "131621.088000", "131622.375000", "131623.643000", "131624.878000", "131626.162000", "131627.381000", "131628.635000", "131629.919000", "131631.143000", "131632.397000", "131633.640000", "131634.878000", "131636.144000", "131637.382000", "131638.650000", "131639.884000", "131641.144000", "131642.396000", "131643.673000", "131644.875000", "131646.164000", "131647.393000", "131648.628000", "131649.893000", "131651.126000", "131652.381000", "131653.626000", "131654.914000", "131656.133000", "131657.382000", "131658.682000", "131659.886000", "131701.118000", "131702.385000", "131703.630000", "131704.887000", "131706.139000", "131707.376000", "131708.613000", "131709.897000", "131711.107000", "131712.379000", "131713.621000", "131714.877000", "131716.128000", "131717.338000", "131718.628000", "131719.894000", "131721.138000", "131722.368000", "131723.617000", "131724.877000", "131726.130000", "131727.388000", "131728.628000", "131729.891000", "131731.149000", "131732.380000", "131733.643000", "131734.882000", "131736.127000", "131737.378000", "131738.627000", "131739.873000", "131741.128000", "131742.392000", "131743.635000", "131744.891000", "131746.181000", "131747.404000", "131748.659000", "131749.863000", "131751.142000", "131752.378000", "131753.645000", "131754.870000", "131756.117000", "131757.406000", "131758.670000", "131759.899000", "131801.127000", "131802.382000", "131803.635000", "131804.896000", "131806.155000", "131807.396000", "131808.659000", "131809.867000", "131811.146000", "131812.413000", "131813.629000", "131814.873000", "131816.106000", "131817.368000", "131818.699000", "131819.883000", "131821.142000", "131822.388000", "131823.628000", "131824.888000", "131826.134000", "131827.371000", "131828.636000", "131829.891000", "131831.148000", "131832.399000", "131833.641000", "131834.873000", "131836.132000", "131837.379000", "131838.648000", "131839.898000", "131841.134000", "131842.415000"],
      "InstanceCreationTime": ["131253.827000", "131254.881000", "131256.122000", "131257.380000", "131258.628000", "131259.869000", "131301.126000", "131302.390000", "131303.645000", "131304.857000", "131306.132000", "131307.333000", "131308.641000", "131309.900000", "131311.124000", "131312.378000", "131313.608000", "131314.888000", "131316.128000", "131317.379000", "131318.643000", "131319.873000", "131321.152000", "131322.391000", "131323.655000", "131324.905000", "131326.136000", "131327.380000", "131328.634000", "131329.879000", "131331.135000", "131332.381000", "131333.627000", "131334.872000", "131336.131000", "131337.433000", "131338.611000", "131339.885000", "131341.128000", "131342.374000", "131343.620000", "131344.870000", "131346.103000", "131347.365000", "131348.624000", "131349.858000", "131351.138000", "131352.385000", "131353.615000", "131354.878000", "131356.121000", "131357.350000", "131358.631000", "131359.875000", "131401.124000", "131402.377000", "131403.608000", "131404.886000", "131406.102000", "131407.389000", "131408.651000", "131409.913000", "131411.154000", "131412.359000", "131413.638000", "131414.863000", "131416.118000", "131417.388000", "131418.616000", "131419.869000", "131421.129000", "131422.370000", "131423.694000", "131424.885000", "131426.109000", "131427.366000", "131428.626000", "131429.938000", "131431.137000", "131432.370000", "131433.623000", "131434.875000", "131436.105000", "131437.375000", "131438.651000", "131439.866000", "131441.119000", "131442.396000", "131443.619000", "131444.875000", "131446.114000", "131447.394000", "131448.622000", "131449.880000", "131451.146000", "131452.373000", "131453.613000", "131454.863000", "131456.143000", "131457.354000", "131458.612000", "131459.867000", "131501.138000", "131502.370000", "131503.620000", "131504.883000", "131506.133000", "131507.377000", "131508.624000", "131509.932000", "131511.154000", "131512.380000", "131513.648000", "131514.903000", "131516.119000", "131517.390000", "131518.655000", "131519.888000", "131521.127000", "131522.400000", "131523.648000", "131524.877000", "131526.133000", "131527.381000", "131528.651000", "131529.876000", "131531.146000", "131532.397000", "131533.638000", "131534.878000", "131536.151000", "131537.376000", "131538.650000", "131539.901000", "131541.143000", "131542.389000", "131543.659000", "131544.890000", "131546.125000", "131547.383000", "131548.643000", "131549.880000", "131551.139000", "131552.397000", "131553.640000", "131554.875000", "131556.148000", "131557.389000", "131558.644000", "131559.887000", "131601.135000", "131602.407000", "131603.659000", "131604.908000", "131606.133000", "131607.380000", "131608.613000", "131609.937000", "131611.126000", "131612.380000", "131613.647000", "131614.894000", "131616.142000", "131617.377000", "131618.629000", "131619.909000", "131621.088000", "131622.375000", "131623.643000", "131624.878000", "131626.162000", "131627.381000", "131628.635000", "131629.919000", "131631.143000", "131632.397000", "131633.640000", "131634.878000", "131636.144000", "131637.382000", "131638.650000", "131639.884000", "131641.144000", "131642.396000", "131643.673000", "131644.875000", "131646.164000", "131647.393000", "131648.628000", "131649.893000", "131651.126000", "131652.381000", "131653.626000", "131654.914000", "131656.133000", "131657.382000", "131658.682000", "131659.886000", "131701.118000", "131702.385000", "131703.630000", "131704.887000", "131706.139000", "131707.376000", "131708.613000", "131709.897000", "131711.107000", "131712.379000", "131713.621000", "131714.877000", "131716.128000", "131717.338000", "131718.628000", "131719.894000", "131721.138000", "131722.368000", "131723.617000", "131724.877000", "131726.130000", "131727.388000", "131728.628000", "131729.891000", "131731.149000", "131732.380000", "131733.643000", "131734.882000", "131736.127000", "131737.378000", "131738.627000", "131739.873000", "131741.128000", "131742.392000", "131743.635000", "131744.891000", "131746.181000", "131747.404000", "131748.659000", "131749.863000", "131751.142000", "131752.378000", "131753.645000", "131754.870000", "131756.117000", "131757.406000", "131758.670000", "131759.899000", "131801.127000", "131802.382000", "131803.635000", "131804.896000", "131806.155000", "131807.396000", "131808.659000", "131809.867000", "131811.146000", "131812.413000", "131813.629000", "131814.873000", "131816.106000", "131817.368000", "131818.699000", "131819.883000", "131821.142000", "131822.388000", "131823.628000", "131824.888000", "131826.134000", "131827.371000", "131828.636000", "131829.891000", "131831.148000", "131832.399000", "131833.641000", "131834.873000", "131836.132000", "131837.379000", "131838.648000", "131839.898000", "131841.134000", "131842.415000"],
      "InstanceNumber": [1, 2, 3, 4, 5, 6, 7, 8, 9, 10, 11, 12, 13, 14, 15, 16, 17, 18, 19, 20, 21, 22, 23, 24, 25, 26, 27, 28, 29, 30, 31, 32, 33, 34, 35, 36, 37, 38, 39, 40, 41, 42, 43, 44, 45, 46, 47, 48, 49, 50, 51, 52, 53, 54, 55, 56, 57, 58, 59, 60, 61, 62, 63, 64, 65, 66, 67, 68, 69, 70, 71, 72, 73, 74, 75, 76, 77, 78, 79, 80, 81, 82, 83, 84, 85, 86, 87, 88, 89, 90, 91, 92, 93, 94, 95, 96, 97, 98, 99, 100, 101, 102, 103, 104, 105, 106, 107, 108, 109, 110, 111, 112, 113, 114, 115, 116, 117, 118, 119, 120, 121, 122, 123, 124, 125, 126, 127, 128, 129, 130, 131, 132, 133, 134, 135, 136, 137, 138, 139, 140, 141, 142, 143, 144, 145, 146, 147, 148, 149, 150, 151, 152, 153, 154, 155, 156, 157, 158, 159, 160, 161, 162, 163, 164, 165, 166, 167, 168, 169, 170, 171, 172, 173, 174, 175, 176, 177, 178, 179, 180, 181, 182, 183, 184, 185, 186, 187, 188, 189, 190, 191, 192, 193, 194, 195, 196, 197, 198, 199, 200, 201, 202, 203, 204, 205, 206, 207, 208, 209, 210, 211, 212, 213, 214, 215, 216, 217, 218, 219, 220, 221, 222, 223, 224, 225, 226, 227, 228, 229, 230, 231, 232, 233, 234, 235, 236, 237, 238, 239, 240, 241, 242, 243, 244, 245, 246, 247, 248, 249, 250, 251, 252, 253, 254, 255, 256, 257, 258, 259, 260, 261, 262, 263, 264, 265, 266, 267, 268, 269, 270, 271, 272, 273, 274, 275, 276, 277, 278, 279, 280],
      "LargestImagePixelValue": [1014, 1084, 771, 650, 844, 933, 1054, 973, 739, 688, 645, 874, 948, 781, 687, 933, 720, 657, 662, 748, 945, 719, 657, 675, 676, 686, 697, 880, 1009, 1009, 842, 659, 664, 713, 896, 1013, 926, 986, 882, 738, 656, 702, 776, 765, 1054, 856, 923, 749, 724, 828, 719, 721, 755, 649, 759, 680, 807, 687, 884, 957, 771, 711, 686, 670, 952, 830, 957, 743, 672, 645, 668, 921, 908, 836, 756, 660, 929, 851, 669, 741, 718, 1009, 911, 756, 694, 652, 712, 907, 901, 1015, 791, 648, 691, 724, 856, 789, 751, 915, 657, 667, 736, 707, 784, 754, 812, 849, 657, 679, 703, 874, 911, 879, 911, 721, 648, 731, 935, 895, 943, 691, 663, 752, 805, 997, 816, 932, 710, 674, 878, 751, 754, 772, 714, 997, 753, 817, 683, 663, 865, 681, 893, 854, 663, 715, 731, 919, 690, 756, 663, 667, 880, 859, 1019, 817, 667, 697, 754, 829, 753, 672, 980, 812, 668, 664, 686, 845, 1018, 904, 845, 656, 664, 778, 877, 821, 701, 655, 804, 813, 839, 674, 661, 982, 868, 785, 750, 884, 658, 664, 649, 722, 927, 726, 1004, 924, 988, 770, 655, 795, 747, 961, 1004, 953, 690, 649, 658, 821, 841, 1011, 1030, 844, 696, 650, 655, 884, 880, 913, 823, 830, 730, 650, 828, 655, 663, 684, 949, 875, 945, 689, 660, 667, 673, 666, 659, 774, 821, 910, 772, 778, 685, 665, 853, 840, 1004, 1053, 887, 655, 661, 807, 775, 972, 846, 924, 763, 658, 708, 664, 662, 665, 665, 664, 864, 865, 992, 895, 709, 669, 720, 673, 909, 781, 959, 876, 676, 692, 736, 773, 764, 900, 821, 757],
      "WindowCenter": [332.0, 332.0, 329.0, 327.0, 330.0, 330.0, 331.0, 330.0, 327.0, 326.0, 326.0, 330.0, 330.0, 327.0, 326.0, 329.0, 327.0, 326.0, 327.0, 329.0, 330.0, 327.0, 326.0, 327.0, 327.0, 328.0, 328.0, 330.0, 330.0, 330.0, 328.0, 326.0, 327.0, 328.0, 330.0, 331.0, 330.0, 330.0, 329.0, 327.0, 327.0, 328.0, 329.0, 329.0, 330.0, 328.0, 328.0, 327.0, 327.0, 329.0, 327.0, 328.0, 328.0, 326.0, 328.0, 327.0, 328.0, 327.0, 329.0, 330.0, 328.0, 327.0, 327.0, 327.0, 330.0, 328.0, 330.0, 328.0, 327.0, 326.0, 327.0, 330.0, 330.0, 328.0, 328.0, 326.0, 330.0, 329.0, 326.0, 328.0, 327.0, 330.0, 329.0, 327.0, 327.0, 327.0, 327.0, 329.0, 329.0, 330.0, 328.0, 326.0, 327.0, 327.0, 329.0, 329.0, 328.0, 329.0, 325.0, 325.0, 327.0, 327.0, 329.0, 329.0, 329.0, 328.0, 326.0, 326.0, 327.0, 330.0, 330.0, 329.0, 330.0, 327.0, 326.0, 328.0, 330.0, 329.0, 330.0, 327.0, 326.0, 328.0, 329.0, 330.0, 328.0, 330.0, 327.0, 327.0, 330.0, 328.0, 328.0, 328.0, 327.0, 329.0, 327.0, 328.0, 327.0, 326.0, 328.0, 326.0, 329.0, 329.0, 326.0, 327.0, 327.0, 329.0, 327.0, 328.0, 327.0, 327.0, 330.0, 329.0, 330.0, 328.0, 326.0, 327.0, 329.0, 329.0, 328.0, 326.0, 330.0, 328.0, 326.0, 327.0, 327.0, 328.0, 330.0, 329.0, 328.0, 326.0, 326.0, 328.0, 329.0, 328.0, 327.0, 327.0, 329.0, 329.0, 329.0, 327.0, 327.0, 330.0, 329.0, 328.0, 327.0, 329.0, 327.0, 328.0, 327.0, 328.0, 330.0, 327.0, 331.0, 330.0, 330.0, 328.0, 326.0, 328.0, 327.0, 330.0, 330.0, 330.0, 327.0, 326.0, 327.0, 329.0, 329.0, 331.0, 330.0, 329.0, 326.0, 326.0, 326.0, 329.0, 329.0, 329.0, 328.0, 328.0, 326.0, 325.0, 328.0, 327.0, 327.0, 327.0, 330.0, 329.0, 330.0, 326.0, 326.0, 327.0, 327.0, 326.0, 326.0, 328.0, 329.0, 330.0, 329.0, 328.0, 327.0, 326.0, 329.0, 329.0, 330.0, 330.0, 328.0, 325.0, 326.0, 328.0, 328.0, 330.0, 328.0, 329.0, 328.0, 326.0, 327.0, 326.0, 326.0, 326.0, 327.0, 327.0, 330.0, 329.0, 330.0, 329.0, 327.0, 327.0, 327.0, 327.0, 330.0, 328.0, 330.0, 330.0, 327.0, 327.0, 327.0, 328.0, 327.0, 329.0, 328.0, 328.0],
      "WindowWidth": [714.0, 713.0, 708.0, 706.0, 710.0, 710.0, 711.0, 709.0, 705.0, 704.0, 705.0, 710.0, 710.0, 706.0, 704.0, 708.0, 706.0, 705.0, 705.0, 708.0, 711.0, 706.0, 705.0, 706.0, 707.0, 707.0, 708.0, 710.0, 710.0, 710.0, 707.0, 705.0, 706.0, 707.0, 711.0, 711.0, 710.0, 709.0, 708.0, 706.0, 706.0, 708.0, 709.0, 709.0, 710.0, 707.0, 707.0, 705.0, 706.0, 709.0, 707.0, 707.0, 707.0, 704.0, 707.0, 705.0, 708.0, 706.0, 709.0, 709.0, 708.0, 706.0, 706.0, 706.0, 710.0, 707.0, 710.0, 707.0, 705.0, 705.0, 705.0, 709.0, 709.0, 708.0, 707.0, 704.0, 709.0, 708.0, 705.0, 707.0, 706.0, 710.0, 708.0, 706.0, 705.0, 706.0, 706.0, 709.0, 709.0, 710.0, 707.0, 704.0, 706.0, 706.0, 709.0, 708.0, 707.0, 708.0, 703.0, 703.0, 706.0, 707.0, 708.0, 708.0, 708.0, 707.0, 704.0, 704.0, 705.0, 709.0, 709.0, 708.0, 709.0, 706.0, 704.0, 707.0, 709.0, 708.0, 709.0, 705.0, 704.0, 707.0, 708.0, 710.0, 708.0, 709.0, 706.0, 705.0, 709.0, 707.0, 707.0, 707.0, 705.0, 709.0, 705.0, 706.0, 705.0, 704.0, 707.0, 704.0, 708.0, 708.0, 705.0, 706.0, 706.0, 708.0, 705.0, 707.0, 706.0, 706.0, 709.0, 709.0, 710.0, 708.0, 704.0, 706.0, 708.0, 709.0, 707.0, 704.0, 710.0, 708.0, 704.0, 706.0, 706.0, 708.0, 710.0, 708.0, 707.0, 704.0, 704.0, 708.0, 709.0, 708.0, 705.0, 706.0, 708.0, 708.0, 708.0, 706.0, 706.0, 710.0, 709.0, 707.0, 706.0, 709.0, 706.0, 707.0, 707.0, 708.0, 711.0, 707.0, 711.0, 709.0, 710.0, 707.0, 705.0, 707.0, 706.0, 709.0, 709.0, 709.0, 705.0, 704.0, 706.0, 709.0, 709.0, 711.0, 711.0, 708.0, 704.0, 704.0, 705.0, 709.0, 709.0, 709.0, 706.0, 706.0, 704.0, 703.0, 707.0, 705.0, 706.0, 706.0, 710.0, 708.0, 709.0, 704.0, 704.0, 706.0, 706.0, 705.0, 704.0, 707.0, 708.0, 710.0, 708.0, 707.0, 705.0, 705.0, 709.0, 709.0, 711.0, 710.0, 708.0, 703.0, 704.0, 708.0, 707.0, 709.0, 708.0, 708.0, 707.0, 705.0, 705.0, 705.0, 705.0, 705.0, 705.0, 706.0, 710.0, 709.0, 710.0, 709.0, 706.0, 706.0, 707.0, 707.0, 710.0, 707.0, 710.0, 709.0, 706.0, 706.0, 706.0, 707.0, 706.0, 708.0, 707.0, 707.0]
    },
    "slices": {}
  }
}