{
  "AcquisitionMatrixPE": 96,
  "AcquisitionNumber": 1,
  "AcquisitionTime": "13:19:13.265000",
  "BandwidthPerPixelPhaseEncode": 18.939,
  "BaseResolution": 96,
  "BodyPartExamined": "BRAIN",
  "ConsistencyInfo": "N4_VE11C_LATEST_20160120",
  "ConversionSoftware": "dcm2niix",
  "ConversionSoftwareVersion": "v1.0.20170923 (OpenJPEG build) GCC6.3.0",
  "DerivedVendorReportedEchoSpacing": 0.000550011,
  "DeviceSerialNumber": "66112",
  "DwellTime": 2.3e-06,
  "EchoTime": 0.033,
  "EchoTrainLength": 96,
  "EffectiveEchoSpacing": 0.000550011,
  "FlipAngle": 64,
  "ImageType": [
    "ORIGINAL",
    "PRIMARY",
    "FMRI",
    "NONE",
    "ND",
    "NORM",
    "MOSAIC"
],
  "InstitutionAddress": "Maynard_3_Hanover_NH_US_03755",
  "InstitutionName": "Dartmouth_College_-_PBS",
  "MagneticFieldStrength": 3,
  "Manufacturer": "Siemens",
  "ManufacturersModelName": "Prisma",
  "Modality": "MR",
  "MultibandAccelerationFactor": 4,
  "PartialFourier": 1,
  "PercentPhaseFOV": 100,
  "PhaseEncodingDirection": "j-",
  "PhaseEncodingSteps": 96,
  "PhaseResolution": 1,
  "ProcedureStepDescription": "Gobbini_Matteo_1017_famface-angles",
  "ProtocolName": "func_run-02_task-fam1back",
  "PulseSequenceDetails": "%SiemensSeq%_ep2d_bold",
  "ReceiveCoilActiveElements": "HEA;HEP",
  "ReceiveCoilName": "Head_32",
  "ReconMatrixPE": 96,
  "RepetitionTime": 1.25,
  "ScanOptions": "FS",
  "ScanningSequence": "EP",
  "SequenceName": "_epfid2d1_96",
  "SequenceVariant": "SK",
  "SeriesDescription": "func_run-02_task-fam1back",
  "SliceTiming": [0.88, 0, 0.615, 0.09, 0.705, 0.1775, 0.7925, 0.3525, 0.9675, 0.44, 1.055, 0.5275, 1.1425, 0.265, 0.88, 0, 0.615, 0.09, 0.705, 0.1775, 0.7925, 0.3525, 0.9675, 0.44, 1.055, 0.5275, 1.1425, 0.265, 0.88, 0, 0.615, 0.09, 0.705, 0.1775, 0.7925, 0.3525, 0.9675, 0.44, 1.055, 0.5275, 1.1425, 0.265, 0.88, 0, 0.615, 0.09, 0.705, 0.1775, 0.7925, 0.3525, 0.9675, 0.44, 1.055, 0.5275, 1.1425, 0.265],
  "SoftwareVersions": "syngo_MR_E11",
  "StationName": "AWP66112",
  "TaskName": "fam1back",
  "TotalReadoutTime": 0.0522511,
  "dcmmeta_affine": [
    [-2.5, 0.0, 6.0574999877216484e-12, 120.0],
    [0.0, 2.5, 7.859999977266607e-12, -102.13999938964844],
    [6.0574999877216484e-12, -7.859999977266607e-12, 2.5, -84.75],
    [0.0, 0.0, 0.0, 1.0]
],
  "dcmmeta_reorient_transform": [
    [0.0, -1.0, 0.0, 95.0],
    [1.0, 0.0, 0.0, 0.0],
    [0.0, 0.0, 1.0, 0.0],
    [0.0, 0.0, 0.0, 1.0]
],
  "dcmmeta_shape": [96, 96, 56, 280],
  "dcmmeta_slice_dim": 2,
  "dcmmeta_version": 0.6,
  "global": {
    "const": {
      "AccessionNumber": "A000642",
      "AcquisitionMatrix": [96, 0, 0, 96],
      "AngioFlag": "N",
      "BitsAllocated": 16,
      "BitsStored": 12,
      "BodyPartExamined": "BRAIN",
      "Columns": 768,
      "EchoNumbers": 1,
      "EchoTime": 33.0,
      "EchoTrainLength": 96,
      "FlipAngle": 64.0,
      "HighBit": 11,
      "ImageOrientationPatient": [1.0, 0.0, 2.423e-12, 0.0, 1.0, 3.144e-12],
      "ImagePositionPatient": [-959.99999999983, -975.36000061035, -84.750000005344],
      "ImageType": [
        "ORIGINAL",
        "PRIMARY",
        "FMRI",
        "NONE",
        "ND",
        "NORM",
        "MOSAIC"
],
      "ImagedNucleus": "1H",
      "ImagingFrequency": 123.25231,
      "InPlanePhaseEncodingDirection": "COL",
      "MRAcquisitionType": "2D",
      "MagneticFieldStrength": 3.0,
      "Manufacturer": "SIEMENS",
      "ManufacturerModelName": "Prisma",
      "Modality": "MR",
      "NumberOfAverages": 1.0,
      "NumberOfPhaseEncodingSteps": 96,
      "PercentPhaseFieldOfView": 100.0,
      "PercentSampling": 100.0,
      "PerformedProcedureStepStartTime": "125927.241000",
      "PhotometricInterpretation": "MONOCHROME2",
      "PixelBandwidth": 2265.0,
      "PixelRepresentation": 0,
      "PixelSpacing": [2.5, 2.5],
      "PositionReferenceIndicator": "",
      "ProtocolName": "func_run-02_task-fam1back",
      "RepetitionTime": 1250.0,
      "Rows": 768,
      "SAR": 0.06428351136128,
      "SamplesPerPixel": 1,
      "ScanOptions": "FS",
      "ScanningSequence": "EP",
      "SequenceName": "*epfid2d1_96",
      "SequenceVariant": "SK",
      "SeriesDescription": "func_run-02_task-fam1back",
      "SeriesNumber": 15,
      "SeriesTime": "131914.307000",
      "SliceLocation": -84.749999999952,
      "SliceThickness": 2.5,
      "SmallestImagePixelValue": 0,
      "SoftwareVersions": "syngo MR E11",
      "SpacingBetweenSlices": 2.5,
      "SpecificCharacterSet": "ISO_IR 100",
      "StudyID": "2",
      "StudyTime": "125927.189000",
      "TransmitCoilName": "Body",
      "VariableFlipAngleFlag": "N",
      "WindowCenterWidthExplanation": "Algo1",
      "dBdt": 0.0},
    "slices": {}
  },
  "time": {
    "samples": {
      "AcquisitionNumber": [1, 2, 3, 4, 5, 6, 7, 8, 9, 10, 11, 12, 13, 14, 15, 16, 17, 18, 19, 20, 21, 22, 23, 24, 25, 26, 27, 28, 29, 30, 31, 32, 33, 34, 35, 36, 37, 38, 39, 40, 41, 42, 43, 44, 45, 46, 47, 48, 49, 50, 51, 52, 53, 54, 55, 56, 57, 58, 59, 60, 61, 62, 63, 64, 65, 66, 67, 68, 69, 70, 71, 72, 73, 74, 75, 76, 77, 78, 79, 80, 81, 82, 83, 84, 85, 86, 87, 88, 89, 90, 91, 92, 93, 94, 95, 96, 97, 98, 99, 100, 101, 102, 103, 104, 105, 106, 107, 108, 109, 110, 111, 112, 113, 114, 115, 116, 117, 118, 119, 120, 121, 122, 123, 124, 125, 126, 127, 128, 129, 130, 131, 132, 133, 134, 135, 136, 137, 138, 139, 140, 141, 142, 143, 144, 145, 146, 147, 148, 149, 150, 151, 152, 153, 154, 155, 156, 157, 158, 159, 160, 161, 162, 163, 164, 165, 166, 167, 168, 169, 170, 171, 172, 173, 174, 175, 176, 177, 178, 179, 180, 181, 182, 183, 184, 185, 186, 187, 188, 189, 190, 191, 192, 193, 194, 195, 196, 197, 198, 199, 200, 201, 202, 203, 204, 205, 206, 207, 208, 209, 210, 211, 212, 213, 214, 215, 216, 217, 218, 219, 220, 221, 222, 223, 224, 225, 226, 227, 228, 229, 230, 231, 232, 233, 234, 235, 236, 237, 238, 239, 240, 241, 242, 243, 244, 245, 246, 247, 248, 249, 250, 251, 252, 253, 254, 255, 256, 257, 258, 259, 260, 261, 262, 263, 264, 265, 266, 267, 268, 269, 270, 271, 272, 273, 274, 275, 276, 277, 278, 279, 280],
      "AcquisitionTime": ["131913.265000", "131914.515000", "131915.765000", "131917.015000", "131918.265000", "131919.515000", "131920.765000", "131922.015000", "131923.265000", "131924.515000", "131925.765000", "131927.015000", "131928.265000", "131929.515000", "131930.765000", "131932.015000", "131933.265000", "131934.515000", "131935.765000", "131937.015000", "131938.265000", "131939.515000", "131940.765000", "131942.015000", "131943.265000", "131944.515000", "131945.765000", "131947.015000", "131948.265000", "131949.515000", "131950.765000", "131952.015000", "131953.265000", "131954.515000", "131955.765000", "131957.015000", "131958.265000", "131959.515000", "132000.765000", "132002.015000", "132003.265000", "132004.515000", "132005.765000", "132007.015000", "132008.265000", "132009.515000", "132010.765000", "132012.015000", "132013.265000", "132014.515000", "132015.765000", "132017.015000", "132018.265000", "132019.515000", "132020.765000", "132022.015000", "132023.265000", "132024.515000", "132025.765000", "132027.015000", "132028.265000", "132029.515000", "132030.765000", "132032.015000", "132033.265000", "132034.515000", "132035.765000", "132037.015000", "132038.265000", "132039.515000", "132040.765000", "132042.015000", "132043.265000", "132044.515000", "132045.765000", "132047.015000", "132048.265000", "132049.515000", "132050.765000", "132052.015000", "132053.265000", "132054.515000", "132055.765000", "132057.015000", "132058.265000", "132059.515000", "132100.765000", "132102.015000", "132103.265000", "132104.515000", "132105.765000", "132107.015000", "132108.265000", "132109.515000", "132110.765000", "132112.015000", "132113.265000", "132114.515000", "132115.765000", "132117.015000", "132118.265000", "132119.515000", "132120.765000", "132122.015000", "132123.265000", "132124.515000", "132125.765000", "132127.015000", "132128.265000", "132129.515000", "132130.765000", "132132.015000", "132133.265000", "132134.515000", "132135.765000", "132137.015000", "132138.265000", "132139.515000", "132140.765000", "132142.015000", "132143.265000", "132144.515000", "132145.765000", "132147.015000", "132148.265000", "132149.515000", "132150.765000", "132152.015000", "132153.265000", "132154.515000", "132155.765000", "132157.015000", "132158.265000", "132159.515000", "132200.765000", "132202.015000", "132203.265000", "132204.515000", "132205.765000", "132207.015000", "132208.265000", "132209.515000", "132210.765000", "132212.015000", "132213.265000", "132214.515000", "132215.765000", "132217.015000", "132218.265000", "132219.515000", "132220.765000", "132222.015000", "132223.265000", "132224.515000", "132225.765000", "132227.015000", "132228.265000", "132229.515000", "132230.765000", "132232.015000", "132233.265000", "132234.515000", "132235.765000", "132237.015000", "132238.265000", "132239.515000", "132240.765000", "132242.015000", "132243.265000", "132244.515000", "132245.765000", "132247.015000", "132248.265000", "132249.515000", "132250.765000", "132252.015000", "132253.265000", "132254.515000", "132255.765000", "132257.015000", "132258.265000", "132259.515000", "132300.765000", "132302.015000", "132303.265000", "132304.515000", "132305.765000", "132307.015000", "132308.265000", "132309.515000", "132310.765000", "132312.015000", "132313.265000", "132314.515000", "132315.765000", "132317.015000", "132318.265000", "132319.515000", "132320.765000", "132322.015000", "132323.265000", "132324.515000", "132325.765000", "132327.015000", "132328.265000", "132329.515000", "132330.765000", "132332.015000", "132333.265000", "132334.515000", "132335.765000", "132337.015000", "132338.265000", "132339.515000", "132340.765000", "132342.015000", "132343.265000", "132344.515000", "132345.765000", "132347.015000", "132348.265000", "132349.515000", "132350.765000", "132352.015000", "132353.265000", "132354.515000", "132355.765000", "132357.015000", "132358.265000", "132359.515000", "132400.765000", "132402.015000", "132403.265000", "132404.515000", "132405.765000", "132407.015000", "132408.265000", "132409.515000", "132410.765000", "132412.015000", "132413.265000", "132414.515000", "132415.765000", "132417.015000", "132418.265000", "132419.515000", "132420.765000", "132422.015000", "132423.265000", "132424.515000", "132425.765000", "132427.015000", "132428.265000", "132429.515000", "132430.765000", "132432.015000", "132433.265000", "132434.515000", "132435.765000", "132437.015000", "132438.265000", "132439.515000", "132440.765000", "132442.015000", "132443.265000", "132444.515000", "132445.765000", "132447.015000", "132448.265000", "132449.515000", "132450.765000", "132452.015000", "132453.265000", "132454.515000", "132455.765000", "132457.015000", "132458.265000", "132459.515000", "132500.765000", "132502.015000"],
      "ContentTime": ["131914.310000", "131915.366000", "131916.598000", "131917.876000", "131919.114000", "131920.336000", "131921.596000", "131922.867000", "131924.096000", "131925.410000", "131926.601000", "131927.827000", "131929.085000", "131930.445000", "131931.612000", "131932.859000", "131934.076000", "131935.346000", "131936.595000", "131937.836000", "131939.125000", "131940.418000", "131941.648000", "131942.854000", "131944.023000", "131945.340000", "131946.609000", "131947.838000", "131949.101000", "131950.336000", "131951.586000", "131952.875000", "131954.118000", "131955.341000", "131956.600000", "131957.849000", "131959.099000", "132000.345000", "132001.620000", "132002.853000", "132004.094000", "132005.360000", "132006.606000", "132007.904000", "132009.113000", "132010.341000", "132011.617000", "132012.873000", "132014.132000", "132015.364000", "132016.603000", "132017.846000", "132019.088000", "132020.350000", "132021.583000", "132022.850000", "132024.042000", "132025.337000", "132026.595000", "132027.836000", "132029.098000", "132030.342000", "132031.598000", "132032.824000", "132034.125000", "132035.366000", "132036.603000", "132037.836000", "132039.075000", "132040.348000", "132041.608000", "132042.852000", "132044.122000", "132045.341000", "132046.596000", "132047.875000", "132049.102000", "132050.356000", "132051.566000", "132052.835000", "132054.153000", "132055.338000", "132056.578000", "132057.856000", "132059.111000", "132100.343000", "132101.568000", "132102.839000", "132104.085000", "132105.339000", "132106.597000", "132107.847000", "132109.107000", "132110.321000", "132111.582000", "132112.826000", "132114.077000", "132115.366000", "132116.576000", "132117.830000", "132119.097000", "132120.363000", "132121.577000", "132122.846000", "132124.084000", "132125.361000", "132126.631000", "132127.857000", "132129.091000", "132130.338000", "132131.610000", "132132.857000", "132134.110000", "132135.349000", "132136.618000", "132137.855000", "132139.129000", "132140.385000", "132141.622000", "132142.854000", "132144.115000", "132145.364000", "132146.623000", "132147.838000", "132149.140000", "132150.320000", "132151.582000", "132152.869000", "132154.102000", "132155.330000", "132156.604000", "132157.857000", "132159.125000", "132200.365000", "132201.608000", "132202.837000", "132204.123000", "132205.363000", "132206.584000", "132207.816000", "132209.104000", "132210.362000", "132211.610000", "132212.889000", "132214.110000", "132215.337000", "132216.588000", "132217.844000", "132219.107000", "132220.344000", "132221.635000", "132222.851000", "132224.093000", "132225.372000", "132226.584000", "132227.858000", "132229.112000", "132230.405000", "132231.610000", "132232.850000", "132234.098000", "132235.341000", "132236.593000", "132237.852000", "132239.106000", "132240.393000", "132241.606000", "132242.857000", "132244.119000", "132245.351000", "132246.577000", "132247.832000", "132249.077000", "132250.346000", "132251.592000", "132252.870000", "132254.110000", "132255.362000", "132256.620000", "132257.865000", "132259.127000", "132300.362000", "132301.626000", "132302.947000", "132304.125000", "132305.342000", "132306.605000", "132307.841000", "132309.100000", "132310.346000", "132311.592000", "132312.833000", "132314.072000", "132315.361000", "132316.609000", "132317.844000", "132319.085000", "132320.350000", "132321.612000", "132322.801000", "132324.111000", "132325.353000", "132326.587000", "132327.838000", "132329.101000", "132330.343000", "132331.604000", "132332.843000", "132334.101000", "132335.350000", "132336.619000", "132337.844000", "132339.102000", "132340.350000", "132341.593000", "132342.866000", "132344.069000", "132345.355000", "132346.615000", "132347.838000", "132349.105000", "132350.379000", "132351.610000", "132352.839000", "132354.078000", "132355.345000", "132356.601000", "132357.848000", "132359.113000", "132400.348000", "132401.566000", "132402.845000", "132404.114000", "132405.363000", "132406.607000", "132407.854000", "132409.090000", "132410.352000", "132411.589000", "132412.801000", "132414.105000", "132415.366000", "132416.631000", "132417.856000", "132419.097000", "132420.382000", "132421.620000", "132422.847000", "132424.092000", "132425.352000", "132426.590000", "132427.856000", "132429.107000", "132430.335000", "132431.618000", "132432.850000", "132434.140000", "132435.350000", "132436.614000", "132437.817000", "132439.103000", "132440.357000", "132441.606000", "132442.846000", "132444.113000", "132445.456000", "132446.613000", "132447.890000", "132449.131000", "132450.359000", "132451.603000", "132452.865000", "132454.115000", "132455.352000", "132456.603000", "132457.863000", "132459.096000", "132500.332000", "132501.602000", "132502.906000"],
      "InstanceCreationTime": ["131914.310000", "131915.366000", "131916.598000", "131917.876000", "131919.114000", "131920.336000", "131921.596000", "131922.867000", "131924.096000", "131925.410000", "131926.601000", "131927.827000", "131929.085000", "131930.445000", "131931.612000", "131932.859000", "131934.076000", "131935.346000", "131936.595000", "131937.836000", "131939.125000", "131940.418000", "131941.648000", "131942.854000", "131944.023000", "131945.340000", "131946.609000", "131947.838000", "131949.101000", "131950.336000", "131951.586000", "131952.875000", "131954.118000", "131955.341000", "131956.600000", "131957.849000", "131959.099000", "132000.345000", "132001.620000", "132002.853000", "132004.094000", "132005.360000", "132006.606000", "132007.904000", "132009.113000", "132010.341000", "132011.617000", "132012.873000", "132014.132000", "132015.364000", "132016.603000", "132017.846000", "132019.088000", "132020.350000", "132021.583000", "132022.850000", "132024.042000", "132025.337000", "132026.595000", "132027.836000", "132029.098000", "132030.342000", "132031.598000", "132032.824000", "132034.125000", "132035.366000", "132036.603000", "132037.836000", "132039.075000", "132040.348000", "132041.608000", "132042.852000", "132044.122000", "132045.341000", "132046.596000", "132047.875000", "132049.102000", "132050.356000", "132051.566000", "132052.835000", "132054.153000", "132055.338000", "132056.578000", "132057.856000", "132059.111000", "132100.343000", "132101.568000", "132102.839000", "132104.085000", "132105.339000", "132106.597000", "132107.847000", "132109.107000", "132110.321000", "132111.582000", "132112.826000", "132114.077000", "132115.366000", "132116.576000", "132117.830000", "132119.097000", "132120.363000", "132121.577000", "132122.846000", "132124.084000", "132125.361000", "132126.631000", "132127.857000", "132129.091000", "132130.338000", "132131.610000", "132132.857000", "132134.110000", "132135.349000", "132136.618000", "132137.855000", "132139.129000", "132140.385000", "132141.622000", "132142.854000", "132144.115000", "132145.364000", "132146.623000", "132147.838000", "132149.140000", "132150.320000", "132151.582000", "132152.869000", "132154.102000", "132155.330000", "132156.604000", "132157.857000", "132159.125000", "132200.365000", "132201.608000", "132202.837000", "132204.123000", "132205.363000", "132206.584000", "132207.816000", "132209.104000", "132210.362000", "132211.610000", "132212.889000", "132214.110000", "132215.337000", "132216.588000", "132217.844000", "132219.107000", "132220.344000", "132221.635000", "132222.851000", "132224.093000", "132225.372000", "132226.584000", "132227.858000", "132229.112000", "132230.405000", "132231.610000", "132232.850000", "132234.098000", "132235.341000", "132236.593000", "132237.852000", "132239.106000", "132240.393000", "132241.606000", "132242.857000", "132244.119000", "132245.351000", "132246.577000", "132247.832000", "132249.077000", "132250.346000", "132251.592000", "132252.870000", "132254.110000", "132255.362000", "132256.620000", "132257.865000", "132259.127000", "132300.362000", "132301.626000", "132302.947000", "132304.125000", "132305.342000", "132306.605000", "132307.841000", "132309.100000", "132310.346000", "132311.592000", "132312.833000", "132314.072000", "132315.361000", "132316.609000", "132317.844000", "132319.085000", "132320.350000", "132321.612000", "132322.801000", "132324.111000", "132325.353000", "132326.587000", "132327.838000", "132329.101000", "132330.343000", "132331.604000", "132332.843000", "132334.101000", "132335.350000", "132336.619000", "132337.844000", "132339.102000", "132340.350000", "132341.593000", "132342.866000", "132344.069000", "132345.355000", "132346.615000", "132347.838000", "132349.105000", "132350.379000", "132351.610000", "132352.839000", "132354.078000", "132355.345000", "132356.601000", "132357.848000", "132359.113000", "132400.348000", "132401.566000", "132402.845000", "132404.114000", "132405.363000", "132406.607000", "132407.854000", "132409.090000", "132410.352000", "132411.589000", "132412.801000", "132414.105000", "132415.366000", "132416.631000", "132417.856000", "132419.097000", "132420.382000", "132421.620000", "132422.847000", "132424.092000", "132425.352000", "132426.590000", "132427.856000", "132429.107000", "132430.335000", "132431.618000", "132432.850000", "132434.140000", "132435.350000", "132436.614000", "132437.817000", "132439.103000", "132440.357000", "132441.606000", "132442.846000", "132444.113000", "132445.456000", "132446.613000", "132447.890000", "132449.131000", "132450.359000", "132451.603000", "132452.865000", "132454.115000", "132455.352000", "132456.603000", "132457.863000", "132459.096000", "132500.332000", "132501.602000", "132502.906000"],
      "InstanceNumber": [1, 2, 3, 4, 5, 6, 7, 8, 9, 10, 11, 12, 13, 14, 15, 16, 17, 18, 19, 20, 21, 22, 23, 24, 25, 26, 27, 28, 29, 30, 31, 32, 33, 34, 35, 36, 37, 38, 39, 40, 41, 42, 43, 44, 45, 46, 47, 48, 49, 50, 51, 52, 53, 54, 55, 56, 57, 58, 59, 60, 61, 62, 63, 64, 65, 66, 67, 68, 69, 70, 71, 72, 73, 74, 75, 76, 77, 78, 79, 80, 81, 82, 83, 84, 85, 86, 87, 88, 89, 90, 91, 92, 93, 94, 95, 96, 97, 98, 99, 100, 101, 102, 103, 104, 105, 106, 107, 108, 109, 110, 111, 112, 113, 114, 115, 116, 117, 118, 119, 120, 121, 122, 123, 124, 125, 126, 127, 128, 129, 130, 131, 132, 133, 134, 135, 136, 137, 138, 139, 140, 141, 142, 143, 144, 145, 146, 147, 148, 149, 150, 151, 152, 153, 154, 155, 156, 157, 158, 159, 160, 161, 162, 163, 164, 165, 166, 167, 168, 169, 170, 171, 172, 173, 174, 175, 176, 177, 178, 179, 180, 181, 182, 183, 184, 185, 186, 187, 188, 189, 190, 191, 192, 193, 194, 195, 196, 197, 198, 199, 200, 201, 202, 203, 204, 205, 206, 207, 208, 209, 210, 211, 212, 213, 214, 215, 216, 217, 218, 219, 220, 221, 222, 223, 224, 225, 226, 227, 228, 229, 230, 231, 232, 233, 234, 235, 236, 237, 238, 239, 240, 241, 242, 243, 244, 245, 246, 247, 248, 249, 250, 251, 252, 253, 254, 255, 256, 257, 258, 259, 260, 261, 262, 263, 264, 265, 266, 267, 268, 269, 270, 271, 272, 273, 274, 275, 276, 277, 278, 279, 280],
      "LargestImagePixelValue": [1028, 1020, 964, 827, 743, 785, 811, 897, 778, 738, 755, 894, 899, 866, 792, 750, 679, 690, 738, 759, 1004, 825, 837, 856, 696, 720, 675, 686, 795, 759, 859, 947, 791, 836, 734, 682, 725, 923, 937, 889, 794, 807, 690, 711, 790, 920, 735, 712, 850, 696, 739, 763, 681, 673, 698, 990, 919, 1036, 782, 677, 720, 908, 930, 799, 860, 668, 687, 735, 695, 700, 668, 834, 811, 950, 764, 663, 888, 780, 969, 661, 687, 795, 800, 1013, 841, 699, 661, 674, 804, 897, 689, 723, 658, 912, 856, 683, 730, 657, 816, 660, 877, 818, 972, 959, 787, 882, 757, 790, 669, 780, 830, 993, 904, 942, 701, 670, 702, 664, 861, 876, 1015, 839, 736, 846, 806, 1034, 741, 856, 848, 750, 768, 673, 738, 659, 958, 902, 832, 679, 662, 862, 813, 984, 913, 687, 658, 656, 834, 904, 933, 1077, 873, 664, 650, 652, 795, 676, 928, 770, 729, 819, 748, 910, 887, 852, 805, 668, 741, 750, 905, 842, 720, 708, 872, 913, 941, 666, 649, 637, 822, 917, 940, 980, 766, 707, 646, 690, 918, 800, 1056, 891, 697, 742, 682, 942, 883, 741, 652, 691, 754, 1051, 972, 849, 690, 654, 881, 788, 764, 750, 752, 1095, 739, 645, 769, 899, 915, 795, 649, 640, 644, 912, 1001, 1075, 932, 740, 713, 645, 646, 641, 828, 814, 859, 752, 828, 772, 854, 930, 950, 841, 814, 642, 753, 740, 1002, 885, 1025, 886, 777, 725, 658, 679, 658, 876, 885, 1030, 792, 657, 872, 819, 877, 754, 829, 888, 853, 977, 898, 861, 731, 672, 756, 800, 952, 657, 958, 658, 636, 656, 833, 893, 852, 980],
      "WindowCenter": [332.0, 331.0, 330.0, 328.0, 327.0, 328.0, 329.0, 330.0, 328.0, 328.0, 329.0, 331.0, 331.0, 330.0, 329.0, 328.0, 327.0, 328.0, 328.0, 328.0, 330.0, 329.0, 329.0, 330.0, 328.0, 328.0, 328.0, 328.0, 329.0, 329.0, 330.0, 331.0, 329.0, 329.0, 328.0, 327.0, 327.0, 330.0, 330.0, 329.0, 329.0, 328.0, 327.0, 327.0, 329.0, 330.0, 327.0, 327.0, 329.0, 327.0, 327.0, 328.0, 327.0, 328.0, 328.0, 330.0, 330.0, 330.0, 327.0, 326.0, 327.0, 329.0, 330.0, 328.0, 328.0, 325.0, 325.0, 327.0, 327.0, 327.0, 326.0, 329.0, 329.0, 330.0, 328.0, 326.0, 329.0, 328.0, 330.0, 326.0, 327.0, 329.0, 329.0, 330.0, 329.0, 326.0, 326.0, 327.0, 328.0, 330.0, 327.0, 327.0, 326.0, 330.0, 329.0, 327.0, 328.0, 327.0, 329.0, 327.0, 330.0, 329.0, 330.0, 330.0, 329.0, 329.0, 327.0, 328.0, 326.0, 328.0, 328.0, 330.0, 329.0, 330.0, 327.0, 327.0, 327.0, 326.0, 329.0, 329.0, 330.0, 329.0, 327.0, 329.0, 328.0, 330.0, 327.0, 328.0, 328.0, 328.0, 328.0, 327.0, 328.0, 327.0, 330.0, 329.0, 329.0, 327.0, 326.0, 329.0, 329.0, 330.0, 329.0, 326.0, 327.0, 327.0, 329.0, 330.0, 330.0, 330.0, 328.0, 326.0, 326.0, 327.0, 329.0, 327.0, 330.0, 327.0, 327.0, 328.0, 328.0, 330.0, 330.0, 329.0, 329.0, 326.0, 327.0, 328.0, 330.0, 329.0, 327.0, 327.0, 330.0, 330.0, 330.0, 326.0, 326.0, 327.0, 329.0, 330.0, 330.0, 330.0, 328.0, 327.0, 326.0, 327.0, 330.0, 328.0, 330.0, 329.0, 327.0, 328.0, 327.0, 330.0, 329.0, 327.0, 327.0, 327.0, 328.0, 331.0, 330.0, 328.0, 327.0, 326.0, 330.0, 329.0, 328.0, 328.0, 327.0, 331.0, 327.0, 326.0, 328.0, 329.0, 329.0, 328.0, 326.0, 326.0, 326.0, 330.0, 331.0, 331.0, 330.0, 327.0, 327.0, 326.0, 326.0, 326.0, 329.0, 329.0, 329.0, 328.0, 329.0, 329.0, 331.0, 332.0, 332.0, 330.0, 329.0, 327.0, 329.0, 329.0, 332.0, 331.0, 331.0, 330.0, 329.0, 328.0, 328.0, 328.0, 328.0, 331.0, 331.0, 332.0, 330.0, 328.0, 331.0, 330.0, 330.0, 329.0, 329.0, 331.0, 331.0, 332.0, 331.0, 330.0, 329.0, 328.0, 330.0, 330.0, 331.0, 328.0, 331.0, 328.0, 328.0, 328.0, 331.0, 332.0, 331.0, 332.0],
      "WindowWidth": [715.0, 712.0, 709.0, 708.0, 706.0, 707.0, 708.0, 709.0, 707.0, 708.0, 708.0, 711.0, 711.0, 710.0, 708.0, 707.0, 706.0, 707.0, 707.0, 707.0, 711.0, 708.0, 708.0, 710.0, 707.0, 708.0, 707.0, 707.0, 709.0, 708.0, 710.0, 712.0, 709.0, 709.0, 707.0, 706.0, 706.0, 710.0, 710.0, 709.0, 708.0, 707.0, 705.0, 706.0, 708.0, 710.0, 706.0, 707.0, 709.0, 705.0, 706.0, 707.0, 706.0, 707.0, 707.0, 710.0, 710.0, 709.0, 706.0, 705.0, 706.0, 709.0, 709.0, 707.0, 707.0, 703.0, 703.0, 705.0, 706.0, 707.0, 705.0, 709.0, 708.0, 709.0, 707.0, 705.0, 709.0, 707.0, 709.0, 705.0, 705.0, 708.0, 708.0, 710.0, 708.0, 704.0, 704.0, 705.0, 708.0, 709.0, 706.0, 707.0, 705.0, 709.0, 709.0, 706.0, 708.0, 706.0, 709.0, 706.0, 710.0, 709.0, 710.0, 711.0, 708.0, 709.0, 706.0, 707.0, 704.0, 707.0, 708.0, 710.0, 708.0, 709.0, 705.0, 706.0, 707.0, 705.0, 709.0, 709.0, 710.0, 709.0, 707.0, 708.0, 707.0, 710.0, 705.0, 707.0, 707.0, 707.0, 707.0, 706.0, 708.0, 706.0, 710.0, 709.0, 708.0, 706.0, 705.0, 709.0, 708.0, 709.0, 708.0, 705.0, 706.0, 706.0, 709.0, 710.0, 710.0, 710.0, 707.0, 704.0, 705.0, 706.0, 708.0, 706.0, 709.0, 706.0, 705.0, 708.0, 707.0, 711.0, 710.0, 709.0, 708.0, 705.0, 706.0, 707.0, 710.0, 709.0, 707.0, 707.0, 709.0, 709.0, 709.0, 705.0, 705.0, 706.0, 709.0, 711.0, 711.0, 710.0, 707.0, 706.0, 705.0, 706.0, 709.0, 707.0, 710.0, 708.0, 705.0, 707.0, 706.0, 709.0, 708.0, 706.0, 706.0, 707.0, 707.0, 711.0, 709.0, 708.0, 705.0, 704.0, 710.0, 708.0, 707.0, 707.0, 706.0, 711.0, 706.0, 704.0, 707.0, 708.0, 708.0, 707.0, 704.0, 705.0, 705.0, 711.0, 712.0, 711.0, 709.0, 705.0, 705.0, 704.0, 705.0, 705.0, 709.0, 709.0, 709.0, 707.0, 709.0, 709.0, 711.0, 713.0, 713.0, 711.0, 709.0, 706.0, 709.0, 709.0, 713.0, 711.0, 712.0, 710.0, 709.0, 708.0, 708.0, 709.0, 708.0, 712.0, 712.0, 713.0, 711.0, 708.0, 711.0, 710.0, 711.0, 708.0, 709.0, 712.0, 712.0, 713.0, 712.0, 710.0, 709.0, 707.0, 710.0, 711.0, 712.0, 707.0, 712.0, 707.0, 707.0, 709.0, 713.0, 713.0, 713.0, 713.0]
    },
    "slices": {}
  }
}