{
  "AcquisitionMatrixPE": 96,
  "AcquisitionNumber": 1,
  "AcquisitionTime": "14:05:11.392500",
  "BandwidthPerPixelPhaseEncode": 18.939,
  "BaseResolution": 96,
  "BodyPartExamined": "BRAIN",
  "ConsistencyInfo": "N4_VE11C_LATEST_20160120",
  "ConversionSoftware": "dcm2niix",
  "ConversionSoftwareVersion": "v1.0.20170923 (OpenJPEG build) GCC6.3.0",
  "DerivedVendorReportedEchoSpacing": 0.000550011,
  "DeviceSerialNumber": "66112",
  "DwellTime": 2.3e-06,
  "EchoTime": 0.033,
  "EchoTrainLength": 96,
  "EffectiveEchoSpacing": 0.000550011,
  "FlipAngle": 64,
  "ImageType": [
    "ORIGINAL",
    "PRIMARY",
    "FMRI",
    "NONE",
    "ND",
    "NORM",
    "MOSAIC"
],
  "InstitutionAddress": "Maynard_3_Hanover_NH_US_03755",
  "InstitutionName": "Dartmouth_College_-_PBS",
  "MagneticFieldStrength": 3,
  "Manufacturer": "Siemens",
  "ManufacturersModelName": "Prisma",
  "Modality": "MR",
  "MultibandAccelerationFactor": 4,
  "PartialFourier": 1,
  "PercentPhaseFOV": 100,
  "PhaseEncodingDirection": "j-",
  "PhaseEncodingSteps": 96,
  "PhaseResolution": 1,
  "ProcedureStepDescription": "Gobbini_Matteo_1017_famface-angles",
  "ProtocolName": "func_run-09_task-fam1back",
  "PulseSequenceDetails": "%SiemensSeq%_ep2d_bold",
  "ReceiveCoilActiveElements": "HEA;HEP",
  "ReceiveCoilName": "Head_32",
  "ReconMatrixPE": 96,
  "RepetitionTime": 1.25,
  "ScanOptions": "FS",
  "ScanningSequence": "EP",
  "SequenceName": "_epfid2d1_96",
  "SequenceVariant": "SK",
  "SeriesDescription": "func_run-09_task-fam1back",
  "SliceTiming": [0.8775, 0, 0.615, 0.0875, 0.7025, 0.175, 0.79, 0.35, 0.965, 0.4375, 1.0525, 0.5275, 1.14, 0.2625, 0.8775, 0, 0.615, 0.0875, 0.7025, 0.175, 0.79, 0.35, 0.965, 0.4375, 1.0525, 0.5275, 1.14, 0.2625, 0.8775, 0, 0.615, 0.0875, 0.7025, 0.175, 0.79, 0.35, 0.965, 0.4375, 1.0525, 0.5275, 1.14, 0.2625, 0.8775, 0, 0.615, 0.0875, 0.7025, 0.175, 0.79, 0.35, 0.965, 0.4375, 1.0525, 0.5275, 1.14, 0.2625],
  "SoftwareVersions": "syngo_MR_E11",
  "StationName": "AWP66112",
  "TaskName": "fam1back",
  "TotalReadoutTime": 0.0522511,
  "dcmmeta_affine": [
    [-2.5, 0.0, 6.0574999877216484e-12, 120.0],
    [0.0, 2.5, 7.859999977266607e-12, -102.13999938964844],
    [6.0574999877216484e-12, -7.859999977266607e-12, 2.5, -84.75],
    [0.0, 0.0, 0.0, 1.0]
],
  "dcmmeta_reorient_transform": [
    [0.0, -1.0, 0.0, 95.0],
    [1.0, 0.0, 0.0, 0.0],
    [0.0, 0.0, 1.0, 0.0],
    [0.0, 0.0, 0.0, 1.0]
],
  "dcmmeta_shape": [96, 96, 56, 280],
  "dcmmeta_slice_dim": 2,
  "dcmmeta_version": 0.6,
  "global": {
    "const": {
      "AccessionNumber": "A000642",
      "AcquisitionMatrix": [96, 0, 0, 96],
      "AngioFlag": "N",
      "BitsAllocated": 16,
      "BitsStored": 12,
      "BodyPartExamined": "BRAIN",
      "Columns": 768,
      "EchoNumbers": 1,
      "EchoTime": 33.0,
      "EchoTrainLength": 96,
      "FlipAngle": 64.0,
      "HighBit": 11,
      "ImageOrientationPatient": [1.0, 0.0, 2.423e-12, 0.0, 1.0, 3.144e-12],
      "ImagePositionPatient": [-959.99999999983, -975.36000061035, -84.750000005344],
      "ImageType": [
        "ORIGINAL",
        "PRIMARY",
        "FMRI",
        "NONE",
        "ND",
        "NORM",
        "MOSAIC"
],
      "ImagedNucleus": "1H",
      "ImagingFrequency": 123.252325,
      "InPlanePhaseEncodingDirection": "COL",
      "MRAcquisitionType": "2D",
      "MagneticFieldStrength": 3.0,
      "Manufacturer": "SIEMENS",
      "ManufacturerModelName": "Prisma",
      "Modality": "MR",
      "NumberOfAverages": 1.0,
      "NumberOfPhaseEncodingSteps": 96,
      "PercentPhaseFieldOfView": 100.0,
      "PercentSampling": 100.0,
      "PerformedProcedureStepStartTime": "125927.241000",
      "PhotometricInterpretation": "MONOCHROME2",
      "PixelBandwidth": 2265.0,
      "PixelRepresentation": 0,
      "PixelSpacing": [2.5, 2.5],
      "PositionReferenceIndicator": "",
      "ProtocolName": "func_run-09_task-fam1back",
      "RepetitionTime": 1250.0,
      "Rows": 768,
      "SAR": 0.06428351136128,
      "SamplesPerPixel": 1,
      "ScanOptions": "FS",
      "ScanningSequence": "EP",
      "SequenceName": "*epfid2d1_96",
      "SequenceVariant": "SK",
      "SeriesDescription": "func_run-09_task-fam1back",
      "SeriesNumber": 64,
      "SeriesTime": "140513.262000",
      "SliceLocation": -84.749999999952,
      "SliceThickness": 2.5,
      "SmallestImagePixelValue": 0,
      "SoftwareVersions": "syngo MR E11",
      "SpacingBetweenSlices": 2.5,
      "SpecificCharacterSet": "ISO_IR 100",
      "StudyID": "2",
      "StudyTime": "125927.189000",
      "TransmitCoilName": "Body",
      "VariableFlipAngleFlag": "N",
      "WindowCenterWidthExplanation": "Algo1",
      "dBdt": 0.0},
    "slices": {}
  },
  "time": {
    "samples": {
      "AcquisitionNumber": [1, 2, 3, 4, 5, 6, 7, 8, 9, 10, 11, 12, 13, 14, 15, 16, 17, 18, 19, 20, 21, 22, 23, 24, 25, 26, 27, 28, 29, 30, 31, 32, 33, 34, 35, 36, 37, 38, 39, 40, 41, 42, 43, 44, 45, 46, 47, 48, 49, 50, 51, 52, 53, 54, 55, 56, 57, 58, 59, 60, 61, 62, 63, 64, 65, 66, 67, 68, 69, 70, 71, 72, 73, 74, 75, 76, 77, 78, 79, 80, 81, 82, 83, 84, 85, 86, 87, 88, 89, 90, 91, 92, 93, 94, 95, 96, 97, 98, 99, 100, 101, 102, 103, 104, 105, 106, 107, 108, 109, 110, 111, 112, 113, 114, 115, 116, 117, 118, 119, 120, 121, 122, 123, 124, 125, 126, 127, 128, 129, 130, 131, 132, 133, 134, 135, 136, 137, 138, 139, 140, 141, 142, 143, 144, 145, 146, 147, 148, 149, 150, 151, 152, 153, 154, 155, 156, 157, 158, 159, 160, 161, 162, 163, 164, 165, 166, 167, 168, 169, 170, 171, 172, 173, 174, 175, 176, 177, 178, 179, 180, 181, 182, 183, 184, 185, 186, 187, 188, 189, 190, 191, 192, 193, 194, 195, 196, 197, 198, 199, 200, 201, 202, 203, 204, 205, 206, 207, 208, 209, 210, 211, 212, 213, 214, 215, 216, 217, 218, 219, 220, 221, 222, 223, 224, 225, 226, 227, 228, 229, 230, 231, 232, 233, 234, 235, 236, 237, 238, 239, 240, 241, 242, 243, 244, 245, 246, 247, 248, 249, 250, 251, 252, 253, 254, 255, 256, 257, 258, 259, 260, 261, 262, 263, 264, 265, 266, 267, 268, 269, 270, 271, 272, 273, 274, 275, 276, 277, 278, 279, 280],
      "AcquisitionTime": ["140511.392500", "140512.642500", "140513.892500", "140515.142500", "140516.392500", "140517.642500", "140518.892500", "140520.142500", "140521.392500", "140522.642500", "140523.892500", "140525.142500", "140526.392500", "140527.642500", "140528.892500", "140530.142500", "140531.392500", "140532.642500", "140533.892500", "140535.142500", "140536.392500", "140537.642500", "140538.892500", "140540.142500", "140541.392500", "140542.642500", "140543.892500", "140545.142500", "140546.392500", "140547.642500", "140548.892500", "140550.142500", "140551.392500", "140552.642500", "140553.892500", "140555.142500", "140556.392500", "140557.642500", "140558.892500", "140600.142500", "140601.392500", "140602.642500", "140603.892500", "140605.142500", "140606.392500", "140607.642500", "140608.892500", "140610.142500", "140611.392500", "140612.642500", "140613.892500", "140615.142500", "140616.392500", "140617.642500", "140618.892500", "140620.142500", "140621.392500", "140622.642500", "140623.892500", "140625.142500", "140626.392500", "140627.642500", "140628.892500", "140630.142500", "140631.392500", "140632.642500", "140633.892500", "140635.142500", "140636.392500", "140637.642500", "140638.892500", "140640.142500", "140641.392500", "140642.642500", "140643.892500", "140645.142500", "140646.392500", "140647.642500", "140648.892500", "140650.142500", "140651.392500", "140652.642500", "140653.892500", "140655.142500", "140656.392500", "140657.642500", "140658.892500", "140700.142500", "140701.392500", "140702.642500", "140703.892500", "140705.142500", "140706.392500", "140707.642500", "140708.892500", "140710.142500", "140711.392500", "140712.642500", "140713.892500", "140715.142500", "140716.392500", "140717.642500", "140718.892500", "140720.142500", "140721.392500", "140722.642500", "140723.892500", "140725.142500", "140726.392500", "140727.642500", "140728.892500", "140730.142500", "140731.392500", "140732.642500", "140733.892500", "140735.142500", "140736.392500", "140737.642500", "140738.892500", "140740.142500", "140741.392500", "140742.642500", "140743.892500", "140745.142500", "140746.392500", "140747.642500", "140748.892500", "140750.142500", "140751.392500", "140752.642500", "140753.892500", "140755.142500", "140756.392500", "140757.642500", "140758.892500", "140800.142500", "140801.392500", "140802.642500", "140803.892500", "140805.142500", "140806.392500", "140807.642500", "140808.892500", "140810.142500", "140811.392500", "140812.642500", "140813.892500", "140815.142500", "140816.392500", "140817.642500", "140818.892500", "140820.142500", "140821.392500", "140822.642500", "140823.892500", "140825.142500", "140826.392500", "140827.642500", "140828.892500", "140830.142500", "140831.392500", "140832.642500", "140833.892500", "140835.142500", "140836.392500", "140837.642500", "140838.892500", "140840.142500", "140841.392500", "140842.642500", "140843.892500", "140845.142500", "140846.392500", "140847.642500", "140848.892500", "140850.142500", "140851.392500", "140852.642500", "140853.892500", "140855.142500", "140856.392500", "140857.642500", "140858.892500", "140900.142500", "140901.392500", "140902.642500", "140903.892500", "140905.142500", "140906.392500", "140907.642500", "140908.892500", "140910.142500", "140911.392500", "140912.642500", "140913.892500", "140915.142500", "140916.392500", "140917.642500", "140918.892500", "140920.142500", "140921.392500", "140922.642500", "140923.892500", "140925.142500", "140926.392500", "140927.642500", "140928.892500", "140930.142500", "140931.392500", "140932.642500", "140933.892500", "140935.142500", "140936.392500", "140937.642500", "140938.892500", "140940.142500", "140941.392500", "140942.642500", "140943.892500", "140945.142500", "140946.392500", "140947.642500", "140948.892500", "140950.142500", "140951.392500", "140952.642500", "140953.892500", "140955.142500", "140956.392500", "140957.642500", "140958.892500", "141000.142500", "141001.392500", "141002.642500", "141003.892500", "141005.142500", "141006.392500", "141007.642500", "141008.892500", "141010.142500", "141011.392500", "141012.642500", "141013.892500", "141015.142500", "141016.392500", "141017.642500", "141018.892500", "141020.142500", "141021.392500", "141022.642500", "141023.892500", "141025.142500", "141026.392500", "141027.642500", "141028.892500", "141030.142500", "141031.392500", "141032.642500", "141033.892500", "141035.142500", "141036.392500", "141037.642500", "141038.892500", "141040.142500", "141041.392500", "141042.642500", "141043.892500", "141045.142500", "141046.392500", "141047.642500", "141048.892500", "141050.142500", "141051.392500", "141052.642500", "141053.892500", "141055.142500", "141056.392500", "141057.642500", "141058.892500", "141100.142500"],
      "ContentTime": ["140513.266000", "140514.353000", "140515.588000", "140516.808000", "140518.068000", "140519.322000", "140520.570000", "140521.816000", "140523.093000", "140524.308000", "140525.569000", "140526.814000", "140528.075000", "140529.319000", "140530.534000", "140531.841000", "140533.031000", "140534.309000", "140535.572000", "140536.854000", "140538.044000", "140539.308000", "140540.549000", "140541.803000", "140543.075000", "140544.334000", "140545.557000", "140546.836000", "140548.077000", "140549.318000", "140550.570000", "140551.805000", "140553.053000", "140554.310000", "140555.559000", "140556.813000", "140558.061000", "140559.301000", "140600.565000", "140601.804000", "140603.069000", "140604.310000", "140605.572000", "140606.819000", "140608.109000", "140609.311000", "140610.559000", "140611.818000", "140613.036000", "140614.320000", "140615.575000", "140616.818000", "140618.059000", "140619.326000", "140620.565000", "140621.841000", "140623.063000", "140624.326000", "140625.567000", "140626.810000", "140628.041000", "140629.330000", "140630.550000", "140631.814000", "140633.068000", "140634.317000", "140635.554000", "140636.809000", "140638.056000", "140639.322000", "140640.580000", "140641.854000", "140643.051000", "140644.322000", "140645.571000", "140646.800000", "140648.069000", "140649.310000", "140650.579000", "140651.823000", "140653.052000", "140654.292000", "140655.602000", "140656.784000", "140658.067000", "140659.349000", "140700.543000", "140701.829000", "140702.998000", "140704.310000", "140705.607000", "140706.827000", "140708.080000", "140709.327000", "140710.568000", "140711.803000", "140713.045000", "140714.319000", "140715.569000", "140716.804000", "140718.069000", "140719.344000", "140720.603000", "140721.847000", "140723.071000", "140724.315000", "140725.555000", "140726.816000", "140728.067000", "140729.346000", "140730.616000", "140731.845000", "140733.086000", "140734.332000", "140735.603000", "140736.833000", "140738.067000", "140739.321000", "140740.598000", "140741.798000", "140743.075000", "140744.358000", "140745.614000", "140746.856000", "140748.080000", "140749.313000", "140750.571000", "140751.807000", "140753.097000", "140754.352000", "140755.578000", "140756.829000", "140758.058000", "140759.328000", "140800.612000", "140801.818000", "140803.059000", "140804.353000", "140805.593000", "140806.838000", "140808.082000", "140809.370000", "140810.568000", "140811.822000", "140813.091000", "140814.318000", "140815.593000", "140816.872000", "140818.052000", "140819.339000", "140820.591000", "140821.800000", "140823.099000", "140824.327000", "140825.591000", "140826.820000", "140828.050000", "140829.332000", "140830.586000", "140831.813000", "140833.128000", "140834.312000", "140835.557000", "140836.831000", "140838.054000", "140839.351000", "140840.540000", "140841.828000", "140843.048000", "140844.326000", "140845.556000", "140846.833000", "140848.105000", "140849.339000", "140850.602000", "140851.812000", "140853.066000", "140854.320000", "140855.585000", "140856.817000", "140858.115000", "140859.314000", "140900.585000", "140901.830000", "140903.159000", "140904.307000", "140905.607000", "140906.827000", "140908.062000", "140909.336000", "140910.562000", "140911.834000", "140913.077000", "140914.334000", "140915.556000", "140916.830000", "140918.075000", "140919.281000", "140920.576000", "140921.803000", "140923.076000", "140924.336000", "140925.557000", "140926.805000", "140928.081000", "140929.310000", "140930.567000", "140931.797000", "140933.075000", "140934.335000", "140935.616000", "140936.811000", "140938.089000", "140939.316000", "140940.582000", "140941.829000", "140943.109000", "140944.329000", "140945.578000", "140946.816000", "140948.059000", "140949.325000", "140950.586000", "140951.831000", "140953.081000", "140954.314000", "140955.559000", "140956.787000", "140958.056000", "140959.288000", "141000.570000", "141001.805000", "141003.089000", "141004.350000", "141005.616000", "141006.840000", "141008.063000", "141009.314000", "141010.605000", "141011.838000", "141013.112000", "141014.345000", "141015.585000", "141016.817000", "141018.089000", "141019.305000", "141020.556000", "141021.802000", "141023.072000", "141024.349000", "141025.590000", "141026.805000", "141028.054000", "141029.357000", "141030.585000", "141031.809000", "141033.087000", "141034.365000", "141035.580000", "141036.811000", "141038.073000", "141039.299000", "141040.560000", "141041.835000", "141043.097000", "141044.350000", "141045.603000", "141046.857000", "141048.068000", "141049.354000", "141050.582000", "141051.820000", "141053.079000", "141054.318000", "141055.583000", "141056.847000", "141058.109000", "141059.315000", "141100.603000", "141101.863000"],
      "InstanceCreationTime": ["140513.266000", "140514.353000", "140515.588000", "140516.808000", "140518.068000", "140519.322000", "140520.570000", "140521.816000", "140523.093000", "140524.308000", "140525.569000", "140526.814000", "140528.075000", "140529.319000", "140530.534000", "140531.841000", "140533.031000", "140534.309000", "140535.572000", "140536.854000", "140538.044000", "140539.308000", "140540.549000", "140541.803000", "140543.075000", "140544.334000", "140545.557000", "140546.836000", "140548.077000", "140549.318000", "140550.570000", "140551.805000", "140553.053000", "140554.310000", "140555.559000", "140556.813000", "140558.061000", "140559.301000", "140600.565000", "140601.804000", "140603.069000", "140604.310000", "140605.572000", "140606.819000", "140608.109000", "140609.311000", "140610.559000", "140611.818000", "140613.036000", "140614.320000", "140615.575000", "140616.818000", "140618.059000", "140619.326000", "140620.565000", "140621.841000", "140623.063000", "140624.326000", "140625.567000", "140626.810000", "140628.041000", "140629.330000", "140630.550000", "140631.814000", "140633.068000", "140634.317000", "140635.554000", "140636.809000", "140638.056000", "140639.322000", "140640.580000", "140641.854000", "140643.051000", "140644.322000", "140645.571000", "140646.800000", "140648.069000", "140649.310000", "140650.579000", "140651.823000", "140653.052000", "140654.292000", "140655.602000", "140656.784000", "140658.067000", "140659.349000", "140700.543000", "140701.829000", "140702.998000", "140704.310000", "140705.607000", "140706.827000", "140708.080000", "140709.327000", "140710.568000", "140711.803000", "140713.045000", "140714.319000", "140715.569000", "140716.804000", "140718.069000", "140719.344000", "140720.603000", "140721.847000", "140723.071000", "140724.315000", "140725.555000", "140726.816000", "140728.067000", "140729.346000", "140730.616000", "140731.845000", "140733.086000", "140734.332000", "140735.603000", "140736.833000", "140738.067000", "140739.321000", "140740.598000", "140741.798000", "140743.075000", "140744.358000", "140745.614000", "140746.856000", "140748.080000", "140749.313000", "140750.571000", "140751.807000", "140753.097000", "140754.352000", "140755.578000", "140756.829000", "140758.058000", "140759.328000", "140800.612000", "140801.818000", "140803.059000", "140804.353000", "140805.593000", "140806.838000", "140808.082000", "140809.370000", "140810.568000", "140811.822000", "140813.091000", "140814.318000", "140815.593000", "140816.872000", "140818.052000", "140819.339000", "140820.591000", "140821.800000", "140823.099000", "140824.327000", "140825.591000", "140826.820000", "140828.050000", "140829.332000", "140830.586000", "140831.813000", "140833.128000", "140834.312000", "140835.557000", "140836.831000", "140838.054000", "140839.351000", "140840.540000", "140841.828000", "140843.048000", "140844.326000", "140845.556000", "140846.833000", "140848.105000", "140849.339000", "140850.602000", "140851.812000", "140853.066000", "140854.320000", "140855.585000", "140856.817000", "140858.115000", "140859.314000", "140900.585000", "140901.830000", "140903.159000", "140904.307000", "140905.607000", "140906.827000", "140908.062000", "140909.336000", "140910.562000", "140911.834000", "140913.077000", "140914.334000", "140915.556000", "140916.830000", "140918.075000", "140919.281000", "140920.576000", "140921.803000", "140923.076000", "140924.336000", "140925.557000", "140926.805000", "140928.081000", "140929.310000", "140930.567000", "140931.797000", "140933.075000", "140934.335000", "140935.616000", "140936.811000", "140938.089000", "140939.316000", "140940.582000", "140941.829000", "140943.109000", "140944.329000", "140945.578000", "140946.816000", "140948.059000", "140949.325000", "140950.586000", "140951.831000", "140953.081000", "140954.314000", "140955.559000", "140956.787000", "140958.056000", "140959.288000", "141000.570000", "141001.805000", "141003.089000", "141004.350000", "141005.616000", "141006.840000", "141008.063000", "141009.314000", "141010.605000", "141011.838000", "141013.112000", "141014.345000", "141015.585000", "141016.817000", "141018.089000", "141019.305000", "141020.556000", "141021.802000", "141023.072000", "141024.349000", "141025.590000", "141026.805000", "141028.054000", "141029.357000", "141030.585000", "141031.809000", "141033.087000", "141034.365000", "141035.580000", "141036.811000", "141038.073000", "141039.299000", "141040.560000", "141041.835000", "141043.097000", "141044.350000", "141045.603000", "141046.857000", "141048.068000", "141049.354000", "141050.582000", "141051.820000", "141053.079000", "141054.318000", "141055.583000", "141056.847000", "141058.109000", "141059.315000", "141100.603000", "141101.863000"],
      "InstanceNumber": [1, 2, 3, 4, 5, 6, 7, 8, 9, 10, 11, 12, 13, 14, 15, 16, 17, 18, 19, 20, 21, 22, 23, 24, 25, 26, 27, 28, 29, 30, 31, 32, 33, 34, 35, 36, 37, 38, 39, 40, 41, 42, 43, 44, 45, 46, 47, 48, 49, 50, 51, 52, 53, 54, 55, 56, 57, 58, 59, 60, 61, 62, 63, 64, 65, 66, 67, 68, 69, 70, 71, 72, 73, 74, 75, 76, 77, 78, 79, 80, 81, 82, 83, 84, 85, 86, 87, 88, 89, 90, 91, 92, 93, 94, 95, 96, 97, 98, 99, 100, 101, 102, 103, 104, 105, 106, 107, 108, 109, 110, 111, 112, 113, 114, 115, 116, 117, 118, 119, 120, 121, 122, 123, 124, 125, 126, 127, 128, 129, 130, 131, 132, 133, 134, 135, 136, 137, 138, 139, 140, 141, 142, 143, 144, 145, 146, 147, 148, 149, 150, 151, 152, 153, 154, 155, 156, 157, 158, 159, 160, 161, 162, 163, 164, 165, 166, 167, 168, 169, 170, 171, 172, 173, 174, 175, 176, 177, 178, 179, 180, 181, 182, 183, 184, 185, 186, 187, 188, 189, 190, 191, 192, 193, 194, 195, 196, 197, 198, 199, 200, 201, 202, 203, 204, 205, 206, 207, 208, 209, 210, 211, 212, 213, 214, 215, 216, 217, 218, 219, 220, 221, 222, 223, 224, 225, 226, 227, 228, 229, 230, 231, 232, 233, 234, 235, 236, 237, 238, 239, 240, 241, 242, 243, 244, 245, 246, 247, 248, 249, 250, 251, 252, 253, 254, 255, 256, 257, 258, 259, 260, 261, 262, 263, 264, 265, 266, 267, 268, 269, 270, 271, 272, 273, 274, 275, 276, 277, 278, 279, 280],
      "LargestImagePixelValue": [700, 920, 951, 1032, 953, 961, 944, 832, 784, 769, 715, 699, 668, 695, 659, 964, 1102, 865, 808, 808, 981, 781, 685, 769, 1070, 862, 803, 910, 869, 775, 743, 675, 971, 963, 838, 756, 658, 922, 961, 847, 810, 762, 897, 1022, 807, 769, 715, 862, 941, 925, 807, 774, 709, 897, 952, 837, 794, 781, 847, 1012, 912, 960, 719, 928, 792, 974, 873, 741, 690, 964, 912, 854, 764, 725, 684, 807, 868, 1013, 856, 819, 771, 729, 765, 653, 907, 1014, 951, 859, 746, 702, 845, 931, 863, 777, 719, 657, 867, 1020, 966, 809, 743, 802, 716, 932, 874, 1037, 851, 893, 783, 846, 773, 931, 886, 917, 805, 936, 728, 793, 639, 829, 822, 1027, 925, 865, 887, 866, 762, 912, 799, 1060, 963, 796, 753, 701, 651, 1049, 909, 863, 688, 794, 774, 958, 830, 796, 873, 652, 956, 844, 923, 840, 778, 810, 703, 970, 923, 804, 733, 671, 745, 948, 1048, 859, 975, 725, 859, 732, 1007, 929, 945, 831, 881, 751, 684, 685, 913, 892, 1047, 966, 899, 849, 846, 769, 789, 772, 967, 835, 1106, 893, 840, 783, 704, 702, 922, 1035, 973, 738, 773, 705, 697, 847, 865, 861, 760, 672, 826, 783, 995, 934, 856, 831, 1096, 880, 748, 755, 941, 877, 765, 729, 766, 1002, 918, 805, 825, 704, 857, 852, 1029, 956, 843, 975, 766, 699, 720, 938, 906, 965, 879, 968, 798, 996, 743, 925, 833, 861, 828, 867, 922, 994, 918, 778, 777, 661, 988, 957, 855, 763, 871, 813, 755, 648, 818, 793, 1014, 865, 1033, 878, 872, 780, 755, 751, 719, 1012, 960, 856, 754, 668, 713, 893, 892, 863],
      "WindowCenter": [332.0, 334.0, 333.0, 332.0, 332.0, 330.0, 331.0, 330.0, 330.0, 330.0, 329.0, 329.0, 329.0, 329.0, 329.0, 331.0, 333.0, 331.0, 329.0, 329.0, 332.0, 330.0, 328.0, 328.0, 333.0, 331.0, 329.0, 330.0, 331.0, 330.0, 330.0, 328.0, 333.0, 332.0, 329.0, 330.0, 328.0, 331.0, 333.0, 331.0, 331.0, 330.0, 331.0, 331.0, 330.0, 330.0, 329.0, 331.0, 331.0, 332.0, 329.0, 330.0, 329.0, 331.0, 333.0, 331.0, 331.0, 329.0, 330.0, 331.0, 331.0, 331.0, 327.0, 331.0, 329.0, 332.0, 331.0, 329.0, 328.0, 330.0, 331.0, 329.0, 329.0, 329.0, 326.0, 330.0, 329.0, 333.0, 329.0, 330.0, 328.0, 329.0, 330.0, 327.0, 331.0, 332.0, 331.0, 330.0, 329.0, 327.0, 330.0, 331.0, 331.0, 330.0, 328.0, 327.0, 329.0, 332.0, 330.0, 330.0, 328.0, 330.0, 328.0, 332.0, 331.0, 333.0, 331.0, 331.0, 328.0, 329.0, 327.0, 330.0, 331.0, 330.0, 330.0, 331.0, 329.0, 330.0, 326.0, 330.0, 330.0, 332.0, 331.0, 330.0, 331.0, 331.0, 328.0, 331.0, 330.0, 332.0, 331.0, 329.0, 330.0, 328.0, 328.0, 333.0, 329.0, 330.0, 328.0, 329.0, 328.0, 332.0, 331.0, 331.0, 330.0, 327.0, 332.0, 331.0, 332.0, 331.0, 329.0, 329.0, 329.0, 333.0, 331.0, 330.0, 328.0, 327.0, 328.0, 332.0, 333.0, 331.0, 331.0, 329.0, 330.0, 329.0, 332.0, 331.0, 330.0, 330.0, 331.0, 329.0, 328.0, 328.0, 331.0, 331.0, 332.0, 331.0, 331.0, 330.0, 330.0, 329.0, 330.0, 330.0, 331.0, 330.0, 332.0, 331.0, 330.0, 329.0, 328.0, 328.0, 329.0, 332.0, 331.0, 328.0, 328.0, 328.0, 329.0, 331.0, 331.0, 331.0, 330.0, 329.0, 331.0, 330.0, 333.0, 333.0, 331.0, 330.0, 332.0, 330.0, 328.0, 329.0, 330.0, 331.0, 329.0, 328.0, 328.0, 332.0, 331.0, 330.0, 330.0, 327.0, 329.0, 329.0, 333.0, 332.0, 330.0, 331.0, 329.0, 326.0, 328.0, 331.0, 331.0, 331.0, 330.0, 331.0, 328.0, 331.0, 329.0, 331.0, 330.0, 331.0, 330.0, 329.0, 331.0, 330.0, 329.0, 329.0, 329.0, 328.0, 332.0, 330.0, 331.0, 330.0, 331.0, 330.0, 329.0, 326.0, 330.0, 330.0, 332.0, 331.0, 332.0, 331.0, 331.0, 329.0, 330.0, 330.0, 329.0, 332.0, 332.0, 331.0, 329.0, 328.0, 330.0, 332.0, 332.0, 331.0],
      "WindowWidth": [715.0, 717.0, 717.0, 713.0, 714.0, 710.0, 712.0, 711.0, 710.0, 710.0, 710.0, 710.0, 710.0, 710.0, 711.0, 712.0, 716.0, 712.0, 710.0, 710.0, 713.0, 711.0, 709.0, 708.0, 716.0, 712.0, 710.0, 709.0, 712.0, 712.0, 711.0, 709.0, 715.0, 714.0, 709.0, 710.0, 708.0, 713.0, 715.0, 712.0, 712.0, 710.0, 712.0, 711.0, 711.0, 710.0, 710.0, 712.0, 711.0, 714.0, 709.0, 711.0, 710.0, 713.0, 715.0, 712.0, 712.0, 709.0, 710.0, 712.0, 713.0, 712.0, 705.0, 711.0, 710.0, 713.0, 712.0, 709.0, 708.0, 709.0, 711.0, 708.0, 709.0, 709.0, 705.0, 711.0, 709.0, 714.0, 709.0, 711.0, 707.0, 710.0, 710.0, 705.0, 712.0, 713.0, 712.0, 711.0, 709.0, 706.0, 711.0, 713.0, 712.0, 710.0, 707.0, 705.0, 709.0, 714.0, 710.0, 711.0, 707.0, 711.0, 707.0, 713.0, 713.0, 714.0, 712.0, 712.0, 707.0, 708.0, 706.0, 709.0, 713.0, 710.0, 711.0, 713.0, 710.0, 711.0, 704.0, 711.0, 711.0, 713.0, 712.0, 711.0, 713.0, 712.0, 708.0, 712.0, 710.0, 713.0, 712.0, 710.0, 710.0, 709.0, 708.0, 714.0, 709.0, 711.0, 707.0, 710.0, 707.0, 714.0, 712.0, 712.0, 710.0, 705.0, 713.0, 712.0, 714.0, 712.0, 708.0, 708.0, 710.0, 715.0, 713.0, 711.0, 708.0, 706.0, 707.0, 714.0, 715.0, 712.0, 710.0, 710.0, 711.0, 709.0, 713.0, 712.0, 710.0, 711.0, 712.0, 709.0, 708.0, 708.0, 713.0, 712.0, 714.0, 712.0, 711.0, 710.0, 711.0, 709.0, 710.0, 710.0, 712.0, 711.0, 714.0, 711.0, 710.0, 709.0, 708.0, 708.0, 709.0, 713.0, 712.0, 708.0, 707.0, 709.0, 710.0, 713.0, 713.0, 712.0, 710.0, 710.0, 712.0, 711.0, 715.0, 715.0, 712.0, 711.0, 714.0, 710.0, 708.0, 709.0, 711.0, 711.0, 710.0, 707.0, 707.0, 713.0, 712.0, 711.0, 711.0, 706.0, 709.0, 709.0, 715.0, 713.0, 711.0, 712.0, 709.0, 704.0, 708.0, 712.0, 713.0, 711.0, 710.0, 712.0, 707.0, 712.0, 709.0, 711.0, 711.0, 712.0, 711.0, 709.0, 711.0, 710.0, 708.0, 710.0, 710.0, 708.0, 713.0, 710.0, 712.0, 710.0, 712.0, 711.0, 710.0, 705.0, 711.0, 711.0, 714.0, 712.0, 714.0, 711.0, 712.0, 710.0, 710.0, 710.0, 710.0, 714.0, 713.0, 712.0, 710.0, 708.0, 711.0, 714.0, 714.0, 713.0]
    },
    "slices": {}
  }
}