{
  "AcquisitionMatrixPE": 96,
  "AcquisitionNumber": 1,
  "AcquisitionTime": "13:58:43.045000",
  "BandwidthPerPixelPhaseEncode": 18.939,
  "BaseResolution": 96,
  "BodyPartExamined": "BRAIN",
  "ConsistencyInfo": "N4_VE11C_LATEST_20160120",
  "ConversionSoftware": "dcm2niix",
  "ConversionSoftwareVersion": "v1.0.20170923 (OpenJPEG build) GCC6.3.0",
  "DerivedVendorReportedEchoSpacing": 0.000550011,
  "DeviceSerialNumber": "66112",
  "DwellTime": 2.3e-06,
  "EchoTime": 0.033,
  "EchoTrainLength": 96,
  "EffectiveEchoSpacing": 0.000550011,
  "FlipAngle": 64,
  "ImageType": [
    "ORIGINAL",
    "PRIMARY",
    "FMRI",
    "NONE",
    "ND",
    "NORM",
    "MOSAIC"
],
  "InstitutionAddress": "Maynard_3_Hanover_NH_US_03755",
  "InstitutionName": "Dartmouth_College_-_PBS",
  "MagneticFieldStrength": 3,
  "Manufacturer": "Siemens",
  "ManufacturersModelName": "Prisma",
  "Modality": "MR",
  "MultibandAccelerationFactor": 4,
  "PartialFourier": 1,
  "PercentPhaseFOV": 100,
  "PhaseEncodingDirection": "j-",
  "PhaseEncodingSteps": 96,
  "PhaseResolution": 1,
  "ProcedureStepDescription": "Gobbini_Matteo_1017_famface-angles",
  "ProtocolName": "func_run-08_task-str1back",
  "PulseSequenceDetails": "%SiemensSeq%_ep2d_bold",
  "ReceiveCoilActiveElements": "HEA;HEP",
  "ReceiveCoilName": "Head_32",
  "ReconMatrixPE": 96,
  "RepetitionTime": 1.25,
  "ScanOptions": "FS",
  "ScanningSequence": "EP",
  "SequenceName": "_epfid2d1_96",
  "SequenceVariant": "SK",
  "SeriesDescription": "func_run-08_task-str1back",
  "SliceTiming": [0.88, 0, 0.615, 0.09, 0.705, 0.1775, 0.7925, 0.3525, 0.9675, 0.44, 1.055, 0.5275, 1.1425, 0.265, 0.88, 0, 0.615, 0.09, 0.705, 0.1775, 0.7925, 0.3525, 0.9675, 0.44, 1.055, 0.5275, 1.1425, 0.265, 0.88, 0, 0.615, 0.09, 0.705, 0.1775, 0.7925, 0.3525, 0.9675, 0.44, 1.055, 0.5275, 1.1425, 0.265, 0.88, 0, 0.615, 0.09, 0.705, 0.1775, 0.7925, 0.3525, 0.9675, 0.44, 1.055, 0.5275, 1.1425, 0.265],
  "SoftwareVersions": "syngo_MR_E11",
  "StationName": "AWP66112",
  "TaskName": "str1back",
  "TotalReadoutTime": 0.0522511,
  "dcmmeta_affine": [
    [-2.5, 0.0, 6.0574999877216484e-12, 120.0],
    [0.0, 2.5, 7.859999977266607e-12, -102.13999938964844],
    [6.0574999877216484e-12, -7.859999977266607e-12, 2.5, -84.75],
    [0.0, 0.0, 0.0, 1.0]
],
  "dcmmeta_reorient_transform": [
    [0.0, -1.0, 0.0, 95.0],
    [1.0, 0.0, 0.0, 0.0],
    [0.0, 0.0, 1.0, 0.0],
    [0.0, 0.0, 0.0, 1.0]
],
  "dcmmeta_shape": [96, 96, 56, 280],
  "dcmmeta_slice_dim": 2,
  "dcmmeta_version": 0.6,
  "global": {
    "const": {
      "AccessionNumber": "A000642",
      "AcquisitionMatrix": [96, 0, 0, 96],
      "AngioFlag": "N",
      "BitsAllocated": 16,
      "BitsStored": 12,
      "BodyPartExamined": "BRAIN",
      "Columns": 768,
      "EchoNumbers": 1,
      "EchoTime": 33.0,
      "EchoTrainLength": 96,
      "FlipAngle": 64.0,
      "HighBit": 11,
      "ImageOrientationPatient": [1.0, 0.0, 2.423e-12, 0.0, 1.0, 3.144e-12],
      "ImagePositionPatient": [-959.99999999983, -975.36000061035, -84.750000005344],
      "ImageType": [
        "ORIGINAL",
        "PRIMARY",
        "FMRI",
        "NONE",
        "ND",
        "NORM",
        "MOSAIC"
],
      "ImagedNucleus": "1H",
      "ImagingFrequency": 123.252324,
      "InPlanePhaseEncodingDirection": "COL",
      "MRAcquisitionType": "2D",
      "MagneticFieldStrength": 3.0,
      "Manufacturer": "SIEMENS",
      "ManufacturerModelName": "Prisma",
      "Modality": "MR",
      "NumberOfAverages": 1.0,
      "NumberOfPhaseEncodingSteps": 96,
      "PercentPhaseFieldOfView": 100.0,
      "PercentSampling": 100.0,
      "PerformedProcedureStepStartTime": "125927.241000",
      "PhotometricInterpretation": "MONOCHROME2",
      "PixelBandwidth": 2265.0,
      "PixelRepresentation": 0,
      "PixelSpacing": [2.5, 2.5],
      "PositionReferenceIndicator": "",
      "ProtocolName": "func_run-08_task-str1back",
      "RepetitionTime": 1250.0,
      "Rows": 768,
      "SAR": 0.06428351136128,
      "SamplesPerPixel": 1,
      "ScanOptions": "FS",
      "ScanningSequence": "EP",
      "SequenceName": "*epfid2d1_96",
      "SequenceVariant": "SK",
      "SeriesDescription": "func_run-08_task-str1back",
      "SeriesNumber": 57,
      "SeriesTime": "135844.619000",
      "SliceLocation": -84.749999999952,
      "SliceThickness": 2.5,
      "SmallestImagePixelValue": 0,
      "SoftwareVersions": "syngo MR E11",
      "SpacingBetweenSlices": 2.5,
      "SpecificCharacterSet": "ISO_IR 100",
      "StudyID": "2",
      "StudyTime": "125927.189000",
      "TransmitCoilName": "Body",
      "VariableFlipAngleFlag": "N",
      "WindowCenterWidthExplanation": "Algo1",
      "dBdt": 0.0},
    "slices": {}
  },
  "time": {
    "samples": {
      "AcquisitionNumber": [1, 2, 3, 4, 5, 6, 7, 8, 9, 10, 11, 12, 13, 14, 15, 16, 17, 18, 19, 20, 21, 22, 23, 24, 25, 26, 27, 28, 29, 30, 31, 32, 33, 34, 35, 36, 37, 38, 39, 40, 41, 42, 43, 44, 45, 46, 47, 48, 49, 50, 51, 52, 53, 54, 55, 56, 57, 58, 59, 60, 61, 62, 63, 64, 65, 66, 67, 68, 69, 70, 71, 72, 73, 74, 75, 76, 77, 78, 79, 80, 81, 82, 83, 84, 85, 86, 87, 88, 89, 90, 91, 92, 93, 94, 95, 96, 97, 98, 99, 100, 101, 102, 103, 104, 105, 106, 107, 108, 109, 110, 111, 112, 113, 114, 115, 116, 117, 118, 119, 120, 121, 122, 123, 124, 125, 126, 127, 128, 129, 130, 131, 132, 133, 134, 135, 136, 137, 138, 139, 140, 141, 142, 143, 144, 145, 146, 147, 148, 149, 150, 151, 152, 153, 154, 155, 156, 157, 158, 159, 160, 161, 162, 163, 164, 165, 166, 167, 168, 169, 170, 171, 172, 173, 174, 175, 176, 177, 178, 179, 180, 181, 182, 183, 184, 185, 186, 187, 188, 189, 190, 191, 192, 193, 194, 195, 196, 197, 198, 199, 200, 201, 202, 203, 204, 205, 206, 207, 208, 209, 210, 211, 212, 213, 214, 215, 216, 217, 218, 219, 220, 221, 222, 223, 224, 225, 226, 227, 228, 229, 230, 231, 232, 233, 234, 235, 236, 237, 238, 239, 240, 241, 242, 243, 244, 245, 246, 247, 248, 249, 250, 251, 252, 253, 254, 255, 256, 257, 258, 259, 260, 261, 262, 263, 264, 265, 266, 267, 268, 269, 270, 271, 272, 273, 274, 275, 276, 277, 278, 279, 280],
      "AcquisitionTime": ["135843.045000", "135844.295000", "135845.545000", "135846.795000", "135848.045000", "135849.295000", "135850.545000", "135851.795000", "135853.045000", "135854.295000", "135855.545000", "135856.795000", "135858.045000", "135859.295000", "135900.545000", "135901.795000", "135903.045000", "135904.295000", "135905.545000", "135906.795000", "135908.045000", "135909.295000", "135910.545000", "135911.795000", "135913.045000", "135914.295000", "135915.545000", "135916.795000", "135918.045000", "135919.295000", "135920.545000", "135921.795000", "135923.045000", "135924.295000", "135925.545000", "135926.795000", "135928.045000", "135929.295000", "135930.545000", "135931.795000", "135933.045000", "135934.295000", "135935.545000", "135936.795000", "135938.045000", "135939.295000", "135940.545000", "135941.795000", "135943.045000", "135944.295000", "135945.545000", "135946.795000", "135948.045000", "135949.295000", "135950.545000", "135951.795000", "135953.045000", "135954.295000", "135955.545000", "135956.795000", "135958.045000", "135959.295000", "140000.545000", "140001.795000", "140003.045000", "140004.295000", "140005.545000", "140006.795000", "140008.045000", "140009.295000", "140010.545000", "140011.795000", "140013.045000", "140014.295000", "140015.545000", "140016.795000", "140018.045000", "140019.295000", "140020.545000", "140021.795000", "140023.045000", "140024.295000", "140025.545000", "140026.795000", "140028.045000", "140029.295000", "140030.545000", "140031.795000", "140033.045000", "140034.295000", "140035.545000", "140036.795000", "140038.045000", "140039.295000", "140040.545000", "140041.795000", "140043.045000", "140044.295000", "140045.545000", "140046.795000", "140048.045000", "140049.295000", "140050.545000", "140051.795000", "140053.045000", "140054.295000", "140055.545000", "140056.795000", "140058.045000", "140059.295000", "140100.545000", "140101.795000", "140103.045000", "140104.295000", "140105.545000", "140106.795000", "140108.045000", "140109.295000", "140110.545000", "140111.795000", "140113.045000", "140114.295000", "140115.545000", "140116.795000", "140118.045000", "140119.295000", "140120.545000", "140121.795000", "140123.045000", "140124.295000", "140125.545000", "140126.795000", "140128.045000", "140129.295000", "140130.545000", "140131.795000", "140133.045000", "140134.295000", "140135.545000", "140136.795000", "140138.045000", "140139.295000", "140140.545000", "140141.795000", "140143.045000", "140144.295000", "140145.545000", "140146.795000", "140148.045000", "140149.295000", "140150.545000", "140151.795000", "140153.045000", "140154.295000", "140155.545000", "140156.795000", "140158.045000", "140159.295000", "140200.545000", "140201.795000", "140203.045000", "140204.295000", "140205.545000", "140206.795000", "140208.045000", "140209.295000", "140210.545000", "140211.795000", "140213.045000", "140214.295000", "140215.545000", "140216.795000", "140218.045000", "140219.295000", "140220.545000", "140221.795000", "140223.045000", "140224.295000", "140225.545000", "140226.795000", "140228.045000", "140229.295000", "140230.545000", "140231.795000", "140233.045000", "140234.295000", "140235.545000", "140236.795000", "140238.045000", "140239.295000", "140240.545000", "140241.795000", "140243.045000", "140244.295000", "140245.545000", "140246.795000", "140248.045000", "140249.295000", "140250.545000", "140251.795000", "140253.045000", "140254.295000", "140255.545000", "140256.795000", "140258.045000", "140259.295000", "140300.545000", "140301.795000", "140303.045000", "140304.295000", "140305.545000", "140306.795000", "140308.045000", "140309.295000", "140310.545000", "140311.795000", "140313.045000", "140314.295000", "140315.545000", "140316.795000", "140318.045000", "140319.295000", "140320.545000", "140321.795000", "140323.045000", "140324.295000", "140325.545000", "140326.795000", "140328.045000", "140329.295000", "140330.545000", "140331.795000", "140333.045000", "140334.295000", "140335.545000", "140336.795000", "140338.045000", "140339.295000", "140340.545000", "140341.795000", "140343.045000", "140344.295000", "140345.545000", "140346.795000", "140348.045000", "140349.295000", "140350.545000", "140351.795000", "140353.045000", "140354.295000", "140355.545000", "140356.795000", "140358.045000", "140359.295000", "140400.545000", "140401.795000", "140403.045000", "140404.295000", "140405.545000", "140406.795000", "140408.045000", "140409.295000", "140410.545000", "140411.795000", "140413.045000", "140414.295000", "140415.545000", "140416.795000", "140418.045000", "140419.295000", "140420.545000", "140421.795000", "140423.045000", "140424.295000", "140425.545000", "140426.795000", "140428.045000", "140429.295000", "140430.545000", "140431.795000"],
      "ContentTime": ["135844.623000", "135845.673000", "135846.942000", "135848.154000", "135849.422000", "135850.702000", "135851.969000", "135853.162000", "135854.454000", "135855.684000", "135856.928000", "135858.189000", "135859.401000", "135900.666000", "135901.947000", "135903.200000", "135904.413000", "135905.727000", "135906.928000", "135908.189000", "135909.423000", "135910.662000", "135911.916000", "135913.207000", "135914.416000", "135915.676000", "135916.971000", "135918.181000", "135919.424000", "135920.751000", "135921.911000", "135923.181000", "135924.415000", "135925.673000", "135926.901000", "135928.239000", "135929.418000", "135930.660000", "135931.919000", "135933.147000", "135934.429000", "135935.692000", "135936.932000", "135938.136000", "135939.403000", "135940.645000", "135941.916000", "135943.159000", "135944.446000", "135945.715000", "135946.920000", "135948.194000", "135949.433000", "135950.685000", "135951.943000", "135953.185000", "135954.387000", "135955.699000", "135956.909000", "135958.247000", "135959.433000", "140000.664000", "140001.917000", "140003.155000", "140004.408000", "140005.679000", "140006.927000", "140008.177000", "140009.418000", "140010.690000", "140011.931000", "140013.195000", "140014.448000", "140015.663000", "140016.949000", "140018.127000", "140019.411000", "140020.669000", "140021.908000", "140023.165000", "140024.417000", "140025.736000", "140026.911000", "140028.147000", "140029.416000", "140030.674000", "140031.891000", "140033.153000", "140034.429000", "140035.658000", "140036.913000", "140038.118000", "140039.422000", "140040.649000", "140041.918000", "140043.158000", "140044.426000", "140045.700000", "140046.927000", "140048.200000", "140049.443000", "140050.699000", "140051.938000", "140053.149000", "140054.426000", "140055.675000", "140056.922000", "140058.185000", "140059.415000", "140100.683000", "140101.932000", "140103.179000", "140104.436000", "140105.731000", "140106.953000", "140108.222000", "140109.468000", "140110.646000", "140111.967000", "140113.131000", "140114.433000", "140115.675000", "140116.960000", "140118.176000", "140119.441000", "140120.686000", "140121.925000", "140123.180000", "140124.449000", "140125.707000", "140126.926000", "140128.299000", "140129.418000", "140130.679000", "140131.924000", "140133.183000", "140134.454000", "140135.676000", "140136.943000", "140138.179000", "140139.447000", "140140.692000", "140141.983000", "140143.166000", "140144.453000", "140145.686000", "140146.931000", "140148.157000", "140149.421000", "140150.677000", "140151.925000", "140153.171000", "140154.435000", "140155.684000", "140156.947000", "140158.207000", "140159.437000", "140200.689000", "140201.915000", "140203.178000", "140204.430000", "140205.712000", "140206.962000", "140208.194000", "140209.421000", "140210.677000", "140211.998000", "140213.177000", "140214.423000", "140215.719000", "140216.950000", "140218.176000", "140219.465000", "140220.678000", "140221.923000", "140223.198000", "140224.443000", "140225.690000", "140226.921000", "140228.199000", "140229.414000", "140230.667000", "140231.939000", "140233.179000", "140234.422000", "140235.702000", "140236.946000", "140238.200000", "140239.419000", "140240.700000", "140241.914000", "140243.173000", "140244.464000", "140245.682000", "140246.953000", "140248.181000", "140249.456000", "140250.681000", "140251.962000", "140253.194000", "140254.419000", "140255.675000", "140256.936000", "140258.225000", "140259.435000", "140300.682000", "140301.948000", "140303.214000", "140304.452000", "140305.678000", "140306.932000", "140308.209000", "140309.417000", "140310.727000", "140311.959000", "140313.190000", "140314.436000", "140315.681000", "140316.924000", "140318.221000", "140319.427000", "140320.671000", "140321.909000", "140323.173000", "140324.440000", "140325.648000", "140326.950000", "140328.208000", "140329.426000", "140330.694000", "140331.918000", "140333.179000", "140334.410000", "140335.676000", "140336.902000", "140338.169000", "140339.441000", "140340.670000", "140341.924000", "140343.169000", "140344.423000", "140345.639000", "140346.913000", "140348.191000", "140349.458000", "140350.679000", "140351.913000", "140353.183000", "140354.432000", "140355.697000", "140356.885000", "140358.202000", "140359.402000", "140400.656000", "140401.896000", "140403.171000", "140404.435000", "140405.668000", "140406.925000", "140408.192000", "140409.459000", "140410.692000", "140411.941000", "140413.169000", "140414.425000", "140415.673000", "140416.960000", "140418.165000", "140419.416000", "140420.682000", "140421.915000", "140423.159000", "140424.458000", "140425.683000", "140426.918000", "140428.169000", "140429.390000", "140430.628000", "140431.920000", "140433.219000"],
      "InstanceCreationTime": ["135844.623000", "135845.673000", "135846.942000", "135848.154000", "135849.422000", "135850.702000", "135851.969000", "135853.162000", "135854.454000", "135855.684000", "135856.928000", "135858.189000", "135859.401000", "135900.666000", "135901.947000", "135903.200000", "135904.413000", "135905.727000", "135906.928000", "135908.189000", "135909.423000", "135910.662000", "135911.916000", "135913.207000", "135914.416000", "135915.676000", "135916.971000", "135918.181000", "135919.424000", "135920.751000", "135921.911000", "135923.181000", "135924.415000", "135925.673000", "135926.901000", "135928.239000", "135929.418000", "135930.660000", "135931.919000", "135933.147000", "135934.429000", "135935.692000", "135936.932000", "135938.136000", "135939.403000", "135940.645000", "135941.916000", "135943.159000", "135944.446000", "135945.715000", "135946.920000", "135948.194000", "135949.433000", "135950.685000", "135951.943000", "135953.185000", "135954.387000", "135955.699000", "135956.909000", "135958.247000", "135959.433000", "140000.664000", "140001.917000", "140003.155000", "140004.408000", "140005.679000", "140006.927000", "140008.177000", "140009.418000", "140010.690000", "140011.931000", "140013.195000", "140014.448000", "140015.663000", "140016.949000", "140018.127000", "140019.411000", "140020.669000", "140021.908000", "140023.165000", "140024.417000", "140025.736000", "140026.911000", "140028.147000", "140029.416000", "140030.674000", "140031.891000", "140033.153000", "140034.429000", "140035.658000", "140036.913000", "140038.118000", "140039.422000", "140040.649000", "140041.918000", "140043.158000", "140044.426000", "140045.700000", "140046.927000", "140048.200000", "140049.443000", "140050.699000", "140051.938000", "140053.149000", "140054.426000", "140055.675000", "140056.922000", "140058.185000", "140059.415000", "140100.683000", "140101.932000", "140103.179000", "140104.436000", "140105.731000", "140106.953000", "140108.222000", "140109.468000", "140110.646000", "140111.967000", "140113.131000", "140114.433000", "140115.675000", "140116.960000", "140118.176000", "140119.441000", "140120.686000", "140121.925000", "140123.180000", "140124.449000", "140125.707000", "140126.926000", "140128.299000", "140129.418000", "140130.679000", "140131.924000", "140133.183000", "140134.454000", "140135.676000", "140136.943000", "140138.179000", "140139.447000", "140140.692000", "140141.983000", "140143.166000", "140144.453000", "140145.686000", "140146.931000", "140148.157000", "140149.421000", "140150.677000", "140151.925000", "140153.171000", "140154.435000", "140155.684000", "140156.947000", "140158.207000", "140159.437000", "140200.689000", "140201.915000", "140203.178000", "140204.430000", "140205.712000", "140206.962000", "140208.194000", "140209.421000", "140210.677000", "140211.998000", "140213.177000", "140214.423000", "140215.719000", "140216.950000", "140218.176000", "140219.465000", "140220.678000", "140221.923000", "140223.198000", "140224.443000", "140225.690000", "140226.921000", "140228.199000", "140229.414000", "140230.667000", "140231.939000", "140233.179000", "140234.422000", "140235.702000", "140236.946000", "140238.200000", "140239.419000", "140240.700000", "140241.914000", "140243.173000", "140244.464000", "140245.682000", "140246.953000", "140248.181000", "140249.456000", "140250.681000", "140251.962000", "140253.194000", "140254.419000", "140255.675000", "140256.936000", "140258.225000", "140259.435000", "140300.682000", "140301.948000", "140303.214000", "140304.452000", "140305.678000", "140306.932000", "140308.209000", "140309.417000", "140310.727000", "140311.959000", "140313.190000", "140314.436000", "140315.681000", "140316.924000", "140318.221000", "140319.427000", "140320.671000", "140321.909000", "140323.173000", "140324.440000", "140325.648000", "140326.950000", "140328.208000", "140329.426000", "140330.694000", "140331.918000", "140333.179000", "140334.410000", "140335.676000", "140336.902000", "140338.169000", "140339.441000", "140340.670000", "140341.924000", "140343.169000", "140344.423000", "140345.639000", "140346.913000", "140348.191000", "140349.458000", "140350.679000", "140351.913000", "140353.183000", "140354.432000", "140355.697000", "140356.885000", "140358.202000", "140359.402000", "140400.656000", "140401.896000", "140403.171000", "140404.435000", "140405.668000", "140406.925000", "140408.192000", "140409.459000", "140410.692000", "140411.941000", "140413.169000", "140414.425000", "140415.673000", "140416.960000", "140418.165000", "140419.416000", "140420.682000", "140421.915000", "140423.159000", "140424.458000", "140425.683000", "140426.918000", "140428.169000", "140429.390000", "140430.628000", "140431.920000", "140433.219000"],
      "InstanceNumber": [1, 2, 3, 4, 5, 6, 7, 8, 9, 10, 11, 12, 13, 14, 15, 16, 17, 18, 19, 20, 21, 22, 23, 24, 25, 26, 27, 28, 29, 30, 31, 32, 33, 34, 35, 36, 37, 38, 39, 40, 41, 42, 43, 44, 45, 46, 47, 48, 49, 50, 51, 52, 53, 54, 55, 56, 57, 58, 59, 60, 61, 62, 63, 64, 65, 66, 67, 68, 69, 70, 71, 72, 73, 74, 75, 76, 77, 78, 79, 80, 81, 82, 83, 84, 85, 86, 87, 88, 89, 90, 91, 92, 93, 94, 95, 96, 97, 98, 99, 100, 101, 102, 103, 104, 105, 106, 107, 108, 109, 110, 111, 112, 113, 114, 115, 116, 117, 118, 119, 120, 121, 122, 123, 124, 125, 126, 127, 128, 129, 130, 131, 132, 133, 134, 135, 136, 137, 138, 139, 140, 141, 142, 143, 144, 145, 146, 147, 148, 149, 150, 151, 152, 153, 154, 155, 156, 157, 158, 159, 160, 161, 162, 163, 164, 165, 166, 167, 168, 169, 170, 171, 172, 173, 174, 175, 176, 177, 178, 179, 180, 181, 182, 183, 184, 185, 186, 187, 188, 189, 190, 191, 192, 193, 194, 195, 196, 197, 198, 199, 200, 201, 202, 203, 204, 205, 206, 207, 208, 209, 210, 211, 212, 213, 214, 215, 216, 217, 218, 219, 220, 221, 222, 223, 224, 225, 226, 227, 228, 229, 230, 231, 232, 233, 234, 235, 236, 237, 238, 239, 240, 241, 242, 243, 244, 245, 246, 247, 248, 249, 250, 251, 252, 253, 254, 255, 256, 257, 258, 259, 260, 261, 262, 263, 264, 265, 266, 267, 268, 269, 270, 271, 272, 273, 274, 275, 276, 277, 278, 279, 280],
      "LargestImagePixelValue": [873, 988, 830, 771, 854, 807, 1081, 915, 757, 700, 774, 700, 743, 1030, 876, 838, 771, 732, 725, 784, 1041, 880, 723, 1025, 893, 812, 725, 927, 921, 814, 834, 745, 922, 842, 817, 803, 851, 837, 1016, 868, 814, 787, 717, 729, 956, 1068, 824, 892, 754, 721, 764, 969, 877, 855, 871, 774, 962, 739, 828, 843, 987, 860, 812, 764, 678, 780, 840, 937, 768, 867, 745, 861, 827, 919, 849, 794, 854, 765, 862, 857, 829, 846, 837, 822, 961, 734, 672, 882, 1046, 930, 809, 735, 798, 757, 695, 688, 660, 931, 1005, 816, 866, 806, 728, 741, 996, 883, 810, 758, 694, 684, 900, 934, 805, 878, 953, 957, 847, 784, 782, 805, 880, 823, 960, 822, 854, 808, 782, 825, 830, 924, 845, 1044, 885, 814, 774, 732, 783, 828, 744, 791, 1021, 1158, 896, 1142, 865, 773, 964, 748, 790, 697, 725, 1014, 798, 799, 767, 892, 966, 827, 761, 768, 835, 768, 992, 837, 782, 745, 738, 792, 1056, 948, 760, 792, 721, 962, 939, 765, 724, 891, 883, 676, 972, 1092, 863, 755, 735, 709, 654, 804, 1143, 889, 923, 715, 999, 928, 823, 827, 855, 1127, 925, 769, 697, 681, 896, 1089, 864, 921, 717, 976, 914, 827, 783, 723, 693, 986, 919, 796, 776, 748, 710, 886, 1008, 889, 855, 703, 655, 791, 970, 962, 931, 835, 925, 702, 685, 863, 897, 813, 765, 917, 897, 878, 778, 755, 765, 740, 709, 662, 907, 928, 836, 752, 688, 907, 929, 797, 790, 802, 905, 1071, 850, 814, 822, 839, 697, 931, 994, 877, 802, 774, 757, 744, 749, 845, 864, 862, 955, 1031, 963, 803, 765, 709],
      "WindowCenter": [333.0, 333.0, 330.0, 329.0, 330.0, 330.0, 331.0, 331.0, 329.0, 328.0, 330.0, 328.0, 328.0, 331.0, 331.0, 331.0, 330.0, 330.0, 330.0, 331.0, 333.0, 330.0, 328.0, 332.0, 329.0, 328.0, 328.0, 330.0, 330.0, 330.0, 329.0, 327.0, 331.0, 329.0, 330.0, 329.0, 331.0, 331.0, 331.0, 331.0, 330.0, 328.0, 329.0, 329.0, 331.0, 331.0, 329.0, 330.0, 329.0, 328.0, 328.0, 331.0, 329.0, 330.0, 329.0, 328.0, 329.0, 327.0, 328.0, 329.0, 330.0, 329.0, 329.0, 328.0, 328.0, 329.0, 329.0, 331.0, 328.0, 328.0, 327.0, 329.0, 329.0, 330.0, 329.0, 330.0, 329.0, 327.0, 330.0, 330.0, 330.0, 331.0, 329.0, 329.0, 331.0, 327.0, 328.0, 329.0, 332.0, 329.0, 327.0, 329.0, 327.0, 329.0, 328.0, 328.0, 329.0, 331.0, 332.0, 330.0, 330.0, 328.0, 328.0, 327.0, 332.0, 331.0, 329.0, 329.0, 327.0, 328.0, 330.0, 332.0, 329.0, 330.0, 331.0, 331.0, 330.0, 328.0, 330.0, 330.0, 331.0, 329.0, 331.0, 329.0, 331.0, 329.0, 329.0, 329.0, 330.0, 329.0, 328.0, 331.0, 328.0, 329.0, 329.0, 329.0, 330.0, 330.0, 328.0, 329.0, 332.0, 332.0, 329.0, 329.0, 326.0, 326.0, 329.0, 327.0, 329.0, 328.0, 329.0, 330.0, 330.0, 329.0, 329.0, 331.0, 331.0, 330.0, 329.0, 330.0, 330.0, 329.0, 332.0, 330.0, 330.0, 330.0, 330.0, 330.0, 333.0, 331.0, 329.0, 329.0, 328.0, 331.0, 331.0, 329.0, 329.0, 331.0, 331.0, 328.0, 332.0, 332.0, 330.0, 329.0, 328.0, 329.0, 329.0, 331.0, 332.0, 331.0, 329.0, 328.0, 330.0, 331.0, 329.0, 329.0, 329.0, 332.0, 331.0, 329.0, 328.0, 328.0, 331.0, 333.0, 330.0, 329.0, 328.0, 330.0, 331.0, 328.0, 329.0, 328.0, 327.0, 332.0, 330.0, 329.0, 330.0, 330.0, 329.0, 330.0, 333.0, 329.0, 330.0, 328.0, 328.0, 330.0, 332.0, 332.0, 330.0, 330.0, 331.0, 328.0, 328.0, 330.0, 331.0, 330.0, 329.0, 331.0, 330.0, 331.0, 327.0, 329.0, 329.0, 329.0, 328.0, 328.0, 331.0, 331.0, 330.0, 329.0, 328.0, 331.0, 331.0, 330.0, 330.0, 330.0, 331.0, 332.0, 330.0, 329.0, 330.0, 329.0, 328.0, 331.0, 331.0, 329.0, 329.0, 329.0, 329.0, 329.0, 330.0, 331.0, 331.0, 331.0, 331.0, 332.0, 330.0, 329.0, 328.0, 327.0],
      "WindowWidth": [716.0, 716.0, 710.0, 709.0, 709.0, 710.0, 710.0, 711.0, 709.0, 708.0, 710.0, 709.0, 708.0, 712.0, 712.0, 712.0, 710.0, 712.0, 711.0, 713.0, 716.0, 709.0, 709.0, 713.0, 709.0, 707.0, 708.0, 709.0, 709.0, 711.0, 710.0, 705.0, 711.0, 709.0, 709.0, 709.0, 712.0, 712.0, 711.0, 712.0, 711.0, 707.0, 710.0, 709.0, 710.0, 710.0, 710.0, 710.0, 709.0, 708.0, 706.0, 712.0, 709.0, 711.0, 708.0, 706.0, 708.0, 705.0, 706.0, 709.0, 709.0, 709.0, 709.0, 708.0, 707.0, 709.0, 708.0, 712.0, 706.0, 707.0, 705.0, 707.0, 708.0, 710.0, 708.0, 710.0, 708.0, 705.0, 710.0, 711.0, 711.0, 712.0, 708.0, 710.0, 711.0, 705.0, 707.0, 708.0, 712.0, 708.0, 706.0, 709.0, 706.0, 709.0, 708.0, 709.0, 709.0, 711.0, 714.0, 711.0, 710.0, 707.0, 708.0, 705.0, 713.0, 711.0, 710.0, 709.0, 705.0, 708.0, 710.0, 713.0, 710.0, 710.0, 711.0, 712.0, 710.0, 707.0, 710.0, 711.0, 711.0, 710.0, 712.0, 710.0, 712.0, 710.0, 710.0, 710.0, 711.0, 707.0, 706.0, 711.0, 707.0, 709.0, 709.0, 709.0, 710.0, 711.0, 708.0, 708.0, 712.0, 713.0, 708.0, 709.0, 702.0, 703.0, 708.0, 705.0, 708.0, 707.0, 709.0, 710.0, 711.0, 710.0, 709.0, 711.0, 712.0, 711.0, 710.0, 710.0, 711.0, 709.0, 713.0, 711.0, 711.0, 711.0, 712.0, 711.0, 715.0, 713.0, 709.0, 710.0, 708.0, 712.0, 712.0, 709.0, 709.0, 712.0, 711.0, 707.0, 713.0, 713.0, 710.0, 709.0, 706.0, 710.0, 709.0, 712.0, 712.0, 712.0, 709.0, 708.0, 709.0, 711.0, 710.0, 710.0, 707.0, 713.0, 711.0, 709.0, 708.0, 708.0, 713.0, 714.0, 711.0, 708.0, 707.0, 711.0, 711.0, 707.0, 709.0, 708.0, 706.0, 713.0, 710.0, 708.0, 711.0, 711.0, 710.0, 710.0, 715.0, 709.0, 711.0, 708.0, 708.0, 711.0, 713.0, 714.0, 710.0, 711.0, 711.0, 707.0, 708.0, 711.0, 713.0, 711.0, 709.0, 711.0, 710.0, 711.0, 706.0, 709.0, 709.0, 709.0, 709.0, 708.0, 712.0, 711.0, 710.0, 709.0, 709.0, 712.0, 713.0, 711.0, 711.0, 710.0, 712.0, 714.0, 711.0, 710.0, 710.0, 710.0, 707.0, 712.0, 712.0, 708.0, 709.0, 710.0, 709.0, 709.0, 711.0, 712.0, 712.0, 711.0, 712.0, 713.0, 711.0, 708.0, 707.0, 707.0]
    },
    "slices": {}
  }
}