{
  "AcquisitionMatrixPE": 96,
  "AcquisitionNumber": 1,
  "AcquisitionTime": "13:24:2.150000",
  "BandwidthPerPixelPhaseEncode": 18.939,
  "BaseResolution": 96,
  "BodyPartExamined": "BRAIN",
  "ConsistencyInfo": "N4_VE11C_LATEST_20160120",
  "ConversionSoftware": "dcm2niix",
  "ConversionSoftwareVersion": "v1.0.20170923 (OpenJPEG build) GCC6.3.0",
  "DerivedVendorReportedEchoSpacing": 0.000550011,
  "DeviceSerialNumber": "66112",
  "DwellTime": 2.3e-06,
  "EchoTime": 0.033,
  "EchoTrainLength": 96,
  "EffectiveEchoSpacing": 0.000550011,
  "FlipAngle": 64,
  "ImageType": [
    "ORIGINAL",
    "PRIMARY",
    "FMRI",
    "NONE",
    "ND",
    "NORM",
    "MOSAIC"
],
  "InstitutionAddress": "Maynard_3_Hanover_NH_US_03755",
  "InstitutionName": "Dartmouth_College_-_PBS",
  "MagneticFieldStrength": 3,
  "Manufacturer": "Siemens",
  "ManufacturersModelName": "Prisma",
  "Modality": "MR",
  "MultibandAccelerationFactor": 4,
  "PartialFourier": 1,
  "PercentPhaseFOV": 100,
  "PhaseEncodingDirection": "j-",
  "PhaseEncodingSteps": 96,
  "PhaseResolution": 1,
  "ProcedureStepDescription": "Gobbini_Matteo_1017_famface-angles",
  "ProtocolName": "func_run-02_task-str1back",
  "PulseSequenceDetails": "%SiemensSeq%_ep2d_bold",
  "ReceiveCoilActiveElements": "HEA;HEP",
  "ReceiveCoilName": "Head_32",
  "ReconMatrixPE": 96,
  "RepetitionTime": 1.25,
  "ScanOptions": "FS",
  "ScanningSequence": "EP",
  "SequenceName": "_epfid2d1_96",
  "SequenceVariant": "SK",
  "SeriesDescription": "func_run-02_task-str1back",
  "SliceTiming": [0.88, 0, 0.615, 0.09, 0.705, 0.1775, 0.7925, 0.3525, 0.9675, 0.44, 1.055, 0.5275, 1.1425, 0.265, 0.88, 0, 0.615, 0.09, 0.705, 0.1775, 0.7925, 0.3525, 0.9675, 0.44, 1.055, 0.5275, 1.1425, 0.265, 0.88, 0, 0.615, 0.09, 0.705, 0.1775, 0.7925, 0.3525, 0.9675, 0.44, 1.055, 0.5275, 1.1425, 0.265, 0.88, 0, 0.615, 0.09, 0.705, 0.1775, 0.7925, 0.3525, 0.9675, 0.44, 1.055, 0.5275, 1.1425, 0.265],
  "SoftwareVersions": "syngo_MR_E11",
  "StationName": "AWP66112",
  "TaskName": "str1back",
  "TotalReadoutTime": 0.0522511,
  "dcmmeta_affine": [
    [-2.4999608993530273, 0.01396265346556902, 0.0006559203611686826, 120.99462890625],
    [0.013977774418890476, 2.4978954792022705, 0.1016010120511055, -97.42794036865234],
    [8.79202998476103e-05, -0.10160309076309204, 2.497934579849243, -86.63306427001953],
    [0.0, 0.0, 0.0, 1.0]
],
  "dcmmeta_reorient_transform": [
    [0.0, -1.0, 0.0, 95.0],
    [1.0, 0.0, 0.0, 0.0],
    [0.0, 0.0, 1.0, 0.0],
    [0.0, 0.0, 0.0, 1.0]
],
  "dcmmeta_shape": [96, 96, 56, 280],
  "dcmmeta_slice_dim": 2,
  "dcmmeta_version": 0.6,
  "global": {
    "const": {
      "AccessionNumber": "A000640",
      "AcquisitionMatrix": [96, 0, 0, 96],
      "AngioFlag": "N",
      "BitsAllocated": 16,
      "BitsStored": 12,
      "BodyPartExamined": "BRAIN",
      "Columns": 768,
      "EchoNumbers": 1,
      "EchoTime": 33.0,
      "EchoTrainLength": 96,
      "FlipAngle": 64.0,
      "HighBit": 11,
      "ImageOrientationPatient": [0.9999843690042, -0.0055911099511, 3.516812105e-05, 0.00558506134659, 0.99915819421312, 0.04064123554384],
      "ImagePositionPatient": [-966.99940398648, -974.46848391459, -130.45353758176],
      "ImageType": [
        "ORIGINAL",
        "PRIMARY",
        "FMRI",
        "NONE",
        "ND",
        "NORM",
        "MOSAIC"
],
      "ImagedNucleus": "1H",
      "ImagingFrequency": 123.252304,
      "InPlanePhaseEncodingDirection": "COL",
      "MRAcquisitionType": "2D",
      "MagneticFieldStrength": 3.0,
      "Manufacturer": "SIEMENS",
      "ManufacturerModelName": "Prisma",
      "Modality": "MR",
      "NumberOfAverages": 1.0,
      "NumberOfPhaseEncodingSteps": 96,
      "PercentPhaseFieldOfView": 100.0,
      "PercentSampling": 100.0,
      "PerformedProcedureStepStartTime": "125753.859000",
      "PhotometricInterpretation": "MONOCHROME2",
      "PixelBandwidth": 2265.0,
      "PixelRepresentation": 0,
      "PixelSpacing": [2.5, 2.5],
      "PositionReferenceIndicator": "",
      "ProtocolName": "func_run-02_task-str1back",
      "RepetitionTime": 1250.0,
      "Rows": 768,
      "SAR": 0.07222446161671,
      "SamplesPerPixel": 1,
      "ScanOptions": "FS",
      "ScanningSequence": "EP",
      "SequenceName": "*epfid2d1_96",
      "SequenceVariant": "SK",
      "SeriesDescription": "func_run-02_task-str1back",
      "SeriesNumber": 18,
      "SeriesTime": "132403.372000",
      "SliceLocation": -90.489254701413,
      "SliceThickness": 2.5,
      "SmallestImagePixelValue": 0,
      "SoftwareVersions": "syngo MR E11",
      "SpacingBetweenSlices": 2.5000000065041,
      "SpecificCharacterSet": "ISO_IR 100",
      "StudyID": "1",
      "StudyTime": "125753.772000",
      "TransmitCoilName": "Body",
      "VariableFlipAngleFlag": "N",
      "WindowCenterWidthExplanation": "Algo1",
      "dBdt": 0.0},
    "slices": {}
  },
  "time": {
    "samples": {
      "AcquisitionNumber": [1, 2, 3, 4, 5, 6, 7, 8, 9, 10, 11, 12, 13, 14, 15, 16, 17, 18, 19, 20, 21, 22, 23, 24, 25, 26, 27, 28, 29, 30, 31, 32, 33, 34, 35, 36, 37, 38, 39, 40, 41, 42, 43, 44, 45, 46, 47, 48, 49, 50, 51, 52, 53, 54, 55, 56, 57, 58, 59, 60, 61, 62, 63, 64, 65, 66, 67, 68, 69, 70, 71, 72, 73, 74, 75, 76, 77, 78, 79, 80, 81, 82, 83, 84, 85, 86, 87, 88, 89, 90, 91, 92, 93, 94, 95, 96, 97, 98, 99, 100, 101, 102, 103, 104, 105, 106, 107, 108, 109, 110, 111, 112, 113, 114, 115, 116, 117, 118, 119, 120, 121, 122, 123, 124, 125, 126, 127, 128, 129, 130, 131, 132, 133, 134, 135, 136, 137, 138, 139, 140, 141, 142, 143, 144, 145, 146, 147, 148, 149, 150, 151, 152, 153, 154, 155, 156, 157, 158, 159, 160, 161, 162, 163, 164, 165, 166, 167, 168, 169, 170, 171, 172, 173, 174, 175, 176, 177, 178, 179, 180, 181, 182, 183, 184, 185, 186, 187, 188, 189, 190, 191, 192, 193, 194, 195, 196, 197, 198, 199, 200, 201, 202, 203, 204, 205, 206, 207, 208, 209, 210, 211, 212, 213, 214, 215, 216, 217, 218, 219, 220, 221, 222, 223, 224, 225, 226, 227, 228, 229, 230, 231, 232, 233, 234, 235, 236, 237, 238, 239, 240, 241, 242, 243, 244, 245, 246, 247, 248, 249, 250, 251, 252, 253, 254, 255, 256, 257, 258, 259, 260, 261, 262, 263, 264, 265, 266, 267, 268, 269, 270, 271, 272, 273, 274, 275, 276, 277, 278, 279, 280],
      "AcquisitionTime": ["132402.150000", "132403.400000", "132404.650000", "132405.900000", "132407.150000", "132408.400000", "132409.650000", "132410.900000", "132412.150000", "132413.400000", "132414.650000", "132415.900000", "132417.150000", "132418.400000", "132419.650000", "132420.900000", "132422.150000", "132423.400000", "132424.650000", "132425.900000", "132427.150000", "132428.400000", "132429.650000", "132430.900000", "132432.150000", "132433.400000", "132434.650000", "132435.900000", "132437.150000", "132438.400000", "132439.650000", "132440.900000", "132442.150000", "132443.400000", "132444.650000", "132445.900000", "132447.150000", "132448.400000", "132449.650000", "132450.900000", "132452.150000", "132453.400000", "132454.650000", "132455.900000", "132457.150000", "132458.400000", "132459.650000", "132500.900000", "132502.150000", "132503.400000", "132504.650000", "132505.900000", "132507.150000", "132508.400000", "132509.650000", "132510.900000", "132512.150000", "132513.400000", "132514.650000", "132515.900000", "132517.150000", "132518.400000", "132519.650000", "132520.900000", "132522.150000", "132523.400000", "132524.650000", "132525.900000", "132527.150000", "132528.400000", "132529.650000", "132530.900000", "132532.150000", "132533.400000", "132534.650000", "132535.900000", "132537.150000", "132538.400000", "132539.650000", "132540.900000", "132542.150000", "132543.400000", "132544.650000", "132545.900000", "132547.150000", "132548.400000", "132549.650000", "132550.900000", "132552.150000", "132553.400000", "132554.650000", "132555.900000", "132557.150000", "132558.400000", "132559.650000", "132600.900000", "132602.150000", "132603.400000", "132604.650000", "132605.900000", "132607.150000", "132608.400000", "132609.650000", "132610.900000", "132612.150000", "132613.400000", "132614.650000", "132615.900000", "132617.150000", "132618.400000", "132619.650000", "132620.900000", "132622.150000", "132623.400000", "132624.650000", "132625.900000", "132627.150000", "132628.400000", "132629.650000", "132630.900000", "132632.150000", "132633.400000", "132634.650000", "132635.900000", "132637.150000", "132638.400000", "132639.650000", "132640.900000", "132642.150000", "132643.400000", "132644.650000", "132645.900000", "132647.150000", "132648.400000", "132649.650000", "132650.900000", "132652.150000", "132653.400000", "132654.650000", "132655.900000", "132657.150000", "132658.400000", "132659.650000", "132700.900000", "132702.150000", "132703.400000", "132704.650000", "132705.900000", "132707.150000", "132708.400000", "132709.650000", "132710.900000", "132712.150000", "132713.400000", "132714.650000", "132715.900000", "132717.150000", "132718.400000", "132719.650000", "132720.900000", "132722.150000", "132723.400000", "132724.650000", "132725.900000", "132727.150000", "132728.400000", "132729.650000", "132730.900000", "132732.150000", "132733.400000", "132734.650000", "132735.900000", "132737.150000", "132738.400000", "132739.650000", "132740.900000", "132742.150000", "132743.400000", "132744.650000", "132745.900000", "132747.150000", "132748.400000", "132749.650000", "132750.900000", "132752.150000", "132753.400000", "132754.650000", "132755.900000", "132757.150000", "132758.400000", "132759.650000", "132800.900000", "132802.150000", "132803.400000", "132804.650000", "132805.900000", "132807.150000", "132808.400000", "132809.650000", "132810.900000", "132812.150000", "132813.400000", "132814.650000", "132815.900000", "132817.150000", "132818.400000", "132819.650000", "132820.900000", "132822.150000", "132823.400000", "132824.650000", "132825.900000", "132827.150000", "132828.400000", "132829.650000", "132830.900000", "132832.150000", "132833.400000", "132834.650000", "132835.900000", "132837.150000", "132838.400000", "132839.650000", "132840.900000", "132842.150000", "132843.400000", "132844.650000", "132845.900000", "132847.150000", "132848.400000", "132849.650000", "132850.900000", "132852.150000", "132853.400000", "132854.650000", "132855.900000", "132857.150000", "132858.400000", "132859.650000", "132900.900000", "132902.150000", "132903.400000", "132904.650000", "132905.900000", "132907.150000", "132908.400000", "132909.650000", "132910.900000", "132912.150000", "132913.400000", "132914.650000", "132915.900000", "132917.150000", "132918.400000", "132919.650000", "132920.900000", "132922.150000", "132923.400000", "132924.650000", "132925.900000", "132927.150000", "132928.400000", "132929.650000", "132930.900000", "132932.150000", "132933.400000", "132934.650000", "132935.900000", "132937.150000", "132938.400000", "132939.650000", "132940.900000", "132942.150000", "132943.400000", "132944.650000", "132945.900000", "132947.150000", "132948.400000", "132949.650000", "132950.900000"],
      "ContentTime": ["132403.376000", "132404.463000", "132405.729000", "132406.974000", "132408.183000", "132409.479000", "132410.716000", "132412.015000", "132413.225000", "132414.449000", "132415.701000", "132416.995000", "132418.200000", "132419.480000", "132420.693000", "132421.950000", "132423.196000", "132424.461000", "132425.683000", "132426.935000", "132428.209000", "132429.449000", "132430.701000", "132431.942000", "132433.258000", "132434.439000", "132435.686000", "132436.948000", "132438.227000", "132439.458000", "132440.687000", "132441.951000", "132443.203000", "132444.418000", "132445.703000", "132446.930000", "132448.193000", "132449.453000", "132450.715000", "132451.984000", "132453.163000", "132454.440000", "132455.683000", "132456.977000", "132458.224000", "132459.440000", "132500.711000", "132501.923000", "132503.199000", "132504.450000", "132505.684000", "132506.932000", "132508.207000", "132509.461000", "132510.717000", "132511.927000", "132513.195000", "132514.467000", "132515.705000", "132516.952000", "132518.214000", "132519.469000", "132520.704000", "132521.926000", "132523.222000", "132524.455000", "132525.714000", "132526.953000", "132528.176000", "132529.434000", "132530.802000", "132532.007000", "132533.221000", "132534.464000", "132535.770000", "132536.985000", "132538.198000", "132539.495000", "132540.725000", "132541.963000", "132543.187000", "132544.470000", "132545.706000", "132546.975000", "132548.167000", "132549.431000", "132550.698000", "132551.932000", "132553.217000", "132554.425000", "132555.698000", "132556.946000", "132558.201000", "132559.461000", "132600.698000", "132601.967000", "132603.264000", "132604.516000", "132605.699000", "132606.997000", "132608.192000", "132609.452000", "132610.684000", "132611.950000", "132613.281000", "132614.445000", "132615.775000", "132616.966000", "132618.198000", "132619.465000", "132620.719000", "132622.002000", "132623.219000", "132624.468000", "132625.776000", "132626.958000", "132628.250000", "132629.502000", "132630.789000", "132631.963000", "132633.227000", "132634.478000", "132635.730000", "132636.944000", "132638.222000", "132639.447000", "132640.715000", "132641.988000", "132643.215000", "132644.460000", "132645.728000", "132646.959000", "132648.201000", "132649.463000", "132650.710000", "132651.968000", "132653.218000", "132654.491000", "132655.746000", "132656.968000", "132658.216000", "132659.462000", "132700.727000", "132701.959000", "132703.199000", "132704.472000", "132705.699000", "132706.980000", "132708.233000", "132709.465000", "132710.696000", "132711.968000", "132713.269000", "132714.449000", "132715.741000", "132716.953000", "132718.190000", "132719.420000", "132720.738000", "132721.993000", "132723.235000", "132724.463000", "132725.699000", "132726.972000", "132728.245000", "132729.467000", "132730.724000", "132731.956000", "132733.211000", "132734.443000", "132735.725000", "132736.959000", "132738.220000", "132739.466000", "132740.714000", "132741.947000", "132743.209000", "132744.505000", "132745.751000", "132746.968000", "132748.214000", "132749.455000", "132750.694000", "132751.994000", "132753.218000", "132754.460000", "132755.702000", "132756.974000", "132758.231000", "132759.445000", "132800.747000", "132801.993000", "132803.217000", "132804.446000", "132805.738000", "132806.956000", "132808.199000", "132809.434000", "132810.702000", "132812.003000", "132813.227000", "132814.455000", "132815.729000", "132816.970000", "132818.208000", "132819.429000", "132820.695000", "132821.943000", "132823.228000", "132824.437000", "132825.696000", "132826.966000", "132828.195000", "132829.469000", "132830.728000", "132831.960000", "132833.198000", "132834.534000", "132835.717000", "132836.971000", "132838.224000", "132839.495000", "132840.747000", "132841.992000", "132843.197000", "132844.424000", "132845.681000", "132847.001000", "132848.183000", "132849.462000", "132850.704000", "132851.946000", "132853.236000", "132854.480000", "132855.759000", "132856.959000", "132858.218000", "132859.435000", "132900.720000", "132902.000000", "132903.231000", "132904.433000", "132905.750000", "132906.963000", "132908.240000", "132909.454000", "132910.698000", "132912.022000", "132913.234000", "132914.476000", "132915.751000", "132916.976000", "132918.220000", "132919.458000", "132920.773000", "132921.950000", "132923.204000", "132924.446000", "132925.710000", "132926.962000", "132928.199000", "132929.474000", "132930.717000", "132931.958000", "132933.192000", "132934.457000", "132935.713000", "132936.973000", "132938.207000", "132939.467000", "132940.685000", "132941.957000", "132943.240000", "132944.478000", "132945.709000", "132946.972000", "132948.220000", "132949.463000", "132950.727000", "132951.982000"],
      "InstanceCreationTime": ["132403.376000", "132404.463000", "132405.729000", "132406.974000", "132408.183000", "132409.479000", "132410.716000", "132412.015000", "132413.225000", "132414.449000", "132415.701000", "132416.995000", "132418.200000", "132419.480000", "132420.693000", "132421.950000", "132423.196000", "132424.461000", "132425.683000", "132426.935000", "132428.209000", "132429.449000", "132430.701000", "132431.942000", "132433.258000", "132434.439000", "132435.686000", "132436.948000", "132438.227000", "132439.458000", "132440.687000", "132441.951000", "132443.203000", "132444.418000", "132445.703000", "132446.930000", "132448.193000", "132449.453000", "132450.715000", "132451.984000", "132453.163000", "132454.440000", "132455.683000", "132456.977000", "132458.224000", "132459.440000", "132500.711000", "132501.923000", "132503.199000", "132504.450000", "132505.684000", "132506.932000", "132508.207000", "132509.461000", "132510.717000", "132511.927000", "132513.195000", "132514.467000", "132515.705000", "132516.952000", "132518.214000", "132519.469000", "132520.704000", "132521.926000", "132523.222000", "132524.455000", "132525.714000", "132526.953000", "132528.176000", "132529.434000", "132530.802000", "132532.007000", "132533.221000", "132534.464000", "132535.770000", "132536.985000", "132538.198000", "132539.495000", "132540.725000", "132541.963000", "132543.187000", "132544.470000", "132545.706000", "132546.975000", "132548.167000", "132549.431000", "132550.698000", "132551.932000", "132553.217000", "132554.425000", "132555.698000", "132556.946000", "132558.201000", "132559.461000", "132600.698000", "132601.967000", "132603.264000", "132604.516000", "132605.699000", "132606.997000", "132608.192000", "132609.452000", "132610.684000", "132611.950000", "132613.281000", "132614.445000", "132615.775000", "132616.966000", "132618.198000", "132619.465000", "132620.719000", "132622.002000", "132623.219000", "132624.468000", "132625.776000", "132626.958000", "132628.250000", "132629.502000", "132630.789000", "132631.963000", "132633.227000", "132634.478000", "132635.730000", "132636.944000", "132638.222000", "132639.447000", "132640.715000", "132641.988000", "132643.215000", "132644.460000", "132645.728000", "132646.959000", "132648.201000", "132649.463000", "132650.710000", "132651.968000", "132653.218000", "132654.491000", "132655.746000", "132656.968000", "132658.216000", "132659.462000", "132700.727000", "132701.959000", "132703.199000", "132704.472000", "132705.699000", "132706.980000", "132708.233000", "132709.465000", "132710.696000", "132711.968000", "132713.269000", "132714.449000", "132715.741000", "132716.953000", "132718.190000", "132719.420000", "132720.738000", "132721.993000", "132723.235000", "132724.463000", "132725.699000", "132726.972000", "132728.245000", "132729.467000", "132730.724000", "132731.956000", "132733.211000", "132734.443000", "132735.725000", "132736.959000", "132738.220000", "132739.466000", "132740.714000", "132741.947000", "132743.209000", "132744.505000", "132745.751000", "132746.968000", "132748.214000", "132749.455000", "132750.694000", "132751.994000", "132753.218000", "132754.460000", "132755.702000", "132756.974000", "132758.231000", "132759.445000", "132800.747000", "132801.993000", "132803.217000", "132804.446000", "132805.738000", "132806.956000", "132808.199000", "132809.434000", "132810.702000", "132812.003000", "132813.227000", "132814.455000", "132815.729000", "132816.970000", "132818.208000", "132819.429000", "132820.695000", "132821.943000", "132823.228000", "132824.437000", "132825.696000", "132826.966000", "132828.195000", "132829.469000", "132830.728000", "132831.960000", "132833.198000", "132834.534000", "132835.717000", "132836.971000", "132838.224000", "132839.495000", "132840.747000", "132841.992000", "132843.197000", "132844.424000", "132845.681000", "132847.001000", "132848.183000", "132849.462000", "132850.704000", "132851.946000", "132853.236000", "132854.480000", "132855.759000", "132856.959000", "132858.218000", "132859.435000", "132900.720000", "132902.000000", "132903.231000", "132904.433000", "132905.750000", "132906.963000", "132908.240000", "132909.454000", "132910.698000", "132912.022000", "132913.234000", "132914.476000", "132915.751000", "132916.976000", "132918.220000", "132919.458000", "132920.773000", "132921.950000", "132923.204000", "132924.446000", "132925.710000", "132926.962000", "132928.199000", "132929.474000", "132930.717000", "132931.958000", "132933.192000", "132934.457000", "132935.713000", "132936.973000", "132938.207000", "132939.467000", "132940.685000", "132941.957000", "132943.240000", "132944.478000", "132945.709000", "132946.972000", "132948.220000", "132949.463000", "132950.727000", "132951.982000"],
      "InstanceNumber": [1, 2, 3, 4, 5, 6, 7, 8, 9, 10, 11, 12, 13, 14, 15, 16, 17, 18, 19, 20, 21, 22, 23, 24, 25, 26, 27, 28, 29, 30, 31, 32, 33, 34, 35, 36, 37, 38, 39, 40, 41, 42, 43, 44, 45, 46, 47, 48, 49, 50, 51, 52, 53, 54, 55, 56, 57, 58, 59, 60, 61, 62, 63, 64, 65, 66, 67, 68, 69, 70, 71, 72, 73, 74, 75, 76, 77, 78, 79, 80, 81, 82, 83, 84, 85, 86, 87, 88, 89, 90, 91, 92, 93, 94, 95, 96, 97, 98, 99, 100, 101, 102, 103, 104, 105, 106, 107, 108, 109, 110, 111, 112, 113, 114, 115, 116, 117, 118, 119, 120, 121, 122, 123, 124, 125, 126, 127, 128, 129, 130, 131, 132, 133, 134, 135, 136, 137, 138, 139, 140, 141, 142, 143, 144, 145, 146, 147, 148, 149, 150, 151, 152, 153, 154, 155, 156, 157, 158, 159, 160, 161, 162, 163, 164, 165, 166, 167, 168, 169, 170, 171, 172, 173, 174, 175, 176, 177, 178, 179, 180, 181, 182, 183, 184, 185, 186, 187, 188, 189, 190, 191, 192, 193, 194, 195, 196, 197, 198, 199, 200, 201, 202, 203, 204, 205, 206, 207, 208, 209, 210, 211, 212, 213, 214, 215, 216, 217, 218, 219, 220, 221, 222, 223, 224, 225, 226, 227, 228, 229, 230, 231, 232, 233, 234, 235, 236, 237, 238, 239, 240, 241, 242, 243, 244, 245, 246, 247, 248, 249, 250, 251, 252, 253, 254, 255, 256, 257, 258, 259, 260, 261, 262, 263, 264, 265, 266, 267, 268, 269, 270, 271, 272, 273, 274, 275, 276, 277, 278, 279, 280],
      "LargestImagePixelValue": [795, 701, 819, 900, 907, 840, 786, 853, 757, 825, 706, 723, 719, 881, 826, 982, 888, 749, 825, 777, 793, 692, 731, 716, 799, 773, 753, 756, 837, 799, 720, 839, 823, 822, 725, 763, 609, 647, 619, 625, 1087, 925, 830, 858, 808, 838, 779, 828, 763, 833, 720, 796, 743, 884, 761, 847, 752, 800, 761, 764, 806, 765, 731, 734, 774, 744, 704, 738, 749, 719, 667, 717, 628, 655, 605, 608, 642, 604, 775, 613, 638, 600, 595, 639, 650, 636, 681, 778, 653, 599, 606, 617, 663, 645, 636, 623, 588, 598, 613, 630, 824, 790, 765, 634, 606, 709, 819, 983, 898, 793, 783, 730, 768, 732, 736, 734, 715, 650, 697, 689, 773, 692, 695, 645, 666, 729, 638, 593, 609, 623, 608, 592, 649, 736, 662, 614, 696, 730, 711, 765, 659, 932, 931, 846, 756, 827, 746, 761, 711, 716, 729, 694, 708, 606, 669, 691, 721, 614, 584, 614, 604, 593, 633, 602, 693, 726, 636, 605, 821, 835, 733, 686, 726, 666, 837, 791, 794, 833, 722, 707, 712, 738, 803, 828, 742, 762, 716, 741, 800, 772, 801, 771, 735, 747, 719, 706, 803, 763, 795, 792, 775, 686, 790, 767, 810, 766, 754, 685, 791, 751, 768, 717, 779, 713, 681, 616, 702, 703, 749, 624, 602, 852, 760, 808, 746, 733, 787, 689, 791, 681, 642, 605, 607, 824, 694, 783, 775, 822, 779, 741, 718, 674, 792, 831, 831, 880, 715, 732, 713, 810, 800, 777, 762, 669, 738, 704, 794, 756, 676, 863, 807, 722, 723, 725, 786, 732, 702, 772, 815, 768, 783, 687, 653, 595, 666, 597, 662, 630, 700, 729],
      "WindowCenter": [299.0, 297.0, 298.0, 298.0, 298.0, 298.0, 298.0, 300.0, 299.0, 300.0, 297.0, 297.0, 297.0, 299.0, 298.0, 300.0, 299.0, 297.0, 299.0, 298.0, 298.0, 297.0, 298.0, 298.0, 299.0, 299.0, 299.0, 299.0, 300.0, 299.0, 298.0, 300.0, 300.0, 299.0, 298.0, 299.0, 296.0, 297.0, 296.0, 297.0, 302.0, 300.0, 299.0, 299.0, 299.0, 299.0, 298.0, 299.0, 298.0, 299.0, 297.0, 298.0, 298.0, 300.0, 298.0, 299.0, 298.0, 298.0, 298.0, 298.0, 298.0, 298.0, 298.0, 298.0, 298.0, 298.0, 297.0, 298.0, 298.0, 297.0, 297.0, 297.0, 296.0, 297.0, 295.0, 295.0, 296.0, 295.0, 299.0, 296.0, 297.0, 296.0, 295.0, 297.0, 297.0, 297.0, 297.0, 298.0, 297.0, 295.0, 295.0, 295.0, 297.0, 296.0, 296.0, 295.0, 295.0, 295.0, 296.0, 296.0, 299.0, 298.0, 298.0, 296.0, 296.0, 298.0, 299.0, 300.0, 300.0, 298.0, 298.0, 298.0, 299.0, 298.0, 298.0, 297.0, 297.0, 296.0, 297.0, 297.0, 299.0, 297.0, 297.0, 296.0, 297.0, 298.0, 296.0, 295.0, 295.0, 296.0, 296.0, 296.0, 297.0, 299.0, 297.0, 296.0, 297.0, 297.0, 297.0, 298.0, 297.0, 300.0, 300.0, 299.0, 297.0, 298.0, 297.0, 298.0, 297.0, 297.0, 297.0, 296.0, 297.0, 295.0, 297.0, 297.0, 298.0, 295.0, 295.0, 295.0, 295.0, 295.0, 297.0, 295.0, 297.0, 297.0, 296.0, 295.0, 298.0, 299.0, 298.0, 297.0, 298.0, 297.0, 299.0, 298.0, 298.0, 299.0, 297.0, 297.0, 298.0, 299.0, 298.0, 298.0, 298.0, 298.0, 297.0, 298.0, 299.0, 298.0, 299.0, 299.0, 298.0, 298.0, 297.0, 297.0, 299.0, 299.0, 299.0, 299.0, 298.0, 297.0, 298.0, 298.0, 299.0, 298.0, 298.0, 296.0, 298.0, 298.0, 299.0, 298.0, 298.0, 297.0, 296.0, 295.0, 298.0, 298.0, 299.0, 296.0, 295.0, 299.0, 298.0, 298.0, 298.0, 298.0, 299.0, 297.0, 299.0, 297.0, 296.0, 295.0, 295.0, 299.0, 298.0, 299.0, 299.0, 300.0, 299.0, 298.0, 298.0, 298.0, 299.0, 299.0, 299.0, 299.0, 297.0, 297.0, 297.0, 299.0, 298.0, 298.0, 298.0, 296.0, 297.0, 296.0, 298.0, 298.0, 297.0, 299.0, 299.0, 297.0, 297.0, 297.0, 298.0, 297.0, 297.0, 298.0, 299.0, 298.0, 299.0, 297.0, 297.0, 296.0, 297.0, 295.0, 297.0, 296.0, 297.0, 298.0],
      "WindowWidth": [651.0, 647.0, 648.0, 649.0, 649.0, 649.0, 649.0, 652.0, 650.0, 652.0, 648.0, 648.0, 648.0, 650.0, 649.0, 651.0, 650.0, 648.0, 650.0, 649.0, 649.0, 647.0, 649.0, 649.0, 651.0, 651.0, 650.0, 650.0, 652.0, 651.0, 649.0, 652.0, 652.0, 651.0, 649.0, 650.0, 646.0, 648.0, 647.0, 648.0, 655.0, 652.0, 651.0, 651.0, 651.0, 651.0, 650.0, 651.0, 649.0, 650.0, 648.0, 650.0, 649.0, 652.0, 649.0, 651.0, 649.0, 650.0, 649.0, 649.0, 650.0, 649.0, 648.0, 649.0, 649.0, 649.0, 648.0, 649.0, 649.0, 648.0, 647.0, 648.0, 646.0, 647.0, 646.0, 646.0, 647.0, 646.0, 650.0, 647.0, 648.0, 646.0, 646.0, 648.0, 649.0, 648.0, 648.0, 649.0, 647.0, 645.0, 645.0, 646.0, 647.0, 646.0, 646.0, 645.0, 645.0, 646.0, 647.0, 647.0, 651.0, 650.0, 649.0, 647.0, 647.0, 649.0, 651.0, 652.0, 652.0, 650.0, 648.0, 649.0, 650.0, 649.0, 649.0, 648.0, 648.0, 646.0, 648.0, 647.0, 650.0, 648.0, 648.0, 646.0, 647.0, 649.0, 646.0, 646.0, 646.0, 647.0, 647.0, 647.0, 649.0, 651.0, 648.0, 647.0, 647.0, 648.0, 648.0, 649.0, 647.0, 651.0, 651.0, 650.0, 647.0, 649.0, 648.0, 649.0, 648.0, 648.0, 648.0, 647.0, 648.0, 644.0, 647.0, 648.0, 649.0, 646.0, 645.0, 645.0, 646.0, 646.0, 648.0, 646.0, 648.0, 648.0, 647.0, 646.0, 649.0, 651.0, 649.0, 648.0, 649.0, 648.0, 651.0, 650.0, 650.0, 650.0, 648.0, 648.0, 649.0, 650.0, 650.0, 650.0, 649.0, 649.0, 648.0, 648.0, 650.0, 650.0, 650.0, 650.0, 649.0, 648.0, 648.0, 648.0, 651.0, 650.0, 651.0, 650.0, 650.0, 647.0, 650.0, 649.0, 650.0, 649.0, 648.0, 646.0, 650.0, 650.0, 650.0, 649.0, 650.0, 647.0, 646.0, 645.0, 649.0, 649.0, 650.0, 647.0, 646.0, 650.0, 649.0, 650.0, 649.0, 649.0, 650.0, 648.0, 651.0, 648.0, 646.0, 645.0, 646.0, 651.0, 649.0, 651.0, 651.0, 652.0, 650.0, 649.0, 649.0, 649.0, 651.0, 651.0, 651.0, 650.0, 648.0, 648.0, 648.0, 650.0, 650.0, 648.0, 649.0, 646.0, 647.0, 647.0, 650.0, 650.0, 648.0, 651.0, 650.0, 648.0, 648.0, 648.0, 650.0, 648.0, 647.0, 649.0, 651.0, 649.0, 650.0, 647.0, 647.0, 646.0, 647.0, 645.0, 647.0, 646.0, 648.0, 649.0]
    },
    "slices": {}
  }
}