{
  "AcquisitionMatrixPE": 96,
  "AcquisitionNumber": 1,
  "AcquisitionTime": "13:17:34.420000",
  "BandwidthPerPixelPhaseEncode": 18.939,
  "BaseResolution": 96,
  "BodyPartExamined": "BRAIN",
  "ConsistencyInfo": "N4_VE11C_LATEST_20160120",
  "ConversionSoftware": "dcm2niix",
  "ConversionSoftwareVersion": "v1.0.20170923 (OpenJPEG build) GCC6.3.0",
  "DerivedVendorReportedEchoSpacing": 0.000550011,
  "DeviceSerialNumber": "66112",
  "DwellTime": 2.3e-06,
  "EchoTime": 0.033,
  "EchoTrainLength": 96,
  "EffectiveEchoSpacing": 0.000550011,
  "FlipAngle": 64,
  "ImageType": [
    "ORIGINAL",
    "PRIMARY",
    "FMRI",
    "NONE",
    "ND",
    "NORM",
    "MOSAIC"
],
  "InstitutionAddress": "Maynard_3_Hanover_NH_US_03755",
  "InstitutionName": "Dartmouth_College_-_PBS",
  "MagneticFieldStrength": 3,
  "Manufacturer": "Siemens",
  "ManufacturersModelName": "Prisma",
  "Modality": "MR",
  "MultibandAccelerationFactor": 4,
  "PartialFourier": 1,
  "PercentPhaseFOV": 100,
  "PhaseEncodingDirection": "j-",
  "PhaseEncodingSteps": 96,
  "PhaseResolution": 1,
  "ProcedureStepDescription": "Gobbini_Matteo_1017_famface-angles",
  "ProtocolName": "func_run-01_task-fam1back",
  "PulseSequenceDetails": "%SiemensSeq%_ep2d_bold",
  "ReceiveCoilActiveElements": "HEA;HEP",
  "ReceiveCoilName": "Head_32",
  "ReconMatrixPE": 96,
  "RepetitionTime": 1.25,
  "ScanOptions": "FS",
  "ScanningSequence": "EP",
  "SequenceName": "_epfid2d1_96",
  "SequenceVariant": "SK",
  "SeriesDescription": "func_run-01_task-fam1back",
  "SliceTiming": [0.8775, 0, 0.615, 0.0875, 0.7025, 0.175, 0.79, 0.35, 0.965, 0.44, 1.055, 0.5275, 1.1425, 0.2625, 0.8775, 0, 0.615, 0.0875, 0.7025, 0.175, 0.79, 0.35, 0.965, 0.44, 1.055, 0.5275, 1.1425, 0.2625, 0.8775, 0, 0.615, 0.0875, 0.7025, 0.175, 0.79, 0.35, 0.965, 0.44, 1.055, 0.5275, 1.1425, 0.2625, 0.8775, 0, 0.615, 0.0875, 0.7025, 0.175, 0.79, 0.35, 0.965, 0.44, 1.055, 0.5275, 1.1425, 0.2625],
  "SoftwareVersions": "syngo_MR_E11",
  "StationName": "AWP66112",
  "TaskName": "fam1back",
  "TotalReadoutTime": 0.0522511,
  "dcmmeta_affine": [
    [-2.4999608993530273, 0.01396265346556902, 0.0006559203611686826, 120.99462890625],
    [0.013977774418890476, 2.4978954792022705, 0.1016010120511055, -97.42794036865234],
    [8.79202998476103e-05, -0.10160309076309204, 2.497934579849243, -86.63306427001953],
    [0.0, 0.0, 0.0, 1.0]
],
  "dcmmeta_reorient_transform": [
    [0.0, -1.0, 0.0, 95.0],
    [1.0, 0.0, 0.0, 0.0],
    [0.0, 0.0, 1.0, 0.0],
    [0.0, 0.0, 0.0, 1.0]
],
  "dcmmeta_shape": [96, 96, 56, 280],
  "dcmmeta_slice_dim": 2,
  "dcmmeta_version": 0.6,
  "global": {
    "const": {
      "AccessionNumber": "A000640",
      "AcquisitionMatrix": [96, 0, 0, 96],
      "AngioFlag": "N",
      "BitsAllocated": 16,
      "BitsStored": 12,
      "BodyPartExamined": "BRAIN",
      "Columns": 768,
      "EchoNumbers": 1,
      "EchoTime": 33.0,
      "EchoTrainLength": 96,
      "FlipAngle": 64.0,
      "HighBit": 11,
      "ImageOrientationPatient": [0.9999843690042, -0.0055911099511, 3.516812105e-05, 0.00558506134659, 0.99915819421312, 0.04064123554384],
      "ImagePositionPatient": [-966.99940398648, -974.46848391459, -130.45353758176],
      "ImageType": [
        "ORIGINAL",
        "PRIMARY",
        "FMRI",
        "NONE",
        "ND",
        "NORM",
        "MOSAIC"
],
      "ImagedNucleus": "1H",
      "ImagingFrequency": 123.252301,
      "InPlanePhaseEncodingDirection": "COL",
      "MRAcquisitionType": "2D",
      "MagneticFieldStrength": 3.0,
      "Manufacturer": "SIEMENS",
      "ManufacturerModelName": "Prisma",
      "Modality": "MR",
      "NumberOfAverages": 1.0,
      "NumberOfPhaseEncodingSteps": 96,
      "PercentPhaseFieldOfView": 100.0,
      "PercentSampling": 100.0,
      "PerformedProcedureStepStartTime": "125753.859000",
      "PhotometricInterpretation": "MONOCHROME2",
      "PixelBandwidth": 2265.0,
      "PixelRepresentation": 0,
      "PixelSpacing": [2.5, 2.5],
      "PositionReferenceIndicator": "",
      "ProtocolName": "func_run-01_task-fam1back",
      "RepetitionTime": 1250.0,
      "Rows": 768,
      "SAR": 0.07222446161671,
      "SamplesPerPixel": 1,
      "ScanOptions": "FS",
      "ScanningSequence": "EP",
      "SequenceName": "*epfid2d1_96",
      "SequenceVariant": "SK",
      "SeriesDescription": "func_run-01_task-fam1back",
      "SeriesNumber": 11,
      "SeriesTime": "131735.945000",
      "SliceLocation": -90.489254701413,
      "SliceThickness": 2.5,
      "SmallestImagePixelValue": 0,
      "SoftwareVersions": "syngo MR E11",
      "SpacingBetweenSlices": 2.5000000065041,
      "SpecificCharacterSet": "ISO_IR 100",
      "StudyID": "1",
      "StudyTime": "125753.772000",
      "TransmitCoilName": "Body",
      "VariableFlipAngleFlag": "N",
      "WindowCenterWidthExplanation": "Algo1",
      "dBdt": 0.0},
    "slices": {}
  },
  "time": {
    "samples": {
      "AcquisitionNumber": [1, 2, 3, 4, 5, 6, 7, 8, 9, 10, 11, 12, 13, 14, 15, 16, 17, 18, 19, 20, 21, 22, 23, 24, 25, 26, 27, 28, 29, 30, 31, 32, 33, 34, 35, 36, 37, 38, 39, 40, 41, 42, 43, 44, 45, 46, 47, 48, 49, 50, 51, 52, 53, 54, 55, 56, 57, 58, 59, 60, 61, 62, 63, 64, 65, 66, 67, 68, 69, 70, 71, 72, 73, 74, 75, 76, 77, 78, 79, 80, 81, 82, 83, 84, 85, 86, 87, 88, 89, 90, 91, 92, 93, 94, 95, 96, 97, 98, 99, 100, 101, 102, 103, 104, 105, 106, 107, 108, 109, 110, 111, 112, 113, 114, 115, 116, 117, 118, 119, 120, 121, 122, 123, 124, 125, 126, 127, 128, 129, 130, 131, 132, 133, 134, 135, 136, 137, 138, 139, 140, 141, 142, 143, 144, 145, 146, 147, 148, 149, 150, 151, 152, 153, 154, 155, 156, 157, 158, 159, 160, 161, 162, 163, 164, 165, 166, 167, 168, 169, 170, 171, 172, 173, 174, 175, 176, 177, 178, 179, 180, 181, 182, 183, 184, 185, 186, 187, 188, 189, 190, 191, 192, 193, 194, 195, 196, 197, 198, 199, 200, 201, 202, 203, 204, 205, 206, 207, 208, 209, 210, 211, 212, 213, 214, 215, 216, 217, 218, 219, 220, 221, 222, 223, 224, 225, 226, 227, 228, 229, 230, 231, 232, 233, 234, 235, 236, 237, 238, 239, 240, 241, 242, 243, 244, 245, 246, 247, 248, 249, 250, 251, 252, 253, 254, 255, 256, 257, 258, 259, 260, 261, 262, 263, 264, 265, 266, 267, 268, 269, 270, 271, 272, 273, 274, 275, 276, 277, 278, 279, 280],
      "AcquisitionTime": ["131734.420000", "131735.670000", "131736.920000", "131738.170000", "131739.420000", "131740.670000", "131741.920000", "131743.170000", "131744.420000", "131745.670000", "131746.920000", "131748.170000", "131749.420000", "131750.670000", "131751.920000", "131753.170000", "131754.420000", "131755.670000", "131756.920000", "131758.170000", "131759.420000", "131800.670000", "131801.920000", "131803.170000", "131804.420000", "131805.670000", "131806.920000", "131808.170000", "131809.420000", "131810.670000", "131811.920000", "131813.170000", "131814.420000", "131815.670000", "131816.920000", "131818.170000", "131819.420000", "131820.670000", "131821.920000", "131823.170000", "131824.420000", "131825.670000", "131826.920000", "131828.170000", "131829.420000", "131830.670000", "131831.920000", "131833.170000", "131834.420000", "131835.670000", "131836.920000", "131838.170000", "131839.420000", "131840.670000", "131841.920000", "131843.170000", "131844.420000", "131845.670000", "131846.920000", "131848.170000", "131849.420000", "131850.670000", "131851.920000", "131853.170000", "131854.420000", "131855.670000", "131856.920000", "131858.170000", "131859.420000", "131900.670000", "131901.920000", "131903.170000", "131904.420000", "131905.670000", "131906.920000", "131908.170000", "131909.420000", "131910.670000", "131911.920000", "131913.170000", "131914.420000", "131915.670000", "131916.920000", "131918.170000", "131919.420000", "131920.670000", "131921.920000", "131923.170000", "131924.420000", "131925.670000", "131926.920000", "131928.170000", "131929.420000", "131930.670000", "131931.920000", "131933.170000", "131934.420000", "131935.670000", "131936.920000", "131938.170000", "131939.420000", "131940.670000", "131941.920000", "131943.170000", "131944.420000", "131945.670000", "131946.920000", "131948.170000", "131949.420000", "131950.670000", "131951.920000", "131953.170000", "131954.420000", "131955.670000", "131956.920000", "131958.170000", "131959.420000", "132000.670000", "132001.920000", "132003.170000", "132004.420000", "132005.670000", "132006.920000", "132008.170000", "132009.420000", "132010.670000", "132011.920000", "132013.170000", "132014.420000", "132015.670000", "132016.920000", "132018.170000", "132019.420000", "132020.670000", "132021.920000", "132023.170000", "132024.420000", "132025.670000", "132026.920000", "132028.170000", "132029.420000", "132030.670000", "132031.920000", "132033.170000", "132034.420000", "132035.670000", "132036.920000", "132038.170000", "132039.420000", "132040.670000", "132041.920000", "132043.170000", "132044.420000", "132045.670000", "132046.920000", "132048.170000", "132049.420000", "132050.670000", "132051.920000", "132053.170000", "132054.420000", "132055.670000", "132056.920000", "132058.170000", "132059.420000", "132100.670000", "132101.920000", "132103.170000", "132104.420000", "132105.670000", "132106.920000", "132108.170000", "132109.420000", "132110.670000", "132111.920000", "132113.170000", "132114.420000", "132115.670000", "132116.920000", "132118.170000", "132119.420000", "132120.670000", "132121.920000", "132123.170000", "132124.420000", "132125.670000", "132126.920000", "132128.170000", "132129.420000", "132130.670000", "132131.920000", "132133.170000", "132134.420000", "132135.670000", "132136.920000", "132138.170000", "132139.420000", "132140.670000", "132141.920000", "132143.170000", "132144.420000", "132145.670000", "132146.920000", "132148.170000", "132149.420000", "132150.670000", "132151.920000", "132153.170000", "132154.420000", "132155.670000", "132156.920000", "132158.170000", "132159.420000", "132200.670000", "132201.920000", "132203.170000", "132204.420000", "132205.670000", "132206.920000", "132208.170000", "132209.420000", "132210.670000", "132211.920000", "132213.170000", "132214.420000", "132215.670000", "132216.920000", "132218.170000", "132219.420000", "132220.670000", "132221.920000", "132223.170000", "132224.420000", "132225.670000", "132226.920000", "132228.170000", "132229.420000", "132230.670000", "132231.920000", "132233.170000", "132234.420000", "132235.670000", "132236.920000", "132238.170000", "132239.420000", "132240.670000", "132241.920000", "132243.170000", "132244.420000", "132245.670000", "132246.920000", "132248.170000", "132249.420000", "132250.670000", "132251.920000", "132253.170000", "132254.420000", "132255.670000", "132256.920000", "132258.170000", "132259.420000", "132300.670000", "132301.920000", "132303.170000", "132304.420000", "132305.670000", "132306.920000", "132308.170000", "132309.420000", "132310.670000", "132311.920000", "132313.170000", "132314.420000", "132315.670000", "132316.920000", "132318.170000", "132319.420000", "132320.670000", "132321.920000", "132323.170000"],
      "ContentTime": ["131735.949000", "131737.034000", "131738.308000", "131739.618000", "131740.775000", "131742.079000", "131743.321000", "131744.598000", "131745.793000", "131747.033000", "131748.269000", "131749.582000", "131750.795000", "131752.070000", "131753.298000", "131754.526000", "131755.793000", "131757.049000", "131758.300000", "131759.565000", "131800.808000", "131802.020000", "131803.315000", "131804.526000", "131805.807000", "131807.039000", "131808.314000", "131809.551000", "131810.800000", "131812.047000", "131813.298000", "131814.558000", "131815.794000", "131817.083000", "131818.291000", "131819.517000", "131820.798000", "131822.044000", "131823.304000", "131824.561000", "131825.820000", "131827.035000", "131828.292000", "131829.550000", "131830.779000", "131832.059000", "131833.287000", "131834.540000", "131835.794000", "131837.044000", "131838.280000", "131839.524000", "131840.820000", "131842.021000", "131843.315000", "131844.548000", "131845.784000", "131847.053000", "131848.273000", "131849.547000", "131850.879000", "131852.047000", "131853.287000", "131854.524000", "131855.803000", "131857.049000", "131858.327000", "131859.572000", "131900.809000", "131902.026000", "131903.302000", "131904.544000", "131905.812000", "131907.075000", "131908.363000", "131909.606000", "131910.772000", "131912.057000", "131913.287000", "131914.555000", "131915.795000", "131917.041000", "131918.315000", "131919.556000", "131920.780000", "131922.047000", "131923.315000", "131924.546000", "131925.771000", "131927.126000", "131928.311000", "131929.512000", "131930.784000", "131932.042000", "131933.280000", "131934.523000", "131935.802000", "131937.041000", "131938.331000", "131939.534000", "131940.863000", "131942.076000", "131943.306000", "131944.566000", "131945.768000", "131947.091000", "131948.293000", "131949.556000", "131950.795000", "131952.057000", "131953.302000", "131954.588000", "131955.824000", "131957.060000", "131958.289000", "131959.520000", "132000.819000", "132002.083000", "132003.280000", "132004.597000", "132005.809000", "132007.049000", "132008.288000", "132009.576000", "132010.873000", "132012.088000", "132013.299000", "132014.557000", "132015.798000", "132017.107000", "132018.302000", "132019.539000", "132020.850000", "132022.090000", "132023.289000", "132024.556000", "132025.801000", "132027.060000", "132028.273000", "132029.542000", "132030.845000", "132032.087000", "132033.297000", "132034.657000", "132035.815000", "132037.059000", "132038.292000", "132039.555000", "132040.826000", "132042.050000", "132043.327000", "132044.544000", "132045.812000", "132047.106000", "132048.281000", "132049.571000", "132050.808000", "132052.003000", "132053.328000", "132054.553000", "132055.789000", "132057.048000", "132058.275000", "132059.603000", "132100.794000", "132102.051000", "132103.354000", "132104.571000", "132105.831000", "132107.051000", "132108.290000", "132109.555000", "132110.844000", "132112.057000", "132113.303000", "132114.551000", "132115.805000", "132117.020000", "132118.304000", "132119.591000", "132120.841000", "132122.055000", "132123.300000", "132124.610000", "132125.767000", "132127.044000", "132128.316000", "132129.531000", "132130.827000", "132132.067000", "132133.282000", "132134.563000", "132135.802000", "132137.053000", "132138.289000", "132139.567000", "132140.792000", "132142.014000", "132143.288000", "132144.576000", "132145.787000", "132147.043000", "132148.341000", "132149.561000", "132150.818000", "132152.037000", "132153.300000", "132154.559000", "132155.768000", "132157.039000", "132158.279000", "132159.529000", "132200.804000", "132202.067000", "132203.278000", "132204.573000", "132205.804000", "132207.076000", "132208.294000", "132209.567000", "132210.807000", "132212.039000", "132213.276000", "132214.562000", "132215.800000", "132217.053000", "132218.301000", "132219.562000", "132220.849000", "132222.085000", "132223.338000", "132224.527000", "132225.814000", "132227.053000", "132228.309000", "132229.527000", "132230.801000", "132232.024000", "132233.285000", "132234.544000", "132235.777000", "132237.067000", "132238.317000", "132239.535000", "132240.781000", "132242.073000", "132243.305000", "132244.531000", "132245.807000", "132247.056000", "132248.299000", "132249.552000", "132250.823000", "132252.061000", "132253.308000", "132254.607000", "132255.811000", "132257.039000", "132258.283000", "132259.620000", "132300.784000", "132302.093000", "132303.302000", "132304.527000", "132305.809000", "132307.051000", "132308.319000", "132309.551000", "132310.834000", "132312.082000", "132313.291000", "132314.563000", "132315.802000", "132317.059000", "132318.300000", "132319.611000", "132320.792000", "132322.040000", "132323.294000", "132324.590000"],
      "InstanceCreationTime": ["131735.949000", "131737.034000", "131738.308000", "131739.618000", "131740.775000", "131742.079000", "131743.321000", "131744.598000", "131745.793000", "131747.033000", "131748.269000", "131749.582000", "131750.795000", "131752.070000", "131753.298000", "131754.526000", "131755.793000", "131757.049000", "131758.300000", "131759.565000", "131800.808000", "131802.020000", "131803.315000", "131804.526000", "131805.807000", "131807.039000", "131808.314000", "131809.551000", "131810.800000", "131812.047000", "131813.298000", "131814.558000", "131815.794000", "131817.083000", "131818.291000", "131819.517000", "131820.798000", "131822.044000", "131823.304000", "131824.561000", "131825.820000", "131827.035000", "131828.292000", "131829.550000", "131830.779000", "131832.059000", "131833.287000", "131834.540000", "131835.794000", "131837.044000", "131838.280000", "131839.524000", "131840.820000", "131842.021000", "131843.315000", "131844.548000", "131845.784000", "131847.053000", "131848.273000", "131849.547000", "131850.879000", "131852.047000", "131853.287000", "131854.524000", "131855.803000", "131857.049000", "131858.327000", "131859.572000", "131900.809000", "131902.026000", "131903.302000", "131904.544000", "131905.812000", "131907.075000", "131908.363000", "131909.606000", "131910.772000", "131912.057000", "131913.287000", "131914.555000", "131915.795000", "131917.041000", "131918.315000", "131919.556000", "131920.780000", "131922.047000", "131923.315000", "131924.546000", "131925.771000", "131927.126000", "131928.311000", "131929.512000", "131930.784000", "131932.042000", "131933.280000", "131934.523000", "131935.802000", "131937.041000", "131938.331000", "131939.534000", "131940.863000", "131942.076000", "131943.306000", "131944.566000", "131945.768000", "131947.091000", "131948.293000", "131949.556000", "131950.795000", "131952.057000", "131953.302000", "131954.588000", "131955.824000", "131957.060000", "131958.289000", "131959.520000", "132000.819000", "132002.083000", "132003.280000", "132004.597000", "132005.809000", "132007.049000", "132008.288000", "132009.576000", "132010.873000", "132012.088000", "132013.299000", "132014.557000", "132015.798000", "132017.107000", "132018.302000", "132019.539000", "132020.850000", "132022.090000", "132023.289000", "132024.556000", "132025.801000", "132027.060000", "132028.273000", "132029.542000", "132030.845000", "132032.087000", "132033.297000", "132034.657000", "132035.815000", "132037.059000", "132038.292000", "132039.555000", "132040.826000", "132042.050000", "132043.327000", "132044.544000", "132045.812000", "132047.106000", "132048.281000", "132049.571000", "132050.808000", "132052.003000", "132053.328000", "132054.553000", "132055.789000", "132057.048000", "132058.275000", "132059.603000", "132100.794000", "132102.051000", "132103.354000", "132104.571000", "132105.831000", "132107.051000", "132108.290000", "132109.555000", "132110.844000", "132112.057000", "132113.303000", "132114.551000", "132115.805000", "132117.020000", "132118.304000", "132119.591000", "132120.841000", "132122.055000", "132123.300000", "132124.610000", "132125.767000", "132127.044000", "132128.316000", "132129.531000", "132130.827000", "132132.067000", "132133.282000", "132134.563000", "132135.802000", "132137.053000", "132138.289000", "132139.567000", "132140.792000", "132142.014000", "132143.288000", "132144.576000", "132145.787000", "132147.043000", "132148.341000", "132149.561000", "132150.818000", "132152.037000", "132153.300000", "132154.559000", "132155.768000", "132157.039000", "132158.279000", "132159.529000", "132200.804000", "132202.067000", "132203.278000", "132204.573000", "132205.804000", "132207.076000", "132208.294000", "132209.567000", "132210.807000", "132212.039000", "132213.276000", "132214.562000", "132215.800000", "132217.053000", "132218.301000", "132219.562000", "132220.849000", "132222.085000", "132223.338000", "132224.527000", "132225.814000", "132227.053000", "132228.309000", "132229.527000", "132230.801000", "132232.024000", "132233.285000", "132234.544000", "132235.777000", "132237.067000", "132238.317000", "132239.535000", "132240.781000", "132242.073000", "132243.305000", "132244.531000", "132245.807000", "132247.056000", "132248.299000", "132249.552000", "132250.823000", "132252.061000", "132253.308000", "132254.607000", "132255.811000", "132257.039000", "132258.283000", "132259.620000", "132300.784000", "132302.093000", "132303.302000", "132304.527000", "132305.809000", "132307.051000", "132308.319000", "132309.551000", "132310.834000", "132312.082000", "132313.291000", "132314.563000", "132315.802000", "132317.059000", "132318.300000", "132319.611000", "132320.792000", "132322.040000", "132323.294000", "132324.590000"],
      "InstanceNumber": [1, 2, 3, 4, 5, 6, 7, 8, 9, 10, 11, 12, 13, 14, 15, 16, 17, 18, 19, 20, 21, 22, 23, 24, 25, 26, 27, 28, 29, 30, 31, 32, 33, 34, 35, 36, 37, 38, 39, 40, 41, 42, 43, 44, 45, 46, 47, 48, 49, 50, 51, 52, 53, 54, 55, 56, 57, 58, 59, 60, 61, 62, 63, 64, 65, 66, 67, 68, 69, 70, 71, 72, 73, 74, 75, 76, 77, 78, 79, 80, 81, 82, 83, 84, 85, 86, 87, 88, 89, 90, 91, 92, 93, 94, 95, 96, 97, 98, 99, 100, 101, 102, 103, 104, 105, 106, 107, 108, 109, 110, 111, 112, 113, 114, 115, 116, 117, 118, 119, 120, 121, 122, 123, 124, 125, 126, 127, 128, 129, 130, 131, 132, 133, 134, 135, 136, 137, 138, 139, 140, 141, 142, 143, 144, 145, 146, 147, 148, 149, 150, 151, 152, 153, 154, 155, 156, 157, 158, 159, 160, 161, 162, 163, 164, 165, 166, 167, 168, 169, 170, 171, 172, 173, 174, 175, 176, 177, 178, 179, 180, 181, 182, 183, 184, 185, 186, 187, 188, 189, 190, 191, 192, 193, 194, 195, 196, 197, 198, 199, 200, 201, 202, 203, 204, 205, 206, 207, 208, 209, 210, 211, 212, 213, 214, 215, 216, 217, 218, 219, 220, 221, 222, 223, 224, 225, 226, 227, 228, 229, 230, 231, 232, 233, 234, 235, 236, 237, 238, 239, 240, 241, 242, 243, 244, 245, 246, 247, 248, 249, 250, 251, 252, 253, 254, 255, 256, 257, 258, 259, 260, 261, 262, 263, 264, 265, 266, 267, 268, 269, 270, 271, 272, 273, 274, 275, 276, 277, 278, 279, 280],
      "LargestImagePixelValue": [1017, 1002, 930, 1010, 942, 1014, 1035, 1077, 936, 836, 923, 870, 963, 767, 733, 734, 912, 883, 992, 892, 1044, 872, 791, 869, 927, 985, 974, 957, 801, 864, 819, 959, 838, 1020, 885, 772, 703, 822, 930, 872, 1049, 823, 778, 781, 893, 866, 922, 1064, 1014, 835, 668, 749, 804, 924, 816, 1065, 811, 793, 649, 713, 857, 1090, 817, 927, 769, 854, 688, 759, 795, 898, 831, 874, 856, 849, 820, 905, 906, 913, 841, 771, 701, 731, 660, 662, 783, 754, 875, 782, 864, 843, 820, 978, 787, 720, 730, 606, 738, 643, 700, 695, 821, 833, 827, 812, 783, 816, 753, 823, 805, 978, 817, 925, 749, 826, 642, 735, 593, 731, 671, 784, 787, 764, 784, 885, 779, 929, 929, 859, 810, 821, 739, 727, 593, 663, 622, 658, 589, 726, 730, 782, 766, 780, 695, 638, 676, 676, 726, 768, 922, 790, 780, 613, 602, 595, 645, 764, 785, 824, 774, 835, 908, 742, 663, 605, 699, 781, 804, 827, 719, 585, 651, 746, 840, 797, 794, 680, 616, 676, 716, 737, 905, 791, 640, 644, 685, 825, 770, 819, 675, 637, 679, 712, 696, 794, 794, 836, 847, 714, 791, 626, 679, 590, 689, 623, 769, 725, 769, 748, 768, 751, 887, 771, 740, 721, 722, 842, 732, 840, 783, 860, 766, 839, 764, 727, 591, 658, 603, 698, 687, 729, 743, 724, 835, 732, 794, 760, 747, 741, 693, 763, 588, 632, 621, 655, 756, 676, 748, 617, 684, 622, 694, 623, 874, 785, 832, 793, 1021, 981, 730, 718, 692, 708, 716, 715, 743, 680, 739, 705, 713, 704, 704, 820, 806, 758, 706, 745, 575, 673, 640, 772],
      "WindowCenter": [301.0, 300.0, 300.0, 300.0, 300.0, 301.0, 300.0, 300.0, 299.0, 298.0, 299.0, 299.0, 299.0, 297.0, 297.0, 298.0, 301.0, 300.0, 301.0, 300.0, 302.0, 301.0, 298.0, 300.0, 300.0, 301.0, 301.0, 300.0, 298.0, 299.0, 298.0, 300.0, 299.0, 301.0, 300.0, 298.0, 298.0, 299.0, 300.0, 300.0, 301.0, 299.0, 298.0, 299.0, 301.0, 299.0, 299.0, 301.0, 301.0, 299.0, 297.0, 298.0, 299.0, 300.0, 299.0, 302.0, 299.0, 298.0, 296.0, 297.0, 299.0, 301.0, 299.0, 300.0, 298.0, 298.0, 296.0, 299.0, 299.0, 300.0, 299.0, 299.0, 298.0, 298.0, 298.0, 300.0, 300.0, 300.0, 298.0, 298.0, 296.0, 297.0, 296.0, 296.0, 298.0, 298.0, 299.0, 298.0, 299.0, 299.0, 298.0, 300.0, 298.0, 298.0, 297.0, 296.0, 297.0, 296.0, 296.0, 297.0, 299.0, 299.0, 299.0, 299.0, 298.0, 298.0, 297.0, 298.0, 298.0, 300.0, 298.0, 300.0, 297.0, 298.0, 295.0, 297.0, 295.0, 297.0, 296.0, 298.0, 297.0, 297.0, 297.0, 299.0, 298.0, 300.0, 299.0, 298.0, 298.0, 298.0, 297.0, 297.0, 294.0, 296.0, 295.0, 295.0, 293.0, 296.0, 296.0, 298.0, 297.0, 298.0, 297.0, 296.0, 297.0, 297.0, 296.0, 297.0, 299.0, 298.0, 297.0, 295.0, 294.0, 294.0, 294.0, 298.0, 298.0, 298.0, 297.0, 298.0, 298.0, 296.0, 295.0, 295.0, 297.0, 298.0, 298.0, 298.0, 296.0, 294.0, 296.0, 297.0, 298.0, 298.0, 298.0, 296.0, 295.0, 297.0, 296.0, 297.0, 299.0, 298.0, 295.0, 295.0, 297.0, 298.0, 298.0, 298.0, 297.0, 295.0, 296.0, 297.0, 297.0, 299.0, 298.0, 298.0, 298.0, 296.0, 297.0, 295.0, 296.0, 295.0, 296.0, 295.0, 297.0, 297.0, 297.0, 297.0, 298.0, 298.0, 299.0, 298.0, 296.0, 296.0, 296.0, 298.0, 297.0, 298.0, 298.0, 298.0, 297.0, 298.0, 297.0, 297.0, 295.0, 297.0, 295.0, 297.0, 296.0, 297.0, 297.0, 297.0, 298.0, 297.0, 297.0, 296.0, 297.0, 297.0, 297.0, 297.0, 293.0, 295.0, 295.0, 296.0, 297.0, 297.0, 297.0, 295.0, 296.0, 295.0, 297.0, 295.0, 299.0, 297.0, 298.0, 298.0, 299.0, 299.0, 296.0, 296.0, 296.0, 296.0, 297.0, 296.0, 296.0, 295.0, 296.0, 295.0, 296.0, 296.0, 296.0, 298.0, 298.0, 297.0, 297.0, 297.0, 294.0, 296.0, 295.0, 297.0],
      "WindowWidth": [654.0, 652.0, 651.0, 651.0, 652.0, 652.0, 652.0, 651.0, 650.0, 648.0, 650.0, 649.0, 650.0, 647.0, 648.0, 649.0, 653.0, 652.0, 653.0, 652.0, 655.0, 653.0, 649.0, 652.0, 652.0, 654.0, 653.0, 652.0, 650.0, 650.0, 649.0, 651.0, 650.0, 653.0, 651.0, 649.0, 650.0, 650.0, 652.0, 652.0, 653.0, 650.0, 649.0, 650.0, 653.0, 650.0, 651.0, 653.0, 653.0, 650.0, 648.0, 650.0, 651.0, 652.0, 650.0, 654.0, 650.0, 649.0, 646.0, 648.0, 651.0, 653.0, 651.0, 651.0, 649.0, 648.0, 646.0, 650.0, 651.0, 651.0, 650.0, 651.0, 649.0, 649.0, 649.0, 651.0, 651.0, 651.0, 649.0, 649.0, 646.0, 647.0, 646.0, 646.0, 648.0, 649.0, 650.0, 649.0, 649.0, 650.0, 649.0, 651.0, 648.0, 649.0, 647.0, 646.0, 648.0, 646.0, 647.0, 648.0, 651.0, 651.0, 651.0, 651.0, 649.0, 648.0, 646.0, 648.0, 648.0, 651.0, 649.0, 651.0, 648.0, 649.0, 645.0, 648.0, 644.0, 648.0, 646.0, 648.0, 647.0, 648.0, 647.0, 650.0, 649.0, 651.0, 650.0, 649.0, 648.0, 648.0, 647.0, 647.0, 643.0, 646.0, 644.0, 644.0, 642.0, 646.0, 646.0, 648.0, 647.0, 648.0, 648.0, 647.0, 647.0, 647.0, 647.0, 648.0, 650.0, 648.0, 647.0, 644.0, 643.0, 643.0, 644.0, 648.0, 648.0, 649.0, 647.0, 649.0, 649.0, 646.0, 645.0, 644.0, 647.0, 648.0, 648.0, 649.0, 646.0, 643.0, 646.0, 648.0, 648.0, 648.0, 648.0, 646.0, 644.0, 647.0, 646.0, 647.0, 650.0, 648.0, 645.0, 645.0, 647.0, 649.0, 648.0, 649.0, 647.0, 645.0, 647.0, 647.0, 647.0, 650.0, 649.0, 649.0, 649.0, 646.0, 647.0, 644.0, 646.0, 644.0, 646.0, 645.0, 647.0, 647.0, 647.0, 648.0, 649.0, 649.0, 650.0, 648.0, 646.0, 645.0, 646.0, 648.0, 648.0, 649.0, 648.0, 649.0, 647.0, 648.0, 647.0, 647.0, 645.0, 647.0, 645.0, 647.0, 646.0, 647.0, 647.0, 648.0, 649.0, 647.0, 647.0, 646.0, 647.0, 647.0, 647.0, 647.0, 642.0, 645.0, 644.0, 646.0, 648.0, 647.0, 647.0, 644.0, 645.0, 645.0, 648.0, 645.0, 650.0, 647.0, 649.0, 648.0, 650.0, 650.0, 646.0, 646.0, 646.0, 646.0, 646.0, 646.0, 646.0, 645.0, 646.0, 645.0, 646.0, 646.0, 646.0, 648.0, 648.0, 647.0, 647.0, 647.0, 643.0, 645.0, 645.0, 647.0]
    },
    "slices": {}
  }
}