{
  "AcquisitionMatrixPE": 96,
  "AcquisitionNumber": 1,
  "AcquisitionTime": "15:15:39.415000",
  "BandwidthPerPixelPhaseEncode": 18.939,
  "BaseResolution": 96,
  "BodyPartExamined": "BRAIN",
  "ConsistencyInfo": "N4_VE11C_LATEST_20160120",
  "ConversionSoftware": "dcm2niix",
  "ConversionSoftwareVersion": "v1.0.20170923 (OpenJPEG build) GCC6.3.0",
  "DerivedVendorReportedEchoSpacing": 0.000550011,
  "DeviceSerialNumber": "66112",
  "DwellTime": 2.3e-06,
  "EchoTime": 0.033,
  "EchoTrainLength": 96,
  "EffectiveEchoSpacing": 0.000550011,
  "FlipAngle": 64,
  "ImageType": [
    "ORIGINAL",
    "PRIMARY",
    "FMRI",
    "NONE",
    "ND",
    "NORM",
    "MOSAIC"
],
  "InstitutionAddress": "Maynard_3_Hanover_NH_US_03755",
  "InstitutionName": "Dartmouth_College_-_PBS",
  "MagneticFieldStrength": 3,
  "Manufacturer": "Siemens",
  "ManufacturersModelName": "Prisma",
  "Modality": "MR",
  "MultibandAccelerationFactor": 4,
  "PartialFourier": 1,
  "PercentPhaseFOV": 100,
  "PhaseEncodingDirection": "j-",
  "PhaseEncodingSteps": 96,
  "PhaseResolution": 1,
  "ProcedureStepDescription": "Gobbini_Matteo_1017_famface-angles",
  "ProtocolName": "func_run-10_task-fam1back",
  "PulseSequenceDetails": "%SiemensSeq%_ep2d_bold",
  "ReceiveCoilActiveElements": "HEA;HEP",
  "ReceiveCoilName": "Head_32",
  "ReconMatrixPE": 96,
  "RepetitionTime": 1.25,
  "ScanOptions": "FS",
  "ScanningSequence": "EP",
  "SequenceName": "_epfid2d1_96",
  "SequenceVariant": "SK",
  "SeriesDescription": "func_run-10_task-fam1back",
  "SliceTiming": [0.8775, 0, 0.615, 0.0875, 0.7025, 0.175, 0.79, 0.35, 0.965, 0.4375, 1.0525, 0.5275, 1.1425, 0.2625, 0.8775, 0, 0.615, 0.0875, 0.7025, 0.175, 0.79, 0.35, 0.965, 0.4375, 1.0525, 0.5275, 1.1425, 0.2625, 0.8775, 0, 0.615, 0.0875, 0.7025, 0.175, 0.79, 0.35, 0.965, 0.4375, 1.0525, 0.5275, 1.1425, 0.2625, 0.8775, 0, 0.615, 0.0875, 0.7025, 0.175, 0.79, 0.35, 0.965, 0.4375, 1.0525, 0.5275, 1.1425, 0.2625],
  "SoftwareVersions": "syngo_MR_E11",
  "StationName": "AWP66112",
  "TaskName": "fam1back",
  "TotalReadoutTime": 0.0522511,
  "dcmmeta_affine": [
    [-2.492396354675293, -0.05438418686389923, 0.18709082901477814, 122.53514099121094],
    [-0.035028863698244095, 2.4865949153900146, 0.2561623454093933, -109.8663330078125],
    [0.1916600912809372, -0.2527617812156677, 2.4797940254211426, -72.05079650878906],
    [0.0, 0.0, 0.0, 1.0]
],
  "dcmmeta_reorient_transform": [
    [0.0, -1.0, 0.0, 95.0],
    [1.0, 0.0, 0.0, 0.0],
    [0.0, 0.0, 1.0, 0.0],
    [0.0, 0.0, 0.0, 1.0]
],
  "dcmmeta_shape": [96, 96, 56, 280],
  "dcmmeta_slice_dim": 2,
  "dcmmeta_version": 0.6,
  "global": {
    "const": {
      "AccessionNumber": "A000257",
      "AcquisitionMatrix": [96, 0, 0, 96],
      "AngioFlag": "N",
      "BitsAllocated": 16,
      "BitsStored": 12,
      "BodyPartExamined": "BRAIN",
      "Columns": 768,
      "EchoNumbers": 1,
      "EchoTime": 33.0,
      "EchoTrainLength": 96,
      "FlipAngle": 64.0,
      "HighBit": 11,
      "ImageOrientationPatient": [0.99695852557906, 0.01401154592731, 0.07666403887059, -0.0217536742724, 0.99463793100553, 0.10110471730189],
      "ImagePositionPatient": [-936.54071648327, -973.62573296295, -245.38892480986],
      "ImageType": [
        "ORIGINAL",
        "PRIMARY",
        "FMRI",
        "NONE",
        "ND",
        "NORM",
        "MOSAIC"
],
      "ImagedNucleus": "1H",
      "ImagingFrequency": 123.252484,
      "InPlanePhaseEncodingDirection": "COL",
      "MRAcquisitionType": "2D",
      "MagneticFieldStrength": 3.0,
      "Manufacturer": "SIEMENS",
      "ManufacturerModelName": "Prisma",
      "Modality": "MR",
      "NumberOfAverages": 1.0,
      "NumberOfPhaseEncodingSteps": 96,
      "PercentPhaseFieldOfView": 100.0,
      "PercentSampling": 100.0,
      "PerformedProcedureStepStartTime": "135620.771000",
      "PhotometricInterpretation": "MONOCHROME2",
      "PixelBandwidth": 2265.0,
      "PixelRepresentation": 0,
      "PixelSpacing": [2.5, 2.5],
      "PositionReferenceIndicator": "",
      "ProtocolName": "func_run-10_task-fam1back",
      "RepetitionTime": 1250.0,
      "Rows": 768,
      "SAR": 0.05811172788279,
      "SamplesPerPixel": 1,
      "ScanOptions": "FS",
      "ScanningSequence": "EP",
      "SequenceName": "*epfid2d1_96",
      "SequenceVariant": "SK",
      "SeriesDescription": "func_run-10_task-fam1back",
      "SeriesNumber": 71,
      "SeriesTime": "151541.080000",
      "SliceLocation": -73.555820697713,
      "SliceThickness": 2.5,
      "SmallestImagePixelValue": 0,
      "SoftwareVersions": "syngo MR E11",
      "SpacingBetweenSlices": 2.5000000429934,
      "SpecificCharacterSet": "ISO_IR 100",
      "StudyID": "1",
      "StudyTime": "135620.665000",
      "TransmitCoilName": "Body",
      "VariableFlipAngleFlag": "N",
      "WindowCenterWidthExplanation": "Algo1",
      "dBdt": 0.0},
    "slices": {}
  },
  "time": {
    "samples": {
      "AcquisitionNumber": [1, 2, 3, 4, 5, 6, 7, 8, 9, 10, 11, 12, 13, 14, 15, 16, 17, 18, 19, 20, 21, 22, 23, 24, 25, 26, 27, 28, 29, 30, 31, 32, 33, 34, 35, 36, 37, 38, 39, 40, 41, 42, 43, 44, 45, 46, 47, 48, 49, 50, 51, 52, 53, 54, 55, 56, 57, 58, 59, 60, 61, 62, 63, 64, 65, 66, 67, 68, 69, 70, 71, 72, 73, 74, 75, 76, 77, 78, 79, 80, 81, 82, 83, 84, 85, 86, 87, 88, 89, 90, 91, 92, 93, 94, 95, 96, 97, 98, 99, 100, 101, 102, 103, 104, 105, 106, 107, 108, 109, 110, 111, 112, 113, 114, 115, 116, 117, 118, 119, 120, 121, 122, 123, 124, 125, 126, 127, 128, 129, 130, 131, 132, 133, 134, 135, 136, 137, 138, 139, 140, 141, 142, 143, 144, 145, 146, 147, 148, 149, 150, 151, 152, 153, 154, 155, 156, 157, 158, 159, 160, 161, 162, 163, 164, 165, 166, 167, 168, 169, 170, 171, 172, 173, 174, 175, 176, 177, 178, 179, 180, 181, 182, 183, 184, 185, 186, 187, 188, 189, 190, 191, 192, 193, 194, 195, 196, 197, 198, 199, 200, 201, 202, 203, 204, 205, 206, 207, 208, 209, 210, 211, 212, 213, 214, 215, 216, 217, 218, 219, 220, 221, 222, 223, 224, 225, 226, 227, 228, 229, 230, 231, 232, 233, 234, 235, 236, 237, 238, 239, 240, 241, 242, 243, 244, 245, 246, 247, 248, 249, 250, 251, 252, 253, 254, 255, 256, 257, 258, 259, 260, 261, 262, 263, 264, 265, 266, 267, 268, 269, 270, 271, 272, 273, 274, 275, 276, 277, 278, 279, 280],
      "AcquisitionTime": ["151539.415000", "151540.665000", "151541.915000", "151543.165000", "151544.415000", "151545.665000", "151546.915000", "151548.165000", "151549.415000", "151550.665000", "151551.915000", "151553.165000", "151554.415000", "151555.665000", "151556.915000", "151558.165000", "151559.415000", "151600.665000", "151601.915000", "151603.165000", "151604.415000", "151605.665000", "151606.915000", "151608.165000", "151609.415000", "151610.665000", "151611.915000", "151613.165000", "151614.415000", "151615.665000", "151616.915000", "151618.165000", "151619.415000", "151620.665000", "151621.915000", "151623.165000", "151624.415000", "151625.665000", "151626.915000", "151628.165000", "151629.415000", "151630.665000", "151631.915000", "151633.165000", "151634.415000", "151635.665000", "151636.915000", "151638.165000", "151639.415000", "151640.665000", "151641.915000", "151643.165000", "151644.415000", "151645.665000", "151646.915000", "151648.165000", "151649.415000", "151650.665000", "151651.915000", "151653.165000", "151654.415000", "151655.665000", "151656.915000", "151658.165000", "151659.415000", "151700.665000", "151701.915000", "151703.165000", "151704.415000", "151705.665000", "151706.915000", "151708.165000", "151709.415000", "151710.665000", "151711.915000", "151713.165000", "151714.415000", "151715.665000", "151716.915000", "151718.165000", "151719.415000", "151720.665000", "151721.915000", "151723.165000", "151724.415000", "151725.665000", "151726.915000", "151728.165000", "151729.415000", "151730.665000", "151731.915000", "151733.165000", "151734.415000", "151735.665000", "151736.915000", "151738.165000", "151739.415000", "151740.665000", "151741.915000", "151743.165000", "151744.415000", "151745.665000", "151746.915000", "151748.165000", "151749.415000", "151750.665000", "151751.915000", "151753.165000", "151754.415000", "151755.665000", "151756.915000", "151758.165000", "151759.415000", "151800.665000", "151801.915000", "151803.165000", "151804.415000", "151805.665000", "151806.915000", "151808.165000", "151809.415000", "151810.665000", "151811.915000", "151813.165000", "151814.415000", "151815.665000", "151816.915000", "151818.165000", "151819.415000", "151820.665000", "151821.915000", "151823.165000", "151824.415000", "151825.665000", "151826.915000", "151828.165000", "151829.415000", "151830.665000", "151831.915000", "151833.165000", "151834.415000", "151835.665000", "151836.915000", "151838.165000", "151839.415000", "151840.665000", "151841.915000", "151843.165000", "151844.415000", "151845.665000", "151846.915000", "151848.165000", "151849.415000", "151850.665000", "151851.915000", "151853.165000", "151854.415000", "151855.665000", "151856.915000", "151858.165000", "151859.415000", "151900.665000", "151901.915000", "151903.165000", "151904.415000", "151905.665000", "151906.915000", "151908.165000", "151909.415000", "151910.665000", "151911.915000", "151913.165000", "151914.415000", "151915.665000", "151916.915000", "151918.165000", "151919.415000", "151920.665000", "151921.915000", "151923.165000", "151924.415000", "151925.665000", "151926.915000", "151928.165000", "151929.415000", "151930.665000", "151931.915000", "151933.165000", "151934.415000", "151935.665000", "151936.915000", "151938.165000", "151939.415000", "151940.665000", "151941.915000", "151943.165000", "151944.415000", "151945.665000", "151946.915000", "151948.165000", "151949.415000", "151950.665000", "151951.915000", "151953.165000", "151954.415000", "151955.665000", "151956.915000", "151958.165000", "151959.415000", "152000.665000", "152001.915000", "152003.165000", "152004.415000", "152005.665000", "152006.915000", "152008.165000", "152009.415000", "152010.665000", "152011.915000", "152013.165000", "152014.415000", "152015.665000", "152016.915000", "152018.165000", "152019.415000", "152020.665000", "152021.915000", "152023.165000", "152024.415000", "152025.665000", "152026.915000", "152028.165000", "152029.415000", "152030.665000", "152031.915000", "152033.165000", "152034.415000", "152035.665000", "152036.915000", "152038.165000", "152039.415000", "152040.665000", "152041.915000", "152043.165000", "152044.415000", "152045.665000", "152046.915000", "152048.165000", "152049.415000", "152050.665000", "152051.915000", "152053.165000", "152054.415000", "152055.665000", "152056.915000", "152058.165000", "152059.415000", "152100.665000", "152101.915000", "152103.165000", "152104.415000", "152105.665000", "152106.915000", "152108.165000", "152109.415000", "152110.665000", "152111.915000", "152113.165000", "152114.415000", "152115.665000", "152116.915000", "152118.165000", "152119.415000", "152120.665000", "152121.915000", "152123.165000", "152124.415000", "152125.665000", "152126.915000", "152128.165000"],
      "ContentTime": ["151541.083000", "151542.158000", "151543.370000", "151544.639000", "151545.882000", "151547.127000", "151548.366000", "151549.618000", "151550.910000", "151552.135000", "151553.399000", "151554.614000", "151555.878000", "151557.122000", "151558.385000", "151559.624000", "151600.878000", "151602.119000", "151603.387000", "151604.642000", "151605.857000", "151607.107000", "151608.385000", "151609.629000", "151610.875000", "151612.135000", "151613.390000", "151614.635000", "151615.882000", "151617.148000", "151618.403000", "151619.641000", "151620.893000", "151622.137000", "151623.376000", "151624.621000", "151625.877000", "151627.117000", "151628.405000", "151629.649000", "151630.871000", "151632.133000", "151633.364000", "151634.644000", "151635.875000", "151637.125000", "151638.424000", "151639.628000", "151640.873000", "151642.111000", "151643.372000", "151644.615000", "151645.880000", "151647.123000", "151648.393000", "151649.629000", "151650.887000", "151652.132000", "151653.411000", "151654.641000", "151655.972000", "151657.103000", "151658.402000", "151659.644000", "151700.902000", "151702.125000", "151703.368000", "151704.606000", "151705.898000", "151707.161000", "151708.379000", "151709.615000", "151710.874000", "151712.118000", "151713.368000", "151714.622000", "151715.871000", "151717.090000", "151718.360000", "151719.617000", "151720.884000", "151722.119000", "151723.410000", "151724.631000", "151725.880000", "151727.161000", "151728.378000", "151729.621000", "151730.859000", "151732.196000", "151733.381000", "151734.643000", "151735.881000", "151737.119000", "151738.366000", "151739.594000", "151740.884000", "151742.112000", "151743.381000", "151744.624000", "151745.872000", "151747.176000", "151748.401000", "151749.675000", "151750.901000", "151752.135000", "151753.389000", "151754.629000", "151755.875000", "151757.141000", "151758.390000", "151759.683000", "151800.919000", "151802.134000", "151803.393000", "151804.639000", "151805.857000", "151807.149000", "151808.381000", "151809.645000", "151810.886000", "151812.161000", "151813.389000", "151814.647000", "151815.929000", "151817.155000", "151818.420000", "151819.650000", "151820.888000", "151822.146000", "151823.427000", "151824.664000", "151825.930000", "151827.133000", "151828.382000", "151829.639000", "151830.891000", "151832.201000", "151833.396000", "151834.638000", "151835.910000", "151837.141000", "151838.398000", "151839.634000", "151840.902000", "151842.169000", "151843.388000", "151844.612000", "151845.898000", "151847.134000", "151848.406000", "151849.632000", "151850.898000", "151852.142000", "151853.377000", "151854.634000", "151855.908000", "151857.135000", "151858.361000", "151859.638000", "151900.888000", "151902.140000", "151903.375000", "151904.622000", "151905.901000", "151907.156000", "151908.389000", "151909.620000", "151910.918000", "151912.126000", "151913.393000", "151914.675000", "151915.891000", "151917.148000", "151918.410000", "151919.636000", "151920.890000", "151922.118000", "151923.370000", "151924.630000", "151925.901000", "151927.135000", "151928.347000", "151929.624000", "151930.930000", "151932.153000", "151933.386000", "151934.704000", "151935.891000", "151937.154000", "151938.369000", "151939.622000", "151940.902000", "151942.166000", "151943.368000", "151944.636000", "151945.893000", "151947.185000", "151948.390000", "151949.627000", "151950.881000", "151952.131000", "151953.379000", "151954.627000", "151955.914000", "151957.121000", "151958.389000", "151959.622000", "152000.861000", "152002.143000", "152003.361000", "152004.652000", "152005.943000", "152007.146000", "152008.385000", "152009.655000", "152010.890000", "152012.135000", "152013.374000", "152014.648000", "152015.862000", "152017.123000", "152018.383000", "152019.626000", "152020.871000", "152022.145000", "152023.394000", "152024.637000", "152025.879000", "152027.191000", "152028.377000", "152029.646000", "152030.898000", "152032.126000", "152033.391000", "152034.621000", "152035.880000", "152037.108000", "152038.398000", "152039.610000", "152040.863000", "152042.188000", "152043.386000", "152044.678000", "152045.853000", "152047.120000", "152048.380000", "152049.642000", "152050.877000", "152052.121000", "152053.388000", "152054.648000", "152055.921000", "152057.120000", "152058.379000", "152059.615000", "152100.884000", "152102.132000", "152103.406000", "152104.698000", "152105.885000", "152107.186000", "152108.373000", "152109.625000", "152110.880000", "152112.140000", "152113.401000", "152114.642000", "152115.875000", "152117.137000", "152118.390000", "152119.634000", "152120.907000", "152122.179000", "152123.383000", "152124.632000", "152125.892000", "152127.159000", "152128.390000", "152129.706000"],
      "InstanceCreationTime": ["151541.083000", "151542.158000", "151543.370000", "151544.639000", "151545.882000", "151547.127000", "151548.366000", "151549.618000", "151550.910000", "151552.135000", "151553.399000", "151554.614000", "151555.878000", "151557.122000", "151558.385000", "151559.624000", "151600.878000", "151602.119000", "151603.387000", "151604.642000", "151605.857000", "151607.107000", "151608.385000", "151609.629000", "151610.875000", "151612.135000", "151613.390000", "151614.635000", "151615.882000", "151617.148000", "151618.403000", "151619.641000", "151620.893000", "151622.137000", "151623.376000", "151624.621000", "151625.877000", "151627.117000", "151628.405000", "151629.649000", "151630.871000", "151632.133000", "151633.364000", "151634.644000", "151635.875000", "151637.125000", "151638.424000", "151639.628000", "151640.873000", "151642.111000", "151643.372000", "151644.615000", "151645.880000", "151647.123000", "151648.393000", "151649.629000", "151650.887000", "151652.132000", "151653.411000", "151654.641000", "151655.972000", "151657.103000", "151658.402000", "151659.644000", "151700.902000", "151702.125000", "151703.368000", "151704.606000", "151705.898000", "151707.161000", "151708.379000", "151709.615000", "151710.874000", "151712.118000", "151713.368000", "151714.622000", "151715.871000", "151717.090000", "151718.360000", "151719.617000", "151720.884000", "151722.119000", "151723.410000", "151724.631000", "151725.880000", "151727.161000", "151728.378000", "151729.621000", "151730.859000", "151732.196000", "151733.381000", "151734.643000", "151735.881000", "151737.119000", "151738.366000", "151739.594000", "151740.884000", "151742.112000", "151743.381000", "151744.624000", "151745.872000", "151747.176000", "151748.401000", "151749.675000", "151750.901000", "151752.135000", "151753.389000", "151754.629000", "151755.875000", "151757.141000", "151758.390000", "151759.683000", "151800.919000", "151802.134000", "151803.393000", "151804.639000", "151805.857000", "151807.149000", "151808.381000", "151809.645000", "151810.886000", "151812.161000", "151813.389000", "151814.647000", "151815.929000", "151817.155000", "151818.420000", "151819.650000", "151820.888000", "151822.146000", "151823.427000", "151824.664000", "151825.930000", "151827.133000", "151828.382000", "151829.639000", "151830.891000", "151832.201000", "151833.396000", "151834.638000", "151835.910000", "151837.141000", "151838.398000", "151839.634000", "151840.902000", "151842.169000", "151843.388000", "151844.612000", "151845.898000", "151847.134000", "151848.406000", "151849.632000", "151850.898000", "151852.142000", "151853.377000", "151854.634000", "151855.908000", "151857.135000", "151858.361000", "151859.638000", "151900.888000", "151902.140000", "151903.375000", "151904.622000", "151905.901000", "151907.156000", "151908.389000", "151909.620000", "151910.918000", "151912.126000", "151913.393000", "151914.675000", "151915.891000", "151917.148000", "151918.410000", "151919.636000", "151920.890000", "151922.118000", "151923.370000", "151924.630000", "151925.901000", "151927.135000", "151928.347000", "151929.624000", "151930.930000", "151932.153000", "151933.386000", "151934.704000", "151935.891000", "151937.154000", "151938.369000", "151939.622000", "151940.902000", "151942.166000", "151943.368000", "151944.636000", "151945.893000", "151947.185000", "151948.390000", "151949.627000", "151950.881000", "151952.131000", "151953.379000", "151954.627000", "151955.914000", "151957.121000", "151958.389000", "151959.622000", "152000.861000", "152002.143000", "152003.361000", "152004.652000", "152005.943000", "152007.146000", "152008.385000", "152009.655000", "152010.890000", "152012.135000", "152013.374000", "152014.648000", "152015.862000", "152017.123000", "152018.383000", "152019.626000", "152020.871000", "152022.145000", "152023.394000", "152024.637000", "152025.879000", "152027.191000", "152028.377000", "152029.646000", "152030.898000", "152032.126000", "152033.391000", "152034.621000", "152035.880000", "152037.108000", "152038.398000", "152039.610000", "152040.863000", "152042.188000", "152043.386000", "152044.678000", "152045.853000", "152047.120000", "152048.380000", "152049.642000", "152050.877000", "152052.121000", "152053.388000", "152054.648000", "152055.921000", "152057.120000", "152058.379000", "152059.615000", "152100.884000", "152102.132000", "152103.406000", "152104.698000", "152105.885000", "152107.186000", "152108.373000", "152109.625000", "152110.880000", "152112.140000", "152113.401000", "152114.642000", "152115.875000", "152117.137000", "152118.390000", "152119.634000", "152120.907000", "152122.179000", "152123.383000", "152124.632000", "152125.892000", "152127.159000", "152128.390000", "152129.706000"],
      "InstanceNumber": [1, 2, 3, 4, 5, 6, 7, 8, 9, 10, 11, 12, 13, 14, 15, 16, 17, 18, 19, 20, 21, 22, 23, 24, 25, 26, 27, 28, 29, 30, 31, 32, 33, 34, 35, 36, 37, 38, 39, 40, 41, 42, 43, 44, 45, 46, 47, 48, 49, 50, 51, 52, 53, 54, 55, 56, 57, 58, 59, 60, 61, 62, 63, 64, 65, 66, 67, 68, 69, 70, 71, 72, 73, 74, 75, 76, 77, 78, 79, 80, 81, 82, 83, 84, 85, 86, 87, 88, 89, 90, 91, 92, 93, 94, 95, 96, 97, 98, 99, 100, 101, 102, 103, 104, 105, 106, 107, 108, 109, 110, 111, 112, 113, 114, 115, 116, 117, 118, 119, 120, 121, 122, 123, 124, 125, 126, 127, 128, 129, 130, 131, 132, 133, 134, 135, 136, 137, 138, 139, 140, 141, 142, 143, 144, 145, 146, 147, 148, 149, 150, 151, 152, 153, 154, 155, 156, 157, 158, 159, 160, 161, 162, 163, 164, 165, 166, 167, 168, 169, 170, 171, 172, 173, 174, 175, 176, 177, 178, 179, 180, 181, 182, 183, 184, 185, 186, 187, 188, 189, 190, 191, 192, 193, 194, 195, 196, 197, 198, 199, 200, 201, 202, 203, 204, 205, 206, 207, 208, 209, 210, 211, 212, 213, 214, 215, 216, 217, 218, 219, 220, 221, 222, 223, 224, 225, 226, 227, 228, 229, 230, 231, 232, 233, 234, 235, 236, 237, 238, 239, 240, 241, 242, 243, 244, 245, 246, 247, 248, 249, 250, 251, 252, 253, 254, 255, 256, 257, 258, 259, 260, 261, 262, 263, 264, 265, 266, 267, 268, 269, 270, 271, 272, 273, 274, 275, 276, 277, 278, 279, 280],
      "LargestImagePixelValue": [1145, 1038, 952, 907, 916, 1014, 990, 904, 1242, 1083, 1130, 1681, 1483, 1793, 1324, 1184, 1235, 1057, 1054, 1041, 976, 1161, 1485, 1316, 1564, 1278, 1067, 1135, 1023, 1100, 1532, 1220, 1914, 1526, 1217, 1157, 1062, 1137, 1091, 1202, 1304, 1315, 1094, 1147, 1256, 1192, 1086, 1278, 1130, 1078, 966, 990, 1331, 972, 1031, 1061, 968, 1599, 1232, 1437, 1649, 1297, 1088, 1007, 1040, 981, 922, 1074, 1140, 1668, 1280, 1231, 1050, 969, 1282, 1055, 1283, 1177, 1050, 1363, 1208, 1268, 1222, 1124, 1105, 1124, 1372, 1050, 1069, 1009, 950, 965, 1111, 1358, 1070, 1007, 1237, 1220, 1497, 1125, 1272, 1126, 1267, 1234, 1206, 1324, 1322, 1312, 1145, 1120, 1221, 952, 1191, 1131, 1599, 1516, 1327, 1020, 1010, 1037, 927, 982, 1002, 1049, 1157, 1168, 1438, 1034, 1071, 999, 1350, 1655, 1511, 1577, 1278, 1197, 1057, 1006, 907, 926, 1000, 1482, 1308, 1359, 1385, 1282, 1179, 1061, 1201, 1205, 1206, 1401, 1391, 1235, 1089, 943, 1392, 1169, 1497, 1447, 1180, 1587, 1274, 1250, 1356, 1021, 1084, 980, 1341, 1391, 1430, 1203, 1118, 1066, 1019, 1002, 979, 917, 1189, 1299, 1550, 1407, 1307, 1032, 1261, 946, 859, 896, 1502, 1419, 1629, 1312, 1215, 1206, 1069, 1058, 1034, 1045, 1022, 1070, 1124, 1131, 1131, 1185, 1261, 1246, 1195, 1098, 1082, 1040, 927, 962, 925, 973, 1013, 1153, 1115, 1622, 1651, 1114, 1435, 1159, 1143, 1029, 1268, 1034, 1381, 1111, 1628, 1632, 1289, 1241, 985, 1151, 1183, 1074, 1113, 1017, 1659, 1579, 1322, 1192, 954, 1032, 1073, 1008, 1228, 980, 1224, 1196, 1064, 1215, 1291, 1601, 1264, 1226, 1177, 1076, 1053, 998, 1038, 973, 1044, 989, 1019, 1533, 1398, 1503, 1265, 1160, 1001, 1179, 965, 1183, 1041, 1722, 1571, 1508, 1382, 1134],
      "WindowCenter": [389.0, 386.0, 386.0, 386.0, 386.0, 387.0, 387.0, 386.0, 389.0, 389.0, 390.0, 392.0, 390.0, 391.0, 389.0, 387.0, 389.0, 387.0, 388.0, 388.0, 387.0, 388.0, 391.0, 389.0, 391.0, 390.0, 388.0, 388.0, 387.0, 388.0, 391.0, 388.0, 393.0, 390.0, 388.0, 388.0, 388.0, 388.0, 388.0, 388.0, 389.0, 388.0, 387.0, 387.0, 389.0, 388.0, 388.0, 389.0, 388.0, 387.0, 387.0, 386.0, 389.0, 386.0, 387.0, 388.0, 387.0, 391.0, 388.0, 390.0, 390.0, 389.0, 387.0, 387.0, 389.0, 388.0, 387.0, 388.0, 388.0, 391.0, 389.0, 389.0, 388.0, 387.0, 389.0, 387.0, 389.0, 388.0, 387.0, 389.0, 389.0, 389.0, 388.0, 387.0, 387.0, 388.0, 389.0, 387.0, 388.0, 386.0, 386.0, 387.0, 388.0, 389.0, 387.0, 387.0, 389.0, 388.0, 390.0, 388.0, 389.0, 388.0, 390.0, 390.0, 390.0, 389.0, 389.0, 389.0, 388.0, 387.0, 388.0, 387.0, 389.0, 389.0, 392.0, 390.0, 389.0, 386.0, 386.0, 387.0, 386.0, 387.0, 387.0, 388.0, 389.0, 388.0, 390.0, 387.0, 387.0, 387.0, 389.0, 391.0, 390.0, 390.0, 388.0, 388.0, 387.0, 386.0, 386.0, 386.0, 387.0, 390.0, 389.0, 389.0, 390.0, 389.0, 389.0, 388.0, 389.0, 389.0, 388.0, 389.0, 389.0, 388.0, 388.0, 387.0, 391.0, 388.0, 390.0, 390.0, 388.0, 390.0, 388.0, 388.0, 389.0, 386.0, 387.0, 386.0, 389.0, 389.0, 390.0, 388.0, 388.0, 387.0, 386.0, 387.0, 387.0, 386.0, 388.0, 389.0, 391.0, 390.0, 389.0, 387.0, 388.0, 386.0, 386.0, 387.0, 391.0, 390.0, 391.0, 389.0, 388.0, 387.0, 386.0, 387.0, 386.0, 387.0, 387.0, 388.0, 388.0, 388.0, 388.0, 388.0, 389.0, 389.0, 388.0, 387.0, 387.0, 387.0, 386.0, 387.0, 387.0, 387.0, 387.0, 389.0, 389.0, 391.0, 391.0, 388.0, 390.0, 388.0, 388.0, 387.0, 389.0, 388.0, 390.0, 388.0, 391.0, 391.0, 389.0, 389.0, 387.0, 390.0, 390.0, 389.0, 389.0, 389.0, 392.0, 391.0, 389.0, 388.0, 386.0, 387.0, 387.0, 386.0, 388.0, 387.0, 389.0, 388.0, 387.0, 389.0, 389.0, 390.0, 388.0, 388.0, 387.0, 387.0, 387.0, 387.0, 387.0, 387.0, 387.0, 387.0, 387.0, 391.0, 391.0, 391.0, 390.0, 389.0, 387.0, 389.0, 387.0, 388.0, 388.0, 392.0, 391.0, 391.0, 389.0, 388.0],
      "WindowWidth": [826.0, 822.0, 821.0, 821.0, 821.0, 823.0, 823.0, 822.0, 826.0, 825.0, 828.0, 831.0, 827.0, 829.0, 825.0, 823.0, 825.0, 823.0, 824.0, 824.0, 823.0, 824.0, 828.0, 826.0, 829.0, 826.0, 824.0, 824.0, 823.0, 823.0, 828.0, 824.0, 831.0, 827.0, 824.0, 825.0, 823.0, 824.0, 823.0, 824.0, 825.0, 824.0, 822.0, 823.0, 825.0, 824.0, 823.0, 825.0, 824.0, 823.0, 822.0, 822.0, 826.0, 821.0, 823.0, 823.0, 822.0, 828.0, 824.0, 827.0, 827.0, 825.0, 823.0, 823.0, 825.0, 824.0, 822.0, 824.0, 824.0, 828.0, 825.0, 825.0, 824.0, 822.0, 826.0, 823.0, 826.0, 824.0, 823.0, 826.0, 825.0, 825.0, 824.0, 823.0, 822.0, 823.0, 825.0, 822.0, 823.0, 821.0, 822.0, 822.0, 825.0, 826.0, 822.0, 823.0, 825.0, 824.0, 827.0, 823.0, 825.0, 823.0, 826.0, 827.0, 827.0, 826.0, 826.0, 826.0, 823.0, 823.0, 824.0, 822.0, 826.0, 826.0, 830.0, 826.0, 825.0, 821.0, 821.0, 822.0, 821.0, 822.0, 823.0, 824.0, 826.0, 824.0, 827.0, 822.0, 823.0, 822.0, 825.0, 828.0, 826.0, 826.0, 823.0, 824.0, 822.0, 821.0, 821.0, 821.0, 822.0, 827.0, 824.0, 825.0, 826.0, 826.0, 825.0, 824.0, 826.0, 825.0, 824.0, 826.0, 825.0, 824.0, 824.0, 822.0, 828.0, 824.0, 827.0, 826.0, 824.0, 827.0, 823.0, 823.0, 824.0, 822.0, 822.0, 821.0, 825.0, 825.0, 826.0, 824.0, 823.0, 823.0, 822.0, 823.0, 822.0, 821.0, 824.0, 826.0, 828.0, 827.0, 825.0, 822.0, 824.0, 820.0, 821.0, 823.0, 829.0, 827.0, 828.0, 825.0, 824.0, 823.0, 821.0, 822.0, 821.0, 822.0, 822.0, 823.0, 824.0, 824.0, 824.0, 825.0, 825.0, 825.0, 824.0, 823.0, 822.0, 822.0, 821.0, 823.0, 822.0, 823.0, 823.0, 826.0, 825.0, 828.0, 829.0, 824.0, 827.0, 824.0, 824.0, 823.0, 826.0, 824.0, 827.0, 825.0, 829.0, 829.0, 826.0, 825.0, 823.0, 827.0, 827.0, 825.0, 825.0, 826.0, 830.0, 828.0, 825.0, 823.0, 821.0, 822.0, 823.0, 821.0, 824.0, 822.0, 825.0, 824.0, 823.0, 825.0, 825.0, 827.0, 824.0, 824.0, 823.0, 823.0, 822.0, 823.0, 823.0, 822.0, 823.0, 823.0, 823.0, 829.0, 828.0, 829.0, 827.0, 826.0, 823.0, 825.0, 822.0, 825.0, 823.0, 830.0, 828.0, 828.0, 826.0, 824.0]
    },
    "slices": {}
  }
}