{
  "AcquisitionMatrixPE": 96,
  "AcquisitionNumber": 1,
  "AcquisitionTime": "14:29:16.630000",
  "BandwidthPerPixelPhaseEncode": 18.939,
  "BaseResolution": 96,
  "BodyPartExamined": "BRAIN",
  "ConsistencyInfo": "N4_VE11C_LATEST_20160120",
  "ConversionSoftware": "dcm2niix",
  "ConversionSoftwareVersion": "v1.0.20170923 (OpenJPEG build) GCC6.3.0",
  "DerivedVendorReportedEchoSpacing": 0.000550011,
  "DeviceSerialNumber": "66112",
  "DwellTime": 2.3e-06,
  "EchoTime": 0.033,
  "EchoTrainLength": 96,
  "EffectiveEchoSpacing": 0.000550011,
  "FlipAngle": 64,
  "ImageType": [
    "ORIGINAL",
    "PRIMARY",
    "FMRI",
    "NONE",
    "ND",
    "NORM",
    "MOSAIC"
],
  "InstitutionAddress": "Maynard_3_Hanover_NH_US_03755",
  "InstitutionName": "Dartmouth_College_-_PBS",
  "MagneticFieldStrength": 3,
  "Manufacturer": "Siemens",
  "ManufacturersModelName": "Prisma",
  "Modality": "MR",
  "MultibandAccelerationFactor": 4,
  "PartialFourier": 1,
  "PercentPhaseFOV": 100,
  "PhaseEncodingDirection": "j-",
  "PhaseEncodingSteps": 96,
  "PhaseResolution": 1,
  "ProcedureStepDescription": "Gobbini_Matteo_1017_famface-angles",
  "ProtocolName": "func_run-03_task-fam1back",
  "PulseSequenceDetails": "%SiemensSeq%_ep2d_bold",
  "ReceiveCoilActiveElements": "HEA;HEP",
  "ReceiveCoilName": "Head_32",
  "ReconMatrixPE": 96,
  "RepetitionTime": 1.25,
  "ScanOptions": "FS",
  "ScanningSequence": "EP",
  "SequenceName": "_epfid2d1_96",
  "SequenceVariant": "SK",
  "SeriesDescription": "func_run-03_task-fam1back",
  "SliceTiming": [0.88, 0, 0.615, 0.0875, 0.7025, 0.1775, 0.7925, 0.3525, 0.9675, 0.44, 1.055, 0.5275, 1.1425, 0.265, 0.88, 0, 0.615, 0.0875, 0.7025, 0.1775, 0.7925, 0.3525, 0.9675, 0.44, 1.055, 0.5275, 1.1425, 0.265, 0.88, 0, 0.615, 0.0875, 0.7025, 0.1775, 0.7925, 0.3525, 0.9675, 0.44, 1.055, 0.5275, 1.1425, 0.265, 0.88, 0, 0.615, 0.0875, 0.7025, 0.1775, 0.7925, 0.3525, 0.9675, 0.44, 1.055, 0.5275, 1.1425, 0.265],
  "SoftwareVersions": "syngo_MR_E11",
  "StationName": "AWP66112",
  "TaskName": "fam1back",
  "TotalReadoutTime": 0.0522511,
  "dcmmeta_affine": [
    [-2.492396354675293, -0.05438418686389923, 0.18709082901477814, 122.53514099121094],
    [-0.035028863698244095, 2.4865949153900146, 0.2561623454093933, -109.8663330078125],
    [0.1916600912809372, -0.2527617812156677, 2.4797940254211426, -72.05079650878906],
    [0.0, 0.0, 0.0, 1.0]
],
  "dcmmeta_reorient_transform": [
    [0.0, -1.0, 0.0, 95.0],
    [1.0, 0.0, 0.0, 0.0],
    [0.0, 0.0, 1.0, 0.0],
    [0.0, 0.0, 0.0, 1.0]
],
  "dcmmeta_shape": [96, 96, 56, 280],
  "dcmmeta_slice_dim": 2,
  "dcmmeta_version": 0.6,
  "global": {
    "const": {
      "AccessionNumber": "A000257",
      "AcquisitionMatrix": [96, 0, 0, 96],
      "AngioFlag": "N",
      "BitsAllocated": 16,
      "BitsStored": 12,
      "BodyPartExamined": "BRAIN",
      "Columns": 768,
      "EchoNumbers": 1,
      "EchoTime": 33.0,
      "EchoTrainLength": 96,
      "FlipAngle": 64.0,
      "HighBit": 11,
      "ImageOrientationPatient": [0.99695852557906, 0.01401154592731, 0.07666403887059, -0.0217536742724, 0.99463793100553, 0.10110471730189],
      "ImagePositionPatient": [-936.54071648327, -973.62573296295, -245.38892480986],
      "ImageType": [
        "ORIGINAL",
        "PRIMARY",
        "FMRI",
        "NONE",
        "ND",
        "NORM",
        "MOSAIC"
],
      "ImagedNucleus": "1H",
      "ImagingFrequency": 123.252474,
      "InPlanePhaseEncodingDirection": "COL",
      "MRAcquisitionType": "2D",
      "MagneticFieldStrength": 3.0,
      "Manufacturer": "SIEMENS",
      "ManufacturerModelName": "Prisma",
      "Modality": "MR",
      "NumberOfAverages": 1.0,
      "NumberOfPhaseEncodingSteps": 96,
      "PercentPhaseFieldOfView": 100.0,
      "PercentSampling": 100.0,
      "PerformedProcedureStepStartTime": "135620.771000",
      "PhotometricInterpretation": "MONOCHROME2",
      "PixelBandwidth": 2265.0,
      "PixelRepresentation": 0,
      "PixelSpacing": [2.5, 2.5],
      "PositionReferenceIndicator": "",
      "ProtocolName": "func_run-03_task-fam1back",
      "RepetitionTime": 1250.0,
      "Rows": 768,
      "SAR": 0.05811172788279,
      "SamplesPerPixel": 1,
      "ScanOptions": "FS",
      "ScanningSequence": "EP",
      "SequenceName": "*epfid2d1_96",
      "SequenceVariant": "SK",
      "SeriesDescription": "func_run-03_task-fam1back",
      "SeriesNumber": 22,
      "SeriesTime": "142918.102000",
      "SliceLocation": -73.555820697713,
      "SliceThickness": 2.5,
      "SmallestImagePixelValue": 0,
      "SoftwareVersions": "syngo MR E11",
      "SpacingBetweenSlices": 2.5000000429934,
      "SpecificCharacterSet": "ISO_IR 100",
      "StudyID": "1",
      "StudyTime": "135620.665000",
      "TransmitCoilName": "Body",
      "VariableFlipAngleFlag": "N",
      "WindowCenterWidthExplanation": "Algo1",
      "dBdt": 0.0},
    "slices": {}
  },
  "time": {
    "samples": {
      "AcquisitionNumber": [1, 2, 3, 4, 5, 6, 7, 8, 9, 10, 11, 12, 13, 14, 15, 16, 17, 18, 19, 20, 21, 22, 23, 24, 25, 26, 27, 28, 29, 30, 31, 32, 33, 34, 35, 36, 37, 38, 39, 40, 41, 42, 43, 44, 45, 46, 47, 48, 49, 50, 51, 52, 53, 54, 55, 56, 57, 58, 59, 60, 61, 62, 63, 64, 65, 66, 67, 68, 69, 70, 71, 72, 73, 74, 75, 76, 77, 78, 79, 80, 81, 82, 83, 84, 85, 86, 87, 88, 89, 90, 91, 92, 93, 94, 95, 96, 97, 98, 99, 100, 101, 102, 103, 104, 105, 106, 107, 108, 109, 110, 111, 112, 113, 114, 115, 116, 117, 118, 119, 120, 121, 122, 123, 124, 125, 126, 127, 128, 129, 130, 131, 132, 133, 134, 135, 136, 137, 138, 139, 140, 141, 142, 143, 144, 145, 146, 147, 148, 149, 150, 151, 152, 153, 154, 155, 156, 157, 158, 159, 160, 161, 162, 163, 164, 165, 166, 167, 168, 169, 170, 171, 172, 173, 174, 175, 176, 177, 178, 179, 180, 181, 182, 183, 184, 185, 186, 187, 188, 189, 190, 191, 192, 193, 194, 195, 196, 197, 198, 199, 200, 201, 202, 203, 204, 205, 206, 207, 208, 209, 210, 211, 212, 213, 214, 215, 216, 217, 218, 219, 220, 221, 222, 223, 224, 225, 226, 227, 228, 229, 230, 231, 232, 233, 234, 235, 236, 237, 238, 239, 240, 241, 242, 243, 244, 245, 246, 247, 248, 249, 250, 251, 252, 253, 254, 255, 256, 257, 258, 259, 260, 261, 262, 263, 264, 265, 266, 267, 268, 269, 270, 271, 272, 273, 274, 275, 276, 277, 278, 279, 280],
      "AcquisitionTime": ["142916.630000", "142917.880000", "142919.130000", "142920.380000", "142921.630000", "142922.880000", "142924.130000", "142925.380000", "142926.630000", "142927.880000", "142929.130000", "142930.380000", "142931.630000", "142932.880000", "142934.130000", "142935.380000", "142936.630000", "142937.880000", "142939.130000", "142940.380000", "142941.630000", "142942.880000", "142944.130000", "142945.380000", "142946.630000", "142947.880000", "142949.130000", "142950.380000", "142951.630000", "142952.880000", "142954.130000", "142955.380000", "142956.630000", "142957.880000", "142959.130000", "143000.380000", "143001.630000", "143002.880000", "143004.130000", "143005.380000", "143006.630000", "143007.880000", "143009.130000", "143010.380000", "143011.630000", "143012.880000", "143014.130000", "143015.380000", "143016.630000", "143017.880000", "143019.130000", "143020.380000", "143021.630000", "143022.880000", "143024.130000", "143025.380000", "143026.630000", "143027.880000", "143029.130000", "143030.380000", "143031.630000", "143032.880000", "143034.130000", "143035.380000", "143036.630000", "143037.880000", "143039.130000", "143040.380000", "143041.630000", "143042.880000", "143044.130000", "143045.380000", "143046.630000", "143047.880000", "143049.130000", "143050.380000", "143051.630000", "143052.880000", "143054.130000", "143055.380000", "143056.630000", "143057.880000", "143059.130000", "143100.380000", "143101.630000", "143102.880000", "143104.130000", "143105.380000", "143106.630000", "143107.880000", "143109.130000", "143110.380000", "143111.630000", "143112.880000", "143114.130000", "143115.380000", "143116.630000", "143117.880000", "143119.130000", "143120.380000", "143121.630000", "143122.880000", "143124.130000", "143125.380000", "143126.630000", "143127.880000", "143129.130000", "143130.380000", "143131.630000", "143132.880000", "143134.130000", "143135.380000", "143136.630000", "143137.880000", "143139.130000", "143140.380000", "143141.630000", "143142.880000", "143144.130000", "143145.380000", "143146.630000", "143147.880000", "143149.130000", "143150.380000", "143151.630000", "143152.880000", "143154.130000", "143155.380000", "143156.630000", "143157.880000", "143159.130000", "143200.380000", "143201.630000", "143202.880000", "143204.130000", "143205.380000", "143206.630000", "143207.880000", "143209.130000", "143210.380000", "143211.630000", "143212.880000", "143214.130000", "143215.380000", "143216.630000", "143217.880000", "143219.130000", "143220.380000", "143221.630000", "143222.880000", "143224.130000", "143225.380000", "143226.630000", "143227.880000", "143229.130000", "143230.380000", "143231.630000", "143232.880000", "143234.130000", "143235.380000", "143236.630000", "143237.880000", "143239.130000", "143240.380000", "143241.630000", "143242.880000", "143244.130000", "143245.380000", "143246.630000", "143247.880000", "143249.130000", "143250.380000", "143251.630000", "143252.880000", "143254.130000", "143255.380000", "143256.630000", "143257.880000", "143259.130000", "143300.380000", "143301.630000", "143302.880000", "143304.130000", "143305.380000", "143306.630000", "143307.880000", "143309.130000", "143310.380000", "143311.630000", "143312.880000", "143314.130000", "143315.380000", "143316.630000", "143317.880000", "143319.130000", "143320.380000", "143321.630000", "143322.880000", "143324.130000", "143325.380000", "143326.630000", "143327.880000", "143329.130000", "143330.380000", "143331.630000", "143332.880000", "143334.130000", "143335.380000", "143336.630000", "143337.880000", "143339.130000", "143340.380000", "143341.630000", "143342.880000", "143344.130000", "143345.380000", "143346.630000", "143347.880000", "143349.130000", "143350.380000", "143351.630000", "143352.880000", "143354.130000", "143355.380000", "143356.630000", "143357.880000", "143359.130000", "143400.380000", "143401.630000", "143402.880000", "143404.130000", "143405.380000", "143406.630000", "143407.880000", "143409.130000", "143410.380000", "143411.630000", "143412.880000", "143414.130000", "143415.380000", "143416.630000", "143417.880000", "143419.130000", "143420.380000", "143421.630000", "143422.880000", "143424.130000", "143425.380000", "143426.630000", "143427.880000", "143429.130000", "143430.380000", "143431.630000", "143432.880000", "143434.130000", "143435.380000", "143436.630000", "143437.880000", "143439.130000", "143440.380000", "143441.630000", "143442.880000", "143444.130000", "143445.380000", "143446.630000", "143447.880000", "143449.130000", "143450.380000", "143451.630000", "143452.880000", "143454.130000", "143455.380000", "143456.630000", "143457.880000", "143459.130000", "143500.380000", "143501.630000", "143502.880000", "143504.130000", "143505.380000"],
      "ContentTime": ["142918.106000", "142919.202000", "142920.422000", "142921.621000", "142922.893000", "142924.138000", "142925.437000", "142926.667000", "142927.913000", "142929.157000", "142930.423000", "142931.668000", "142932.875000", "142934.150000", "142935.400000", "142936.633000", "142937.896000", "142939.144000", "142940.404000", "142941.661000", "142942.908000", "142944.136000", "142945.402000", "142946.639000", "142947.894000", "142949.139000", "142950.424000", "142951.622000", "142952.920000", "142954.140000", "142955.384000", "142956.660000", "142957.884000", "142959.209000", "143000.399000", "143001.624000", "143002.903000", "143004.121000", "143005.391000", "143006.622000", "143007.905000", "143009.141000", "143010.391000", "143011.654000", "143012.910000", "143014.119000", "143015.419000", "143016.637000", "143017.893000", "143019.139000", "143020.416000", "143021.652000", "143022.913000", "143024.163000", "143025.436000", "143026.664000", "143027.904000", "143029.157000", "143030.396000", "143031.624000", "143032.873000", "143034.115000", "143035.421000", "143036.625000", "143037.882000", "143039.164000", "143040.406000", "143041.642000", "143042.918000", "143044.156000", "143045.413000", "143046.606000", "143047.933000", "143049.196000", "143050.471000", "143051.655000", "143052.899000", "143054.162000", "143055.420000", "143056.641000", "143057.849000", "143059.141000", "143100.394000", "143101.643000", "143102.914000", "143104.120000", "143105.380000", "143106.714000", "143107.886000", "143109.117000", "143110.399000", "143111.688000", "143112.882000", "143114.163000", "143115.403000", "143116.685000", "143117.890000", "143119.125000", "143120.481000", "143121.628000", "143122.910000", "143124.141000", "143125.392000", "143126.649000", "143127.917000", "143129.158000", "143130.422000", "143131.661000", "143132.896000", "143134.144000", "143135.398000", "143136.622000", "143137.893000", "143139.143000", "143140.432000", "143141.699000", "143142.886000", "143144.126000", "143145.408000", "143146.677000", "143147.872000", "143149.144000", "143150.424000", "143151.648000", "143152.905000", "143154.162000", "143155.423000", "143156.665000", "143157.890000", "143159.159000", "143200.418000", "143201.659000", "143202.924000", "143204.132000", "143205.391000", "143206.629000", "143207.909000", "143209.173000", "143210.410000", "143211.666000", "143212.933000", "143214.156000", "143215.406000", "143216.662000", "143217.902000", "143219.173000", "143220.402000", "143221.627000", "143222.902000", "143224.140000", "143225.401000", "143226.661000", "143227.879000", "143229.151000", "143230.355000", "143231.664000", "143232.959000", "143234.197000", "143235.384000", "143236.644000", "143237.899000", "143239.155000", "143240.394000", "143241.624000", "143242.925000", "143244.148000", "143245.403000", "143246.669000", "143247.878000", "143249.148000", "143250.401000", "143251.640000", "143252.908000", "143254.166000", "143255.398000", "143256.638000", "143257.911000", "143259.176000", "143300.397000", "143301.665000", "143302.862000", "143304.151000", "143305.399000", "143306.656000", "143307.932000", "143309.162000", "143310.397000", "143311.638000", "143312.949000", "143314.149000", "143315.420000", "143316.670000", "143317.919000", "143319.176000", "143320.414000", "143321.708000", "143322.915000", "143324.167000", "143325.384000", "143326.652000", "143327.921000", "143329.164000", "143330.405000", "143331.663000", "143332.888000", "143334.158000", "143335.387000", "143336.629000", "143337.888000", "143339.149000", "143340.387000", "143341.628000", "143342.887000", "143344.109000", "143345.423000", "143346.656000", "143347.886000", "143349.129000", "143350.394000", "143351.669000", "143352.924000", "143354.158000", "143355.417000", "143356.687000", "143357.924000", "143359.145000", "143400.382000", "143401.645000", "143402.882000", "143404.137000", "143405.377000", "143406.644000", "143407.906000", "143409.159000", "143410.392000", "143411.657000", "143412.910000", "143414.170000", "143415.415000", "143416.667000", "143417.912000", "143419.152000", "143420.381000", "143421.655000", "143422.917000", "143424.165000", "143425.364000", "143426.657000", "143427.882000", "143429.181000", "143430.397000", "143431.672000", "143432.937000", "143434.131000", "143435.407000", "143436.663000", "143437.928000", "143439.156000", "143440.402000", "143441.642000", "143442.957000", "143444.174000", "143445.418000", "143446.644000", "143447.887000", "143449.143000", "143450.404000", "143451.652000", "143452.910000", "143454.165000", "143455.408000", "143456.700000", "143457.907000", "143459.216000", "143500.380000", "143501.628000", "143502.927000", "143504.148000", "143505.420000", "143506.719000"],
      "InstanceCreationTime": ["142918.106000", "142919.202000", "142920.422000", "142921.621000", "142922.893000", "142924.138000", "142925.437000", "142926.667000", "142927.913000", "142929.157000", "142930.423000", "142931.668000", "142932.875000", "142934.150000", "142935.400000", "142936.633000", "142937.896000", "142939.144000", "142940.404000", "142941.661000", "142942.908000", "142944.136000", "142945.402000", "142946.639000", "142947.894000", "142949.139000", "142950.424000", "142951.622000", "142952.920000", "142954.140000", "142955.384000", "142956.660000", "142957.884000", "142959.209000", "143000.399000", "143001.624000", "143002.903000", "143004.121000", "143005.391000", "143006.622000", "143007.905000", "143009.141000", "143010.391000", "143011.654000", "143012.910000", "143014.119000", "143015.419000", "143016.637000", "143017.893000", "143019.139000", "143020.416000", "143021.652000", "143022.913000", "143024.163000", "143025.436000", "143026.664000", "143027.904000", "143029.157000", "143030.396000", "143031.624000", "143032.873000", "143034.115000", "143035.421000", "143036.625000", "143037.882000", "143039.164000", "143040.406000", "143041.642000", "143042.918000", "143044.156000", "143045.413000", "143046.606000", "143047.933000", "143049.196000", "143050.471000", "143051.655000", "143052.899000", "143054.162000", "143055.420000", "143056.641000", "143057.849000", "143059.141000", "143100.394000", "143101.643000", "143102.914000", "143104.120000", "143105.380000", "143106.714000", "143107.886000", "143109.117000", "143110.399000", "143111.688000", "143112.882000", "143114.163000", "143115.403000", "143116.685000", "143117.890000", "143119.125000", "143120.481000", "143121.628000", "143122.910000", "143124.141000", "143125.392000", "143126.649000", "143127.917000", "143129.158000", "143130.422000", "143131.661000", "143132.896000", "143134.144000", "143135.398000", "143136.622000", "143137.893000", "143139.143000", "143140.432000", "143141.699000", "143142.886000", "143144.126000", "143145.408000", "143146.677000", "143147.872000", "143149.144000", "143150.424000", "143151.648000", "143152.905000", "143154.162000", "143155.423000", "143156.665000", "143157.890000", "143159.159000", "143200.418000", "143201.659000", "143202.924000", "143204.132000", "143205.391000", "143206.629000", "143207.909000", "143209.173000", "143210.410000", "143211.666000", "143212.933000", "143214.156000", "143215.406000", "143216.662000", "143217.902000", "143219.173000", "143220.402000", "143221.627000", "143222.902000", "143224.140000", "143225.401000", "143226.661000", "143227.879000", "143229.151000", "143230.355000", "143231.664000", "143232.959000", "143234.197000", "143235.384000", "143236.644000", "143237.899000", "143239.155000", "143240.394000", "143241.624000", "143242.925000", "143244.148000", "143245.403000", "143246.669000", "143247.878000", "143249.148000", "143250.401000", "143251.640000", "143252.908000", "143254.166000", "143255.398000", "143256.638000", "143257.911000", "143259.176000", "143300.397000", "143301.665000", "143302.862000", "143304.151000", "143305.399000", "143306.656000", "143307.932000", "143309.162000", "143310.397000", "143311.638000", "143312.949000", "143314.149000", "143315.420000", "143316.670000", "143317.919000", "143319.176000", "143320.414000", "143321.708000", "143322.915000", "143324.167000", "143325.384000", "143326.652000", "143327.921000", "143329.164000", "143330.405000", "143331.663000", "143332.888000", "143334.158000", "143335.387000", "143336.629000", "143337.888000", "143339.149000", "143340.387000", "143341.628000", "143342.887000", "143344.109000", "143345.423000", "143346.656000", "143347.886000", "143349.129000", "143350.394000", "143351.669000", "143352.924000", "143354.158000", "143355.417000", "143356.687000", "143357.924000", "143359.145000", "143400.382000", "143401.645000", "143402.882000", "143404.137000", "143405.377000", "143406.644000", "143407.906000", "143409.159000", "143410.392000", "143411.657000", "143412.910000", "143414.170000", "143415.415000", "143416.667000", "143417.912000", "143419.152000", "143420.381000", "143421.655000", "143422.917000", "143424.165000", "143425.364000", "143426.657000", "143427.882000", "143429.181000", "143430.397000", "143431.672000", "143432.937000", "143434.131000", "143435.407000", "143436.663000", "143437.928000", "143439.156000", "143440.402000", "143441.642000", "143442.957000", "143444.174000", "143445.418000", "143446.644000", "143447.887000", "143449.143000", "143450.404000", "143451.652000", "143452.910000", "143454.165000", "143455.408000", "143456.700000", "143457.907000", "143459.216000", "143500.380000", "143501.628000", "143502.927000", "143504.148000", "143505.420000", "143506.719000"],
      "InstanceNumber": [1, 2, 3, 4, 5, 6, 7, 8, 9, 10, 11, 12, 13, 14, 15, 16, 17, 18, 19, 20, 21, 22, 23, 24, 25, 26, 27, 28, 29, 30, 31, 32, 33, 34, 35, 36, 37, 38, 39, 40, 41, 42, 43, 44, 45, 46, 47, 48, 49, 50, 51, 52, 53, 54, 55, 56, 57, 58, 59, 60, 61, 62, 63, 64, 65, 66, 67, 68, 69, 70, 71, 72, 73, 74, 75, 76, 77, 78, 79, 80, 81, 82, 83, 84, 85, 86, 87, 88, 89, 90, 91, 92, 93, 94, 95, 96, 97, 98, 99, 100, 101, 102, 103, 104, 105, 106, 107, 108, 109, 110, 111, 112, 113, 114, 115, 116, 117, 118, 119, 120, 121, 122, 123, 124, 125, 126, 127, 128, 129, 130, 131, 132, 133, 134, 135, 136, 137, 138, 139, 140, 141, 142, 143, 144, 145, 146, 147, 148, 149, 150, 151, 152, 153, 154, 155, 156, 157, 158, 159, 160, 161, 162, 163, 164, 165, 166, 167, 168, 169, 170, 171, 172, 173, 174, 175, 176, 177, 178, 179, 180, 181, 182, 183, 184, 185, 186, 187, 188, 189, 190, 191, 192, 193, 194, 195, 196, 197, 198, 199, 200, 201, 202, 203, 204, 205, 206, 207, 208, 209, 210, 211, 212, 213, 214, 215, 216, 217, 218, 219, 220, 221, 222, 223, 224, 225, 226, 227, 228, 229, 230, 231, 232, 233, 234, 235, 236, 237, 238, 239, 240, 241, 242, 243, 244, 245, 246, 247, 248, 249, 250, 251, 252, 253, 254, 255, 256, 257, 258, 259, 260, 261, 262, 263, 264, 265, 266, 267, 268, 269, 270, 271, 272, 273, 274, 275, 276, 277, 278, 279, 280],
      "LargestImagePixelValue": [897, 1040, 870, 866, 987, 1021, 1602, 1614, 1678, 1719, 1304, 1233, 1156, 888, 930, 1475, 1658, 1381, 1236, 1165, 1184, 1109, 948, 1249, 1093, 1790, 1740, 1780, 1415, 1168, 1176, 1145, 1170, 1120, 1131, 1170, 1249, 1053, 909, 1198, 1328, 1622, 1636, 1648, 1521, 950, 1047, 1033, 1168, 1396, 1714, 1742, 1650, 1485, 1266, 1095, 1146, 1142, 1185, 1203, 1131, 975, 909, 1162, 856, 986, 1072, 1108, 1163, 1240, 1299, 1304, 947, 1211, 1446, 1588, 1600, 1210, 1140, 1060, 1086, 1109, 1111, 1098, 941, 947, 1247, 1062, 1678, 1422, 1212, 1183, 1101, 1663, 1759, 1802, 1656, 1355, 1173, 1131, 1198, 1290, 1080, 1090, 1104, 1131, 1721, 1213, 1717, 1120, 1242, 1512, 1037, 1010, 937, 1045, 1111, 1107, 1101, 1166, 1252, 1421, 1071, 1352, 996, 1215, 1015, 1598, 1576, 1471, 1098, 996, 874, 872, 906, 815, 1057, 969, 1389, 1207, 1416, 1435, 1722, 1186, 1533, 976, 1333, 1057, 1666, 1250, 1148, 1148, 1158, 1289, 931, 1068, 1163, 1171, 1775, 1484, 1579, 1114, 1127, 1389, 1138, 1063, 1145, 977, 1215, 922, 1255, 981, 1632, 1626, 1752, 1256, 1098, 1076, 1130, 1034, 1097, 1080, 1035, 1202, 1560, 1646, 1176, 1356, 1147, 1120, 1074, 1066, 1126, 1124, 960, 1105, 1395, 1552, 1003, 1457, 1470, 1401, 1600, 1578, 1621, 1063, 908, 1018, 1194, 1614, 1624, 1377, 1139, 1003, 1086, 948, 1246, 1438, 1279, 1331, 1139, 1129, 1101, 1103, 829, 1004, 1360, 1420, 1393, 1396, 1211, 1083, 1183, 1174, 1117, 1143, 994, 920, 890, 1137, 1320, 1464, 1358, 1206, 1358, 1186, 1094, 1216, 1165, 1267, 1438, 1260, 1362, 1432, 1239, 1217, 1215, 1091, 1004, 981, 896, 1353, 1312, 1588, 1368, 1674, 1275, 1217, 990, 1091, 1143, 1188, 1143, 1057, 1194, 1054, 1044, 1085, 997, 1535],
      "WindowCenter": [388.0, 389.0, 388.0, 388.0, 390.0, 390.0, 393.0, 392.0, 392.0, 392.0, 390.0, 389.0, 389.0, 387.0, 388.0, 392.0, 393.0, 391.0, 390.0, 390.0, 390.0, 390.0, 388.0, 391.0, 390.0, 393.0, 392.0, 392.0, 390.0, 388.0, 389.0, 389.0, 389.0, 388.0, 389.0, 389.0, 389.0, 388.0, 388.0, 391.0, 390.0, 392.0, 391.0, 391.0, 390.0, 386.0, 387.0, 388.0, 389.0, 391.0, 392.0, 391.0, 390.0, 389.0, 387.0, 386.0, 387.0, 387.0, 388.0, 388.0, 388.0, 387.0, 386.0, 388.0, 386.0, 387.0, 389.0, 389.0, 390.0, 391.0, 391.0, 391.0, 388.0, 391.0, 393.0, 392.0, 391.0, 389.0, 387.0, 387.0, 388.0, 388.0, 389.0, 389.0, 388.0, 388.0, 390.0, 389.0, 393.0, 391.0, 391.0, 390.0, 389.0, 392.0, 392.0, 392.0, 391.0, 389.0, 388.0, 388.0, 389.0, 389.0, 388.0, 388.0, 387.0, 388.0, 391.0, 388.0, 392.0, 387.0, 388.0, 389.0, 386.0, 386.0, 386.0, 387.0, 388.0, 388.0, 388.0, 389.0, 389.0, 390.0, 387.0, 389.0, 388.0, 389.0, 388.0, 392.0, 390.0, 389.0, 387.0, 386.0, 385.0, 386.0, 386.0, 385.0, 388.0, 387.0, 391.0, 390.0, 391.0, 391.0, 391.0, 388.0, 390.0, 386.0, 390.0, 388.0, 392.0, 389.0, 389.0, 389.0, 389.0, 389.0, 387.0, 388.0, 389.0, 389.0, 392.0, 390.0, 390.0, 386.0, 387.0, 389.0, 387.0, 387.0, 387.0, 387.0, 388.0, 386.0, 389.0, 388.0, 391.0, 391.0, 391.0, 388.0, 387.0, 388.0, 388.0, 388.0, 389.0, 389.0, 388.0, 389.0, 391.0, 391.0, 387.0, 388.0, 388.0, 387.0, 387.0, 387.0, 389.0, 389.0, 388.0, 389.0, 390.0, 391.0, 388.0, 391.0, 391.0, 390.0, 391.0, 391.0, 390.0, 386.0, 386.0, 388.0, 389.0, 391.0, 390.0, 388.0, 387.0, 386.0, 387.0, 387.0, 389.0, 390.0, 388.0, 389.0, 387.0, 387.0, 388.0, 389.0, 386.0, 389.0, 393.0, 391.0, 390.0, 389.0, 387.0, 386.0, 387.0, 387.0, 387.0, 388.0, 387.0, 386.0, 387.0, 390.0, 390.0, 391.0, 389.0, 389.0, 390.0, 388.0, 388.0, 389.0, 389.0, 390.0, 390.0, 389.0, 390.0, 390.0, 389.0, 389.0, 388.0, 388.0, 388.0, 388.0, 388.0, 391.0, 390.0, 391.0, 390.0, 391.0, 389.0, 389.0, 387.0, 388.0, 388.0, 388.0, 388.0, 387.0, 388.0, 387.0, 387.0, 388.0, 388.0, 392.0],
      "WindowWidth": [826.0, 827.0, 825.0, 825.0, 828.0, 828.0, 833.0, 831.0, 830.0, 831.0, 827.0, 826.0, 825.0, 822.0, 824.0, 831.0, 832.0, 829.0, 828.0, 828.0, 828.0, 827.0, 824.0, 829.0, 827.0, 832.0, 831.0, 831.0, 826.0, 824.0, 825.0, 825.0, 826.0, 824.0, 825.0, 826.0, 826.0, 825.0, 824.0, 829.0, 828.0, 829.0, 828.0, 828.0, 827.0, 821.0, 823.0, 824.0, 826.0, 829.0, 830.0, 829.0, 827.0, 824.0, 822.0, 821.0, 822.0, 822.0, 824.0, 824.0, 824.0, 822.0, 821.0, 824.0, 822.0, 823.0, 826.0, 826.0, 827.0, 829.0, 830.0, 829.0, 825.0, 829.0, 832.0, 831.0, 829.0, 825.0, 823.0, 822.0, 824.0, 824.0, 825.0, 825.0, 824.0, 824.0, 827.0, 825.0, 832.0, 829.0, 828.0, 827.0, 827.0, 831.0, 830.0, 830.0, 828.0, 825.0, 824.0, 824.0, 825.0, 825.0, 824.0, 824.0, 823.0, 823.0, 829.0, 825.0, 829.0, 822.0, 823.0, 824.0, 820.0, 821.0, 821.0, 823.0, 824.0, 824.0, 824.0, 825.0, 825.0, 827.0, 823.0, 826.0, 824.0, 825.0, 825.0, 830.0, 827.0, 825.0, 822.0, 821.0, 819.0, 820.0, 821.0, 820.0, 825.0, 823.0, 829.0, 827.0, 830.0, 829.0, 829.0, 824.0, 827.0, 821.0, 827.0, 825.0, 830.0, 826.0, 827.0, 826.0, 826.0, 826.0, 823.0, 825.0, 826.0, 826.0, 830.0, 826.0, 827.0, 821.0, 821.0, 825.0, 822.0, 821.0, 822.0, 822.0, 825.0, 822.0, 826.0, 824.0, 829.0, 828.0, 828.0, 824.0, 822.0, 824.0, 824.0, 824.0, 826.0, 826.0, 825.0, 826.0, 829.0, 828.0, 822.0, 824.0, 823.0, 822.0, 823.0, 823.0, 825.0, 827.0, 824.0, 826.0, 826.0, 829.0, 825.0, 828.0, 829.0, 828.0, 829.0, 828.0, 827.0, 821.0, 821.0, 824.0, 826.0, 829.0, 827.0, 824.0, 822.0, 821.0, 823.0, 822.0, 826.0, 827.0, 823.0, 824.0, 821.0, 822.0, 824.0, 825.0, 822.0, 827.0, 833.0, 830.0, 827.0, 826.0, 823.0, 820.0, 822.0, 823.0, 822.0, 824.0, 822.0, 822.0, 822.0, 827.0, 828.0, 829.0, 826.0, 825.0, 826.0, 823.0, 823.0, 825.0, 825.0, 827.0, 828.0, 826.0, 826.0, 827.0, 825.0, 825.0, 824.0, 824.0, 824.0, 824.0, 825.0, 830.0, 827.0, 829.0, 827.0, 828.0, 825.0, 825.0, 823.0, 824.0, 824.0, 824.0, 824.0, 823.0, 824.0, 823.0, 823.0, 824.0, 824.0, 830.0]
    },
    "slices": {}
  }
}