{
  "AcquisitionMatrixPE": 96,
  "AcquisitionNumber": 1,
  "AcquisitionTime": "18:11:11.730000",
  "BandwidthPerPixelPhaseEncode": 18.939,
  "BaseResolution": 96,
  "BodyPartExamined": "BRAIN",
  "ConsistencyInfo": "N4_VE11C_LATEST_20160120",
  "ConversionSoftware": "dcm2niix",
  "ConversionSoftwareVersion": "v1.0.20170923 (OpenJPEG build) GCC6.3.0",
  "DerivedVendorReportedEchoSpacing": 0.000550011,
  "DeviceSerialNumber": "66112",
  "DwellTime": 2.3e-06,
  "EchoTime": 0.033,
  "EchoTrainLength": 96,
  "EffectiveEchoSpacing": 0.000550011,
  "FlipAngle": 64,
  "ImageType": [
    "ORIGINAL",
    "PRIMARY",
    "FMRI",
    "NONE",
    "ND",
    "NORM",
    "MOSAIC"
],
  "InstitutionAddress": "Maynard_3_Hanover_NH_US_03755",
  "InstitutionName": "Dartmouth_College_-_PBS",
  "MagneticFieldStrength": 3,
  "Manufacturer": "Siemens",
  "ManufacturersModelName": "Prisma",
  "Modality": "MR",
  "MultibandAccelerationFactor": 4,
  "PartialFourier": 1,
  "PercentPhaseFOV": 100,
  "PhaseEncodingDirection": "j-",
  "PhaseEncodingSteps": 96,
  "PhaseResolution": 1,
  "ProcedureStepDescription": "Gobbini_Matteo_1017_famface-angles",
  "ProtocolName": "func_run-02_task-str1back",
  "PulseSequenceDetails": "%SiemensSeq%_ep2d_bold",
  "ReceiveCoilActiveElements": "HEA;HEP",
  "ReceiveCoilName": "Head_32",
  "ReconMatrixPE": 96,
  "RepetitionTime": 1.25,
  "ScanOptions": "FS",
  "ScanningSequence": "EP",
  "SequenceName": "_epfid2d1_96",
  "SequenceVariant": "SK",
  "SeriesDescription": "func_run-02_task-str1back",
  "SliceTiming": [0.8775, 0, 0.615, 0.0875, 0.7025, 0.175, 0.79, 0.3525, 0.9675, 0.44, 1.055, 0.5275, 1.1425, 0.2625, 0.8775, 0, 0.615, 0.0875, 0.7025, 0.175, 0.79, 0.3525, 0.9675, 0.44, 1.055, 0.5275, 1.1425, 0.2625, 0.8775, 0, 0.615, 0.0875, 0.7025, 0.175, 0.79, 0.3525, 0.9675, 0.44, 1.055, 0.5275, 1.1425, 0.2625, 0.8775, 0, 0.615, 0.0875, 0.7025, 0.175, 0.79, 0.3525, 0.9675, 0.44, 1.055, 0.5275, 1.1425, 0.2625],
  "SoftwareVersions": "syngo_MR_E11",
  "StationName": "AWP66112",
  "TaskName": "str1back",
  "TotalReadoutTime": 0.0522511,
  "dcmmeta_affine": [
    [-2.498976230621338, 0.035767022520303726, -0.06195845082402229, 122.24299621582031],
    [0.036482613533735275, 2.4995710849761963, -0.02851857990026474, -111.58646392822266],
    [-0.06153981015086174, 0.029411062598228455, 2.4990694522857666, -66.34745025634766],
    [0.0, 0.0, 0.0, 1.0]
],
  "dcmmeta_reorient_transform": [
    [0.0, -1.0, 0.0, 95.0],
    [1.0, 0.0, 0.0, 0.0],
    [0.0, 0.0, 1.0, 0.0],
    [0.0, 0.0, 0.0, 1.0]
],
  "dcmmeta_shape": [96, 96, 56, 280],
  "dcmmeta_slice_dim": 2,
  "dcmmeta_version": 0.6,
  "global": {
    "const": {
      "AccessionNumber": "A000604",
      "AcquisitionMatrix": [96, 0, 0, 96],
      "AngioFlag": "N",
      "BitsAllocated": 16,
      "BitsStored": 12,
      "BodyPartExamined": "BRAIN",
      "Columns": 768,
      "EchoNumbers": 1,
      "EchoTime": 33.0,
      "EchoTrainLength": 96,
      "FlipAngle": 64.0,
      "HighBit": 11,
      "ImageOrientationPatient": [0.99959046579317, -0.0145930451392, -0.0246159242963, 0.01430680852559, 0.99982844205438, -0.0117644247169],
      "ImagePositionPatient": [-977.3145707926, -953.47052611688, -32.993909441968],
      "ImageType": [
        "ORIGINAL",
        "PRIMARY",
        "FMRI",
        "NONE",
        "ND",
        "NORM",
        "MOSAIC"
],
      "ImagedNucleus": "1H",
      "ImagingFrequency": 123.252358,
      "InPlanePhaseEncodingDirection": "COL",
      "MRAcquisitionType": "2D",
      "MagneticFieldStrength": 3.0,
      "Manufacturer": "SIEMENS",
      "ManufacturerModelName": "Prisma",
      "Modality": "MR",
      "NumberOfAverages": 1.0,
      "NumberOfPhaseEncodingSteps": 96,
      "PercentPhaseFieldOfView": 100.0,
      "PercentSampling": 100.0,
      "PerformedProcedureStepStartTime": "175429.251000",
      "PhotometricInterpretation": "MONOCHROME2",
      "PixelBandwidth": 2265.0,
      "PixelRepresentation": 0,
      "PixelSpacing": [2.5, 2.5],
      "PositionReferenceIndicator": "",
      "ProtocolName": "func_run-02_task-str1back",
      "RepetitionTime": 1250.0,
      "Rows": 768,
      "SAR": 0.04876079892454,
      "SamplesPerPixel": 1,
      "ScanOptions": "FS",
      "ScanningSequence": "EP",
      "SequenceName": "*epfid2d1_96",
      "SequenceVariant": "SK",
      "SeriesDescription": "func_run-02_task-str1back",
      "SeriesNumber": 15,
      "SeriesTime": "181112.766000",
      "SliceLocation": -68.079435812736,
      "SliceThickness": 2.5,
      "SmallestImagePixelValue": 0,
      "SoftwareVersions": "syngo MR E11",
      "SpacingBetweenSlices": 2.5000000961071,
      "SpecificCharacterSet": "ISO_IR 100",
      "StudyID": "1",
      "StudyTime": "175429.196000",
      "TransmitCoilName": "Body",
      "VariableFlipAngleFlag": "N",
      "WindowCenterWidthExplanation": "Algo1",
      "dBdt": 0.0},
    "slices": {}
  },
  "time": {
    "samples": {
      "AcquisitionNumber": [1, 2, 3, 4, 5, 6, 7, 8, 9, 10, 11, 12, 13, 14, 15, 16, 17, 18, 19, 20, 21, 22, 23, 24, 25, 26, 27, 28, 29, 30, 31, 32, 33, 34, 35, 36, 37, 38, 39, 40, 41, 42, 43, 44, 45, 46, 47, 48, 49, 50, 51, 52, 53, 54, 55, 56, 57, 58, 59, 60, 61, 62, 63, 64, 65, 66, 67, 68, 69, 70, 71, 72, 73, 74, 75, 76, 77, 78, 79, 80, 81, 82, 83, 84, 85, 86, 87, 88, 89, 90, 91, 92, 93, 94, 95, 96, 97, 98, 99, 100, 101, 102, 103, 104, 105, 106, 107, 108, 109, 110, 111, 112, 113, 114, 115, 116, 117, 118, 119, 120, 121, 122, 123, 124, 125, 126, 127, 128, 129, 130, 131, 132, 133, 134, 135, 136, 137, 138, 139, 140, 141, 142, 143, 144, 145, 146, 147, 148, 149, 150, 151, 152, 153, 154, 155, 156, 157, 158, 159, 160, 161, 162, 163, 164, 165, 166, 167, 168, 169, 170, 171, 172, 173, 174, 175, 176, 177, 178, 179, 180, 181, 182, 183, 184, 185, 186, 187, 188, 189, 190, 191, 192, 193, 194, 195, 196, 197, 198, 199, 200, 201, 202, 203, 204, 205, 206, 207, 208, 209, 210, 211, 212, 213, 214, 215, 216, 217, 218, 219, 220, 221, 222, 223, 224, 225, 226, 227, 228, 229, 230, 231, 232, 233, 234, 235, 236, 237, 238, 239, 240, 241, 242, 243, 244, 245, 246, 247, 248, 249, 250, 251, 252, 253, 254, 255, 256, 257, 258, 259, 260, 261, 262, 263, 264, 265, 266, 267, 268, 269, 270, 271, 272, 273, 274, 275, 276, 277, 278, 279, 280],
      "AcquisitionTime": ["181111.730000", "181112.980000", "181114.230000", "181115.480000", "181116.730000", "181117.980000", "181119.230000", "181120.480000", "181121.730000", "181122.980000", "181124.230000", "181125.480000", "181126.730000", "181127.980000", "181129.230000", "181130.480000", "181131.730000", "181132.980000", "181134.230000", "181135.480000", "181136.730000", "181137.980000", "181139.230000", "181140.480000", "181141.730000", "181142.980000", "181144.230000", "181145.480000", "181146.730000", "181147.980000", "181149.230000", "181150.480000", "181151.730000", "181152.980000", "181154.230000", "181155.480000", "181156.730000", "181157.980000", "181159.230000", "181200.480000", "181201.730000", "181202.980000", "181204.230000", "181205.480000", "181206.730000", "181207.980000", "181209.230000", "181210.480000", "181211.730000", "181212.980000", "181214.230000", "181215.480000", "181216.730000", "181217.980000", "181219.230000", "181220.480000", "181221.730000", "181222.980000", "181224.230000", "181225.480000", "181226.730000", "181227.980000", "181229.230000", "181230.480000", "181231.730000", "181232.980000", "181234.230000", "181235.480000", "181236.730000", "181237.980000", "181239.230000", "181240.480000", "181241.730000", "181242.980000", "181244.230000", "181245.480000", "181246.730000", "181247.980000", "181249.230000", "181250.480000", "181251.730000", "181252.980000", "181254.230000", "181255.480000", "181256.730000", "181257.980000", "181259.230000", "181300.480000", "181301.730000", "181302.980000", "181304.230000", "181305.480000", "181306.730000", "181307.980000", "181309.230000", "181310.480000", "181311.730000", "181312.980000", "181314.230000", "181315.480000", "181316.730000", "181317.980000", "181319.230000", "181320.480000", "181321.730000", "181322.980000", "181324.230000", "181325.480000", "181326.730000", "181327.980000", "181329.230000", "181330.480000", "181331.730000", "181332.980000", "181334.230000", "181335.480000", "181336.730000", "181337.980000", "181339.230000", "181340.480000", "181341.730000", "181342.980000", "181344.230000", "181345.480000", "181346.730000", "181347.980000", "181349.230000", "181350.480000", "181351.730000", "181352.980000", "181354.230000", "181355.480000", "181356.730000", "181357.980000", "181359.230000", "181400.480000", "181401.730000", "181402.980000", "181404.230000", "181405.480000", "181406.730000", "181407.980000", "181409.230000", "181410.480000", "181411.730000", "181412.980000", "181414.230000", "181415.480000", "181416.730000", "181417.980000", "181419.230000", "181420.480000", "181421.730000", "181422.980000", "181424.230000", "181425.480000", "181426.730000", "181427.980000", "181429.230000", "181430.480000", "181431.730000", "181432.980000", "181434.230000", "181435.480000", "181436.730000", "181437.980000", "181439.230000", "181440.480000", "181441.730000", "181442.980000", "181444.230000", "181445.480000", "181446.730000", "181447.980000", "181449.230000", "181450.480000", "181451.730000", "181452.980000", "181454.230000", "181455.480000", "181456.730000", "181457.980000", "181459.230000", "181500.480000", "181501.730000", "181502.980000", "181504.230000", "181505.480000", "181506.730000", "181507.980000", "181509.230000", "181510.480000", "181511.730000", "181512.980000", "181514.230000", "181515.480000", "181516.730000", "181517.980000", "181519.230000", "181520.480000", "181521.730000", "181522.980000", "181524.230000", "181525.480000", "181526.730000", "181527.980000", "181529.230000", "181530.480000", "181531.730000", "181532.980000", "181534.230000", "181535.480000", "181536.730000", "181537.980000", "181539.230000", "181540.480000", "181541.730000", "181542.980000", "181544.230000", "181545.480000", "181546.730000", "181547.980000", "181549.230000", "181550.480000", "181551.730000", "181552.980000", "181554.230000", "181555.480000", "181556.730000", "181557.980000", "181559.230000", "181600.480000", "181601.730000", "181602.980000", "181604.230000", "181605.480000", "181606.730000", "181607.980000", "181609.230000", "181610.480000", "181611.730000", "181612.980000", "181614.230000", "181615.480000", "181616.730000", "181617.980000", "181619.230000", "181620.480000", "181621.730000", "181622.980000", "181624.230000", "181625.480000", "181626.730000", "181627.980000", "181629.230000", "181630.480000", "181631.730000", "181632.980000", "181634.230000", "181635.480000", "181636.730000", "181637.980000", "181639.230000", "181640.480000", "181641.730000", "181642.980000", "181644.230000", "181645.480000", "181646.730000", "181647.980000", "181649.230000", "181650.480000", "181651.730000", "181652.980000", "181654.230000", "181655.480000", "181656.730000", "181657.980000", "181659.230000", "181700.480000"],
      "ContentTime": ["181112.770000", "181113.849000", "181115.075000", "181116.356000", "181117.542000", "181118.830000", "181120.115000", "181121.328000", "181122.615000", "181123.840000", "181125.077000", "181126.367000", "181127.594000", "181128.849000", "181130.108000", "181131.342000", "181132.585000", "181133.823000", "181135.090000", "181136.331000", "181137.598000", "181138.844000", "181140.085000", "181141.371000", "181142.596000", "181143.822000", "181145.115000", "181146.365000", "181147.573000", "181148.844000", "181150.103000", "181151.330000", "181152.569000", "181153.847000", "181155.075000", "181156.297000", "181157.612000", "181158.816000", "181200.097000", "181201.341000", "181202.575000", "181203.841000", "181205.120000", "181206.385000", "181207.577000", "181208.883000", "181210.091000", "181211.322000", "181212.604000", "181213.838000", "181215.098000", "181216.274000", "181217.597000", "181218.861000", "181220.105000", "181221.321000", "181222.627000", "181223.842000", "181225.101000", "181226.308000", "181227.575000", "181228.835000", "181230.074000", "181231.349000", "181232.593000", "181233.827000", "181235.078000", "181236.356000", "181237.606000", "181238.856000", "181240.098000", "181241.316000", "181242.603000", "181243.848000", "181245.107000", "181246.336000", "181247.623000", "181248.822000", "181250.077000", "181251.316000", "181252.607000", "181253.867000", "181255.088000", "181256.344000", "181257.582000", "181258.833000", "181300.081000", "181301.361000", "181302.569000", "181303.857000", "181305.102000", "181306.377000", "181307.599000", "181308.860000", "181310.103000", "181311.339000", "181312.579000", "181313.839000", "181315.087000", "181316.348000", "181317.616000", "181318.856000", "181320.099000", "181321.334000", "181322.591000", "181323.814000", "181325.123000", "181326.332000", "181327.593000", "181328.856000", "181330.100000", "181331.351000", "181332.601000", "181333.853000", "181335.067000", "181336.321000", "181337.602000", "181338.857000", "181340.107000", "181341.395000", "181342.607000", "181343.868000", "181345.093000", "181346.325000", "181347.615000", "181348.876000", "181350.105000", "181351.377000", "181352.627000", "181353.857000", "181355.106000", "181356.358000", "181357.584000", "181358.840000", "181400.138000", "181401.336000", "181402.575000", "181403.847000", "181405.108000", "181406.338000", "181407.605000", "181408.818000", "181410.098000", "181411.350000", "181412.621000", "181413.849000", "181415.032000", "181416.348000", "181417.574000", "181418.871000", "181420.080000", "181421.350000", "181422.593000", "181423.834000", "181425.098000", "181426.353000", "181427.556000", "181428.846000", "181430.104000", "181431.349000", "181432.598000", "181433.834000", "181435.105000", "181436.342000", "181437.579000", "181438.841000", "181440.139000", "181441.344000", "181442.602000", "181443.846000", "181445.111000", "181446.341000", "181447.612000", "181448.843000", "181450.084000", "181451.362000", "181452.582000", "181453.822000", "181455.141000", "181456.367000", "181457.605000", "181458.893000", "181500.096000", "181501.339000", "181502.597000", "181503.872000", "181505.093000", "181506.341000", "181507.592000", "181508.830000", "181510.078000", "181511.342000", "181512.595000", "181513.875000", "181515.126000", "181516.364000", "181517.633000", "181518.839000", "181520.076000", "181521.360000", "181522.585000", "181523.840000", "181525.115000", "181526.331000", "181527.590000", "181528.840000", "181530.094000", "181531.360000", "181532.657000", "181533.813000", "181535.064000", "181536.322000", "181537.596000", "181538.873000", "181540.095000", "181541.334000", "181542.568000", "181543.835000", "181545.102000", "181546.346000", "181547.595000", "181548.824000", "181550.093000", "181551.351000", "181552.600000", "181553.856000", "181555.118000", "181556.302000", "181557.583000", "181558.856000", "181600.044000", "181601.323000", "181602.602000", "181603.867000", "181605.098000", "181606.337000", "181607.613000", "181608.991000", "181610.118000", "181611.365000", "181612.655000", "181613.828000", "181615.079000", "181616.366000", "181617.537000", "181618.843000", "181620.103000", "181621.402000", "181622.595000", "181623.806000", "181625.122000", "181626.355000", "181627.612000", "181628.844000", "181630.100000", "181631.324000", "181632.634000", "181633.825000", "181635.084000", "181636.355000", "181637.588000", "181638.847000", "181640.072000", "181641.326000", "181642.588000", "181643.852000", "181645.073000", "181646.368000", "181647.586000", "181648.836000", "181650.100000", "181651.374000", "181652.580000", "181653.830000", "181655.111000", "181656.363000", "181657.607000", "181658.844000", "181700.071000", "181701.391000"],
      "InstanceCreationTime": ["181112.770000", "181113.849000", "181115.075000", "181116.356000", "181117.542000", "181118.830000", "181120.115000", "181121.328000", "181122.615000", "181123.840000", "181125.077000", "181126.367000", "181127.594000", "181128.849000", "181130.108000", "181131.342000", "181132.585000", "181133.823000", "181135.090000", "181136.331000", "181137.598000", "181138.844000", "181140.085000", "181141.371000", "181142.596000", "181143.822000", "181145.115000", "181146.365000", "181147.573000", "181148.844000", "181150.103000", "181151.330000", "181152.569000", "181153.847000", "181155.075000", "181156.297000", "181157.612000", "181158.816000", "181200.097000", "181201.341000", "181202.575000", "181203.841000", "181205.120000", "181206.385000", "181207.577000", "181208.883000", "181210.091000", "181211.322000", "181212.604000", "181213.838000", "181215.098000", "181216.274000", "181217.597000", "181218.861000", "181220.105000", "181221.321000", "181222.627000", "181223.842000", "181225.101000", "181226.308000", "181227.575000", "181228.835000", "181230.074000", "181231.349000", "181232.593000", "181233.827000", "181235.078000", "181236.356000", "181237.606000", "181238.856000", "181240.098000", "181241.316000", "181242.603000", "181243.848000", "181245.107000", "181246.336000", "181247.623000", "181248.822000", "181250.077000", "181251.316000", "181252.607000", "181253.867000", "181255.088000", "181256.344000", "181257.582000", "181258.833000", "181300.081000", "181301.361000", "181302.569000", "181303.857000", "181305.102000", "181306.377000", "181307.599000", "181308.860000", "181310.103000", "181311.339000", "181312.579000", "181313.839000", "181315.087000", "181316.348000", "181317.616000", "181318.856000", "181320.099000", "181321.334000", "181322.591000", "181323.814000", "181325.123000", "181326.332000", "181327.593000", "181328.856000", "181330.100000", "181331.351000", "181332.601000", "181333.853000", "181335.067000", "181336.321000", "181337.602000", "181338.857000", "181340.107000", "181341.395000", "181342.607000", "181343.868000", "181345.093000", "181346.325000", "181347.615000", "181348.876000", "181350.105000", "181351.377000", "181352.627000", "181353.857000", "181355.106000", "181356.358000", "181357.584000", "181358.840000", "181400.138000", "181401.336000", "181402.575000", "181403.847000", "181405.108000", "181406.338000", "181407.605000", "181408.818000", "181410.098000", "181411.350000", "181412.621000", "181413.849000", "181415.032000", "181416.348000", "181417.574000", "181418.871000", "181420.080000", "181421.350000", "181422.593000", "181423.834000", "181425.098000", "181426.353000", "181427.556000", "181428.846000", "181430.104000", "181431.349000", "181432.598000", "181433.834000", "181435.105000", "181436.342000", "181437.579000", "181438.841000", "181440.139000", "181441.344000", "181442.602000", "181443.846000", "181445.111000", "181446.341000", "181447.612000", "181448.843000", "181450.084000", "181451.362000", "181452.582000", "181453.822000", "181455.141000", "181456.367000", "181457.605000", "181458.893000", "181500.096000", "181501.339000", "181502.597000", "181503.872000", "181505.093000", "181506.341000", "181507.592000", "181508.830000", "181510.078000", "181511.342000", "181512.595000", "181513.875000", "181515.126000", "181516.364000", "181517.633000", "181518.839000", "181520.076000", "181521.360000", "181522.585000", "181523.840000", "181525.115000", "181526.331000", "181527.590000", "181528.840000", "181530.094000", "181531.360000", "181532.657000", "181533.813000", "181535.064000", "181536.322000", "181537.596000", "181538.873000", "181540.095000", "181541.334000", "181542.568000", "181543.835000", "181545.102000", "181546.346000", "181547.595000", "181548.824000", "181550.093000", "181551.351000", "181552.600000", "181553.856000", "181555.118000", "181556.302000", "181557.583000", "181558.856000", "181600.044000", "181601.323000", "181602.602000", "181603.867000", "181605.098000", "181606.337000", "181607.613000", "181608.991000", "181610.118000", "181611.365000", "181612.655000", "181613.828000", "181615.079000", "181616.366000", "181617.537000", "181618.843000", "181620.103000", "181621.402000", "181622.595000", "181623.806000", "181625.122000", "181626.355000", "181627.612000", "181628.844000", "181630.100000", "181631.324000", "181632.634000", "181633.825000", "181635.084000", "181636.355000", "181637.588000", "181638.847000", "181640.072000", "181641.326000", "181642.588000", "181643.852000", "181645.073000", "181646.368000", "181647.586000", "181648.836000", "181650.100000", "181651.374000", "181652.580000", "181653.830000", "181655.111000", "181656.363000", "181657.607000", "181658.844000", "181700.071000", "181701.391000"],
      "InstanceNumber": [1, 2, 3, 4, 5, 6, 7, 8, 9, 10, 11, 12, 13, 14, 15, 16, 17, 18, 19, 20, 21, 22, 23, 24, 25, 26, 27, 28, 29, 30, 31, 32, 33, 34, 35, 36, 37, 38, 39, 40, 41, 42, 43, 44, 45, 46, 47, 48, 49, 50, 51, 52, 53, 54, 55, 56, 57, 58, 59, 60, 61, 62, 63, 64, 65, 66, 67, 68, 69, 70, 71, 72, 73, 74, 75, 76, 77, 78, 79, 80, 81, 82, 83, 84, 85, 86, 87, 88, 89, 90, 91, 92, 93, 94, 95, 96, 97, 98, 99, 100, 101, 102, 103, 104, 105, 106, 107, 108, 109, 110, 111, 112, 113, 114, 115, 116, 117, 118, 119, 120, 121, 122, 123, 124, 125, 126, 127, 128, 129, 130, 131, 132, 133, 134, 135, 136, 137, 138, 139, 140, 141, 142, 143, 144, 145, 146, 147, 148, 149, 150, 151, 152, 153, 154, 155, 156, 157, 158, 159, 160, 161, 162, 163, 164, 165, 166, 167, 168, 169, 170, 171, 172, 173, 174, 175, 176, 177, 178, 179, 180, 181, 182, 183, 184, 185, 186, 187, 188, 189, 190, 191, 192, 193, 194, 195, 196, 197, 198, 199, 200, 201, 202, 203, 204, 205, 206, 207, 208, 209, 210, 211, 212, 213, 214, 215, 216, 217, 218, 219, 220, 221, 222, 223, 224, 225, 226, 227, 228, 229, 230, 231, 232, 233, 234, 235, 236, 237, 238, 239, 240, 241, 242, 243, 244, 245, 246, 247, 248, 249, 250, 251, 252, 253, 254, 255, 256, 257, 258, 259, 260, 261, 262, 263, 264, 265, 266, 267, 268, 269, 270, 271, 272, 273, 274, 275, 276, 277, 278, 279, 280],
      "LargestImagePixelValue": [1157, 1013, 1324, 1384, 1174, 940, 1093, 1210, 1494, 1017, 1077, 1141, 1238, 1398, 930, 924, 1189, 1266, 1099, 932, 1030, 1450, 1353, 1078, 1088, 924, 1197, 1352, 1164, 983, 916, 1143, 1352, 1225, 946, 909, 1191, 1484, 972, 1149, 1173, 1494, 1195, 979, 1119, 1217, 1493, 939, 1054, 1146, 1515, 1047, 1136, 1206, 1495, 1259, 949, 1118, 1238, 1527, 1009, 1071, 1171, 1350, 1129, 1052, 968, 1359, 1528, 1034, 987, 1158, 1358, 1263, 1031, 933, 1240, 1466, 954, 1115, 1134, 1506, 1353, 1067, 910, 1106, 1279, 1218, 989, 919, 1282, 1446, 1087, 934, 1141, 1277, 1498, 1037, 1132, 1189, 1547, 1169, 1120, 955, 1275, 1352, 940, 1150, 1227, 1548, 921, 1023, 1200, 1391, 1065, 1293, 1361, 1620, 1098, 1008, 1133, 1267, 1437, 921, 931, 1114, 1435, 1137, 1111, 938, 1263, 1513, 1252, 1008, 918, 1239, 1373, 1250, 968, 957, 1353, 1358, 1176, 919, 1086, 1135, 1438, 1013, 1103, 981, 1297, 1291, 930, 1077, 1228, 1584, 1019, 1187, 1077, 1478, 1356, 921, 900, 1186, 1423, 1241, 965, 966, 1426, 1444, 1000, 931, 1247, 1348, 1438, 997, 1105, 927, 1291, 1313, 1357, 991, 1105, 977, 1287, 1226, 940, 929, 1105, 1392, 1212, 1079, 1298, 959, 1177, 1483, 1405, 1143, 928, 1021, 1420, 1173, 1071, 988, 1246, 1538, 1044, 1163, 947, 1268, 1464, 1308, 946, 947, 1196, 1351, 1154, 924, 1137, 1221, 1533, 1018, 1140, 1128, 1273, 1364, 915, 1055, 1165, 1523, 1170, 1136, 964, 1274, 1493, 944, 977, 1102, 1408, 951, 1120, 1230, 1613, 1144, 1215, 1236, 1600, 1008, 1108, 965, 1337, 1353, 927, 930, 1047, 1388, 1382, 1170, 980, 1152, 1251, 1311, 931, 1220, 1278, 1573, 1134, 1016, 1055, 1258, 1519, 1139, 1057, 918, 1301, 1375, 1034, 923, 1133, 1434],
      "WindowCenter": [426.0, 422.0, 425.0, 424.0, 422.0, 419.0, 421.0, 423.0, 425.0, 421.0, 421.0, 422.0, 422.0, 424.0, 419.0, 420.0, 423.0, 424.0, 422.0, 421.0, 422.0, 425.0, 424.0, 422.0, 422.0, 420.0, 423.0, 424.0, 423.0, 421.0, 420.0, 422.0, 424.0, 423.0, 420.0, 421.0, 424.0, 426.0, 422.0, 424.0, 424.0, 426.0, 424.0, 421.0, 422.0, 423.0, 426.0, 421.0, 423.0, 424.0, 427.0, 423.0, 423.0, 424.0, 425.0, 423.0, 420.0, 422.0, 423.0, 425.0, 421.0, 422.0, 422.0, 424.0, 423.0, 422.0, 422.0, 425.0, 426.0, 421.0, 420.0, 423.0, 424.0, 423.0, 421.0, 421.0, 424.0, 426.0, 422.0, 423.0, 423.0, 425.0, 424.0, 421.0, 419.0, 421.0, 423.0, 423.0, 421.0, 420.0, 424.0, 425.0, 422.0, 421.0, 423.0, 425.0, 426.0, 422.0, 422.0, 423.0, 426.0, 423.0, 422.0, 421.0, 424.0, 425.0, 420.0, 423.0, 423.0, 425.0, 420.0, 422.0, 424.0, 426.0, 423.0, 425.0, 425.0, 426.0, 421.0, 420.0, 421.0, 422.0, 424.0, 419.0, 420.0, 422.0, 426.0, 423.0, 423.0, 420.0, 423.0, 425.0, 423.0, 420.0, 420.0, 423.0, 424.0, 423.0, 420.0, 420.0, 424.0, 424.0, 422.0, 419.0, 421.0, 422.0, 425.0, 421.0, 423.0, 421.0, 424.0, 424.0, 421.0, 423.0, 424.0, 427.0, 422.0, 423.0, 421.0, 425.0, 424.0, 419.0, 419.0, 423.0, 425.0, 424.0, 421.0, 421.0, 425.0, 425.0, 421.0, 420.0, 424.0, 424.0, 425.0, 420.0, 421.0, 420.0, 423.0, 424.0, 424.0, 420.0, 422.0, 420.0, 424.0, 424.0, 421.0, 421.0, 423.0, 427.0, 426.0, 424.0, 425.0, 421.0, 423.0, 425.0, 424.0, 422.0, 419.0, 421.0, 424.0, 422.0, 422.0, 421.0, 424.0, 425.0, 421.0, 423.0, 420.0, 423.0, 424.0, 423.0, 420.0, 420.0, 423.0, 424.0, 423.0, 421.0, 423.0, 425.0, 426.0, 422.0, 423.0, 423.0, 424.0, 424.0, 421.0, 423.0, 424.0, 427.0, 424.0, 423.0, 421.0, 424.0, 426.0, 421.0, 422.0, 423.0, 426.0, 422.0, 424.0, 425.0, 428.0, 423.0, 424.0, 424.0, 426.0, 420.0, 421.0, 420.0, 424.0, 424.0, 420.0, 421.0, 422.0, 425.0, 425.0, 423.0, 421.0, 422.0, 424.0, 425.0, 421.0, 424.0, 424.0, 426.0, 422.0, 421.0, 421.0, 423.0, 425.0, 422.0, 421.0, 420.0, 424.0, 425.0, 422.0, 421.0, 423.0, 426.0],
      "WindowWidth": [902.0, 895.0, 898.0, 896.0, 893.0, 889.0, 891.0, 893.0, 897.0, 891.0, 892.0, 892.0, 892.0, 894.0, 889.0, 889.0, 894.0, 896.0, 894.0, 892.0, 893.0, 897.0, 896.0, 893.0, 893.0, 890.0, 894.0, 896.0, 894.0, 892.0, 890.0, 893.0, 896.0, 894.0, 891.0, 891.0, 896.0, 899.0, 893.0, 896.0, 896.0, 899.0, 895.0, 892.0, 894.0, 895.0, 898.0, 892.0, 894.0, 896.0, 900.0, 895.0, 895.0, 896.0, 898.0, 894.0, 889.0, 892.0, 894.0, 898.0, 892.0, 893.0, 893.0, 896.0, 894.0, 894.0, 893.0, 898.0, 899.0, 892.0, 891.0, 894.0, 895.0, 895.0, 892.0, 891.0, 896.0, 899.0, 893.0, 895.0, 895.0, 898.0, 895.0, 891.0, 889.0, 891.0, 894.0, 894.0, 892.0, 891.0, 896.0, 897.0, 893.0, 892.0, 895.0, 897.0, 899.0, 893.0, 893.0, 894.0, 899.0, 894.0, 893.0, 891.0, 896.0, 897.0, 891.0, 895.0, 895.0, 898.0, 890.0, 892.0, 897.0, 900.0, 896.0, 897.0, 897.0, 898.0, 891.0, 889.0, 891.0, 892.0, 895.0, 888.0, 889.0, 893.0, 899.0, 895.0, 894.0, 890.0, 894.0, 897.0, 894.0, 890.0, 890.0, 894.0, 895.0, 894.0, 891.0, 890.0, 896.0, 896.0, 893.0, 888.0, 891.0, 892.0, 897.0, 892.0, 894.0, 892.0, 896.0, 896.0, 892.0, 894.0, 897.0, 900.0, 894.0, 894.0, 892.0, 897.0, 895.0, 889.0, 889.0, 894.0, 898.0, 895.0, 892.0, 892.0, 898.0, 897.0, 892.0, 891.0, 895.0, 896.0, 897.0, 890.0, 892.0, 889.0, 895.0, 896.0, 895.0, 890.0, 892.0, 891.0, 895.0, 896.0, 893.0, 892.0, 895.0, 900.0, 899.0, 897.0, 897.0, 891.0, 894.0, 897.0, 895.0, 892.0, 889.0, 891.0, 896.0, 893.0, 893.0, 892.0, 895.0, 898.0, 892.0, 894.0, 890.0, 895.0, 896.0, 895.0, 890.0, 890.0, 894.0, 896.0, 895.0, 891.0, 895.0, 897.0, 900.0, 893.0, 894.0, 894.0, 896.0, 897.0, 891.0, 895.0, 897.0, 901.0, 896.0, 894.0, 891.0, 896.0, 899.0, 892.0, 893.0, 895.0, 899.0, 893.0, 896.0, 898.0, 901.0, 895.0, 896.0, 895.0, 898.0, 890.0, 892.0, 889.0, 896.0, 896.0, 890.0, 892.0, 893.0, 898.0, 897.0, 894.0, 891.0, 893.0, 895.0, 897.0, 892.0, 896.0, 896.0, 898.0, 893.0, 891.0, 891.0, 894.0, 896.0, 892.0, 891.0, 890.0, 896.0, 898.0, 893.0, 892.0, 895.0, 899.0]
    },
    "slices": {}
  }
}