{
  "AcquisitionMatrixPE": 96,
  "AcquisitionNumber": 1,
  "AcquisitionTime": "18:04:38.325000",
  "BandwidthPerPixelPhaseEncode": 18.939,
  "BaseResolution": 96,
  "BodyPartExamined": "BRAIN",
  "ConsistencyInfo": "N4_VE11C_LATEST_20160120",
  "ConversionSoftware": "dcm2niix",
  "ConversionSoftwareVersion": "v1.0.20170923 (OpenJPEG build) GCC6.3.0",
  "DerivedVendorReportedEchoSpacing": 0.000550011,
  "DeviceSerialNumber": "66112",
  "DwellTime": 2.3e-06,
  "EchoTime": 0.033,
  "EchoTrainLength": 96,
  "EffectiveEchoSpacing": 0.000550011,
  "FlipAngle": 64,
  "ImageType": [
    "ORIGINAL",
    "PRIMARY",
    "FMRI",
    "NONE",
    "ND",
    "NORM",
    "MOSAIC"
],
  "InstitutionAddress": "Maynard_3_Hanover_NH_US_03755",
  "InstitutionName": "Dartmouth_College_-_PBS",
  "MagneticFieldStrength": 3,
  "Manufacturer": "Siemens",
  "ManufacturersModelName": "Prisma",
  "Modality": "MR",
  "MultibandAccelerationFactor": 4,
  "PartialFourier": 1,
  "PercentPhaseFOV": 100,
  "PhaseEncodingDirection": "j-",
  "PhaseEncodingSteps": 96,
  "PhaseResolution": 1,
  "ProcedureStepDescription": "Gobbini_Matteo_1017_famface-angles",
  "ProtocolName": "func_run-01_task-fam1back",
  "PulseSequenceDetails": "%SiemensSeq%_ep2d_bold",
  "ReceiveCoilActiveElements": "HEA;HEP",
  "ReceiveCoilName": "Head_32",
  "ReconMatrixPE": 96,
  "RepetitionTime": 1.25,
  "ScanOptions": "FS",
  "ScanningSequence": "EP",
  "SequenceName": "_epfid2d1_96",
  "SequenceVariant": "SK",
  "SeriesDescription": "func_run-01_task-fam1back",
  "SliceTiming": [0.8775, 0, 0.615, 0.0875, 0.7025, 0.175, 0.79, 0.3525, 0.9675, 0.44, 1.055, 0.5275, 1.1425, 0.2625, 0.8775, 0, 0.615, 0.0875, 0.7025, 0.175, 0.79, 0.3525, 0.9675, 0.44, 1.055, 0.5275, 1.1425, 0.2625, 0.8775, 0, 0.615, 0.0875, 0.7025, 0.175, 0.79, 0.3525, 0.9675, 0.44, 1.055, 0.5275, 1.1425, 0.2625, 0.8775, 0, 0.615, 0.0875, 0.7025, 0.175, 0.79, 0.3525, 0.9675, 0.44, 1.055, 0.5275, 1.1425, 0.2625],
  "SoftwareVersions": "syngo_MR_E11",
  "StationName": "AWP66112",
  "TaskName": "fam1back",
  "TotalReadoutTime": 0.0522511,
  "dcmmeta_affine": [
    [-2.498976230621338, 0.035767022520303726, -0.06195845082402229, 122.24299621582031],
    [0.036482613533735275, 2.4995710849761963, -0.02851857990026474, -111.58646392822266],
    [-0.06153981015086174, 0.029411062598228455, 2.4990694522857666, -66.34745025634766],
    [0.0, 0.0, 0.0, 1.0]
],
  "dcmmeta_reorient_transform": [
    [0.0, -1.0, 0.0, 95.0],
    [1.0, 0.0, 0.0, 0.0],
    [0.0, 0.0, 1.0, 0.0],
    [0.0, 0.0, 0.0, 1.0]
],
  "dcmmeta_shape": [96, 96, 56, 280],
  "dcmmeta_slice_dim": 2,
  "dcmmeta_version": 0.6,
  "global": {
    "const": {
      "AccessionNumber": "A000604",
      "AcquisitionMatrix": [96, 0, 0, 96],
      "AngioFlag": "N",
      "BitsAllocated": 16,
      "BitsStored": 12,
      "BodyPartExamined": "BRAIN",
      "Columns": 768,
      "EchoNumbers": 1,
      "EchoTime": 33.0,
      "EchoTrainLength": 96,
      "FlipAngle": 64.0,
      "HighBit": 11,
      "ImageOrientationPatient": [0.99959046579317, -0.0145930451392, -0.0246159242963, 0.01430680852559, 0.99982844205438, -0.0117644247169],
      "ImagePositionPatient": [-977.3145707926, -953.47052611688, -32.993909441968],
      "ImageType": [
        "ORIGINAL",
        "PRIMARY",
        "FMRI",
        "NONE",
        "ND",
        "NORM",
        "MOSAIC"
],
      "ImagedNucleus": "1H",
      "ImagingFrequency": 123.252356,
      "InPlanePhaseEncodingDirection": "COL",
      "MRAcquisitionType": "2D",
      "MagneticFieldStrength": 3.0,
      "Manufacturer": "SIEMENS",
      "ManufacturerModelName": "Prisma",
      "Modality": "MR",
      "NumberOfAverages": 1.0,
      "NumberOfPhaseEncodingSteps": 96,
      "PercentPhaseFieldOfView": 100.0,
      "PercentSampling": 100.0,
      "PerformedProcedureStepStartTime": "175429.251000",
      "PhotometricInterpretation": "MONOCHROME2",
      "PixelBandwidth": 2265.0,
      "PixelRepresentation": 0,
      "PixelSpacing": [2.5, 2.5],
      "PositionReferenceIndicator": "",
      "ProtocolName": "func_run-01_task-fam1back",
      "RepetitionTime": 1250.0,
      "Rows": 768,
      "SAR": 0.04876079892454,
      "SamplesPerPixel": 1,
      "ScanOptions": "FS",
      "ScanningSequence": "EP",
      "SequenceName": "*epfid2d1_96",
      "SequenceVariant": "SK",
      "SeriesDescription": "func_run-01_task-fam1back",
      "SeriesNumber": 8,
      "SeriesTime": "180439.796000",
      "SliceLocation": -68.079435812736,
      "SliceThickness": 2.5,
      "SmallestImagePixelValue": 0,
      "SoftwareVersions": "syngo MR E11",
      "SpacingBetweenSlices": 2.5000000961071,
      "SpecificCharacterSet": "ISO_IR 100",
      "StudyID": "1",
      "StudyTime": "175429.196000",
      "TransmitCoilName": "Body",
      "VariableFlipAngleFlag": "N",
      "WindowCenterWidthExplanation": "Algo1",
      "dBdt": 0.0},
    "slices": {}
  },
  "time": {
    "samples": {
      "AcquisitionNumber": [1, 2, 3, 4, 5, 6, 7, 8, 9, 10, 11, 12, 13, 14, 15, 16, 17, 18, 19, 20, 21, 22, 23, 24, 25, 26, 27, 28, 29, 30, 31, 32, 33, 34, 35, 36, 37, 38, 39, 40, 41, 42, 43, 44, 45, 46, 47, 48, 49, 50, 51, 52, 53, 54, 55, 56, 57, 58, 59, 60, 61, 62, 63, 64, 65, 66, 67, 68, 69, 70, 71, 72, 73, 74, 75, 76, 77, 78, 79, 80, 81, 82, 83, 84, 85, 86, 87, 88, 89, 90, 91, 92, 93, 94, 95, 96, 97, 98, 99, 100, 101, 102, 103, 104, 105, 106, 107, 108, 109, 110, 111, 112, 113, 114, 115, 116, 117, 118, 119, 120, 121, 122, 123, 124, 125, 126, 127, 128, 129, 130, 131, 132, 133, 134, 135, 136, 137, 138, 139, 140, 141, 142, 143, 144, 145, 146, 147, 148, 149, 150, 151, 152, 153, 154, 155, 156, 157, 158, 159, 160, 161, 162, 163, 164, 165, 166, 167, 168, 169, 170, 171, 172, 173, 174, 175, 176, 177, 178, 179, 180, 181, 182, 183, 184, 185, 186, 187, 188, 189, 190, 191, 192, 193, 194, 195, 196, 197, 198, 199, 200, 201, 202, 203, 204, 205, 206, 207, 208, 209, 210, 211, 212, 213, 214, 215, 216, 217, 218, 219, 220, 221, 222, 223, 224, 225, 226, 227, 228, 229, 230, 231, 232, 233, 234, 235, 236, 237, 238, 239, 240, 241, 242, 243, 244, 245, 246, 247, 248, 249, 250, 251, 252, 253, 254, 255, 256, 257, 258, 259, 260, 261, 262, 263, 264, 265, 266, 267, 268, 269, 270, 271, 272, 273, 274, 275, 276, 277, 278, 279, 280],
      "AcquisitionTime": ["180438.325000", "180439.575000", "180440.825000", "180442.075000", "180443.325000", "180444.575000", "180445.825000", "180447.075000", "180448.325000", "180449.575000", "180450.825000", "180452.075000", "180453.325000", "180454.575000", "180455.825000", "180457.075000", "180458.325000", "180459.575000", "180500.825000", "180502.075000", "180503.325000", "180504.575000", "180505.825000", "180507.075000", "180508.325000", "180509.575000", "180510.825000", "180512.075000", "180513.325000", "180514.575000", "180515.825000", "180517.075000", "180518.325000", "180519.575000", "180520.825000", "180522.075000", "180523.325000", "180524.575000", "180525.825000", "180527.075000", "180528.325000", "180529.575000", "180530.825000", "180532.075000", "180533.325000", "180534.575000", "180535.825000", "180537.075000", "180538.325000", "180539.575000", "180540.825000", "180542.075000", "180543.325000", "180544.575000", "180545.825000", "180547.075000", "180548.325000", "180549.575000", "180550.825000", "180552.075000", "180553.325000", "180554.575000", "180555.825000", "180557.075000", "180558.325000", "180559.575000", "180600.825000", "180602.075000", "180603.325000", "180604.575000", "180605.825000", "180607.075000", "180608.325000", "180609.575000", "180610.825000", "180612.075000", "180613.325000", "180614.575000", "180615.825000", "180617.075000", "180618.325000", "180619.575000", "180620.825000", "180622.075000", "180623.325000", "180624.575000", "180625.825000", "180627.075000", "180628.325000", "180629.575000", "180630.825000", "180632.075000", "180633.325000", "180634.575000", "180635.825000", "180637.075000", "180638.325000", "180639.575000", "180640.825000", "180642.075000", "180643.325000", "180644.575000", "180645.825000", "180647.075000", "180648.325000", "180649.575000", "180650.825000", "180652.075000", "180653.325000", "180654.575000", "180655.825000", "180657.075000", "180658.325000", "180659.575000", "180700.825000", "180702.075000", "180703.325000", "180704.575000", "180705.825000", "180707.075000", "180708.325000", "180709.575000", "180710.825000", "180712.075000", "180713.325000", "180714.575000", "180715.825000", "180717.075000", "180718.325000", "180719.575000", "180720.825000", "180722.075000", "180723.325000", "180724.575000", "180725.825000", "180727.075000", "180728.325000", "180729.575000", "180730.825000", "180732.075000", "180733.325000", "180734.575000", "180735.825000", "180737.075000", "180738.325000", "180739.575000", "180740.825000", "180742.075000", "180743.325000", "180744.575000", "180745.825000", "180747.075000", "180748.325000", "180749.575000", "180750.825000", "180752.075000", "180753.325000", "180754.575000", "180755.825000", "180757.075000", "180758.325000", "180759.575000", "180800.825000", "180802.075000", "180803.325000", "180804.575000", "180805.825000", "180807.075000", "180808.325000", "180809.575000", "180810.825000", "180812.075000", "180813.325000", "180814.575000", "180815.825000", "180817.075000", "180818.325000", "180819.575000", "180820.825000", "180822.075000", "180823.325000", "180824.575000", "180825.825000", "180827.075000", "180828.325000", "180829.575000", "180830.825000", "180832.075000", "180833.325000", "180834.575000", "180835.825000", "180837.075000", "180838.325000", "180839.575000", "180840.825000", "180842.075000", "180843.325000", "180844.575000", "180845.825000", "180847.075000", "180848.325000", "180849.575000", "180850.825000", "180852.075000", "180853.325000", "180854.575000", "180855.825000", "180857.075000", "180858.325000", "180859.575000", "180900.825000", "180902.075000", "180903.325000", "180904.575000", "180905.825000", "180907.075000", "180908.325000", "180909.575000", "180910.825000", "180912.075000", "180913.325000", "180914.575000", "180915.825000", "180917.075000", "180918.325000", "180919.575000", "180920.825000", "180922.075000", "180923.325000", "180924.575000", "180925.825000", "180927.075000", "180928.325000", "180929.575000", "180930.825000", "180932.075000", "180933.325000", "180934.575000", "180935.825000", "180937.075000", "180938.325000", "180939.575000", "180940.825000", "180942.075000", "180943.325000", "180944.575000", "180945.825000", "180947.075000", "180948.325000", "180949.575000", "180950.825000", "180952.075000", "180953.325000", "180954.575000", "180955.825000", "180957.075000", "180958.325000", "180959.575000", "181000.825000", "181002.075000", "181003.325000", "181004.575000", "181005.825000", "181007.075000", "181008.325000", "181009.575000", "181010.825000", "181012.075000", "181013.325000", "181014.575000", "181015.825000", "181017.075000", "181018.325000", "181019.575000", "181020.825000", "181022.075000", "181023.325000", "181024.575000", "181025.825000", "181027.075000"],
      "ContentTime": ["180439.800000", "180440.854000", "180442.113000", "180443.347000", "180444.628000", "180445.858000", "180447.087000", "180448.380000", "180449.648000", "180450.825000", "180452.107000", "180453.367000", "180454.670000", "180455.828000", "180457.114000", "180458.348000", "180459.599000", "180500.855000", "180502.112000", "180503.340000", "180504.587000", "180505.827000", "180507.097000", "180508.363000", "180509.618000", "180510.836000", "180512.092000", "180513.356000", "180514.614000", "180515.848000", "180517.087000", "180518.338000", "180519.549000", "180520.848000", "180522.117000", "180523.358000", "180524.602000", "180525.843000", "180527.075000", "180528.354000", "180529.566000", "180530.818000", "180532.117000", "180533.367000", "180534.587000", "180535.851000", "180537.082000", "180538.327000", "180539.592000", "180540.845000", "180542.073000", "180543.333000", "180544.579000", "180545.856000", "180547.071000", "180548.357000", "180549.568000", "180550.880000", "180552.107000", "180553.347000", "180554.609000", "180555.821000", "180557.113000", "180558.346000", "180559.598000", "180600.843000", "180602.093000", "180603.359000", "180604.586000", "180605.856000", "180607.112000", "180608.342000", "180609.595000", "180610.828000", "180612.120000", "180613.357000", "180614.579000", "180615.866000", "180617.104000", "180618.345000", "180619.623000", "180620.873000", "180622.098000", "180623.340000", "180624.606000", "180625.815000", "180627.110000", "180628.339000", "180629.648000", "180630.892000", "180632.121000", "180633.364000", "180634.617000", "180635.820000", "180637.075000", "180638.361000", "180639.596000", "180640.841000", "180642.095000", "180643.341000", "180644.621000", "180645.872000", "180647.064000", "180648.360000", "180649.609000", "180650.869000", "180652.059000", "180653.359000", "180654.608000", "180655.864000", "180657.109000", "180658.360000", "180659.610000", "180700.847000", "180702.108000", "180703.354000", "180704.587000", "180705.840000", "180707.091000", "180708.345000", "180709.617000", "180710.871000", "180712.095000", "180713.341000", "180714.580000", "180715.868000", "180717.112000", "180718.336000", "180719.609000", "180720.921000", "180722.117000", "180723.340000", "180724.630000", "180725.843000", "180727.151000", "180728.345000", "180729.608000", "180730.858000", "180732.093000", "180733.353000", "180734.563000", "180735.835000", "180737.109000", "180738.343000", "180739.595000", "180740.883000", "180742.092000", "180743.342000", "180744.627000", "180745.839000", "180747.079000", "180748.355000", "180749.614000", "180750.876000", "180752.107000", "180753.372000", "180754.576000", "180755.864000", "180757.099000", "180758.320000", "180759.614000", "180800.844000", "180802.071000", "180803.339000", "180804.621000", "180805.867000", "180807.141000", "180808.342000", "180809.595000", "180810.857000", "180812.102000", "180813.324000", "180814.610000", "180815.859000", "180817.079000", "180818.340000", "180819.604000", "180820.937000", "180822.116000", "180823.347000", "180824.582000", "180825.857000", "180827.109000", "180828.320000", "180829.603000", "180830.850000", "180832.074000", "180833.342000", "180834.598000", "180835.874000", "180837.100000", "180838.345000", "180839.597000", "180840.865000", "180842.083000", "180843.376000", "180844.601000", "180845.833000", "180847.114000", "180848.357000", "180849.624000", "180850.848000", "180852.099000", "180853.356000", "180854.583000", "180855.862000", "180857.112000", "180858.308000", "180859.620000", "180900.855000", "180902.069000", "180903.369000", "180904.618000", "180905.855000", "180907.102000", "180908.349000", "180909.605000", "180910.842000", "180912.101000", "180913.353000", "180914.626000", "180915.885000", "180917.078000", "180918.365000", "180919.583000", "180920.836000", "180922.111000", "180923.413000", "180924.604000", "180925.852000", "180927.102000", "180928.417000", "180929.591000", "180930.838000", "180932.083000", "180933.320000", "180934.601000", "180935.840000", "180937.124000", "180938.304000", "180939.605000", "180940.828000", "180942.108000", "180943.348000", "180944.617000", "180945.805000", "180947.119000", "180948.342000", "180949.624000", "180950.872000", "180952.133000", "180953.372000", "180954.642000", "180955.848000", "180957.090000", "180958.348000", "180959.599000", "181000.877000", "181002.123000", "181003.360000", "181004.622000", "181005.835000", "181007.075000", "181008.366000", "181009.589000", "181010.850000", "181012.096000", "181013.360000", "181014.616000", "181015.872000", "181017.121000", "181018.357000", "181019.592000", "181020.859000", "181022.091000", "181023.350000", "181024.620000", "181025.840000", "181027.098000", "181028.396000"],
      "InstanceCreationTime": ["180439.800000", "180440.854000", "180442.113000", "180443.347000", "180444.628000", "180445.858000", "180447.087000", "180448.380000", "180449.648000", "180450.825000", "180452.107000", "180453.367000", "180454.670000", "180455.828000", "180457.114000", "180458.348000", "180459.599000", "180500.855000", "180502.112000", "180503.340000", "180504.587000", "180505.827000", "180507.097000", "180508.363000", "180509.618000", "180510.836000", "180512.092000", "180513.356000", "180514.614000", "180515.848000", "180517.087000", "180518.338000", "180519.549000", "180520.848000", "180522.117000", "180523.358000", "180524.602000", "180525.843000", "180527.075000", "180528.354000", "180529.566000", "180530.818000", "180532.117000", "180533.367000", "180534.587000", "180535.851000", "180537.082000", "180538.327000", "180539.592000", "180540.845000", "180542.073000", "180543.333000", "180544.579000", "180545.856000", "180547.071000", "180548.357000", "180549.568000", "180550.880000", "180552.107000", "180553.347000", "180554.609000", "180555.821000", "180557.113000", "180558.346000", "180559.598000", "180600.843000", "180602.093000", "180603.359000", "180604.586000", "180605.856000", "180607.112000", "180608.342000", "180609.595000", "180610.828000", "180612.120000", "180613.357000", "180614.579000", "180615.866000", "180617.104000", "180618.345000", "180619.623000", "180620.873000", "180622.098000", "180623.340000", "180624.606000", "180625.815000", "180627.110000", "180628.339000", "180629.648000", "180630.892000", "180632.121000", "180633.364000", "180634.617000", "180635.820000", "180637.075000", "180638.361000", "180639.596000", "180640.841000", "180642.095000", "180643.341000", "180644.621000", "180645.872000", "180647.064000", "180648.360000", "180649.609000", "180650.869000", "180652.059000", "180653.359000", "180654.608000", "180655.864000", "180657.109000", "180658.360000", "180659.610000", "180700.847000", "180702.108000", "180703.354000", "180704.587000", "180705.840000", "180707.091000", "180708.345000", "180709.617000", "180710.871000", "180712.095000", "180713.341000", "180714.580000", "180715.868000", "180717.112000", "180718.336000", "180719.609000", "180720.921000", "180722.117000", "180723.340000", "180724.630000", "180725.843000", "180727.151000", "180728.345000", "180729.608000", "180730.858000", "180732.093000", "180733.353000", "180734.563000", "180735.835000", "180737.109000", "180738.343000", "180739.595000", "180740.883000", "180742.092000", "180743.342000", "180744.627000", "180745.839000", "180747.079000", "180748.355000", "180749.614000", "180750.876000", "180752.107000", "180753.372000", "180754.576000", "180755.864000", "180757.099000", "180758.320000", "180759.614000", "180800.844000", "180802.071000", "180803.339000", "180804.621000", "180805.867000", "180807.141000", "180808.342000", "180809.595000", "180810.857000", "180812.102000", "180813.324000", "180814.610000", "180815.859000", "180817.079000", "180818.340000", "180819.604000", "180820.937000", "180822.116000", "180823.347000", "180824.582000", "180825.857000", "180827.109000", "180828.320000", "180829.603000", "180830.850000", "180832.074000", "180833.342000", "180834.598000", "180835.874000", "180837.100000", "180838.345000", "180839.597000", "180840.865000", "180842.083000", "180843.376000", "180844.601000", "180845.833000", "180847.114000", "180848.357000", "180849.624000", "180850.848000", "180852.099000", "180853.356000", "180854.583000", "180855.862000", "180857.112000", "180858.308000", "180859.620000", "180900.855000", "180902.069000", "180903.369000", "180904.618000", "180905.855000", "180907.102000", "180908.349000", "180909.605000", "180910.842000", "180912.101000", "180913.353000", "180914.626000", "180915.885000", "180917.078000", "180918.365000", "180919.583000", "180920.836000", "180922.111000", "180923.413000", "180924.604000", "180925.852000", "180927.102000", "180928.417000", "180929.591000", "180930.838000", "180932.083000", "180933.320000", "180934.601000", "180935.840000", "180937.124000", "180938.304000", "180939.605000", "180940.828000", "180942.108000", "180943.348000", "180944.617000", "180945.805000", "180947.119000", "180948.342000", "180949.624000", "180950.872000", "180952.133000", "180953.372000", "180954.642000", "180955.848000", "180957.090000", "180958.348000", "180959.599000", "181000.877000", "181002.123000", "181003.360000", "181004.622000", "181005.835000", "181007.075000", "181008.366000", "181009.589000", "181010.850000", "181012.096000", "181013.360000", "181014.616000", "181015.872000", "181017.121000", "181018.357000", "181019.592000", "181020.859000", "181022.091000", "181023.350000", "181024.620000", "181025.840000", "181027.098000", "181028.396000"],
      "InstanceNumber": [1, 2, 3, 4, 5, 6, 7, 8, 9, 10, 11, 12, 13, 14, 15, 16, 17, 18, 19, 20, 21, 22, 23, 24, 25, 26, 27, 28, 29, 30, 31, 32, 33, 34, 35, 36, 37, 38, 39, 40, 41, 42, 43, 44, 45, 46, 47, 48, 49, 50, 51, 52, 53, 54, 55, 56, 57, 58, 59, 60, 61, 62, 63, 64, 65, 66, 67, 68, 69, 70, 71, 72, 73, 74, 75, 76, 77, 78, 79, 80, 81, 82, 83, 84, 85, 86, 87, 88, 89, 90, 91, 92, 93, 94, 95, 96, 97, 98, 99, 100, 101, 102, 103, 104, 105, 106, 107, 108, 109, 110, 111, 112, 113, 114, 115, 116, 117, 118, 119, 120, 121, 122, 123, 124, 125, 126, 127, 128, 129, 130, 131, 132, 133, 134, 135, 136, 137, 138, 139, 140, 141, 142, 143, 144, 145, 146, 147, 148, 149, 150, 151, 152, 153, 154, 155, 156, 157, 158, 159, 160, 161, 162, 163, 164, 165, 166, 167, 168, 169, 170, 171, 172, 173, 174, 175, 176, 177, 178, 179, 180, 181, 182, 183, 184, 185, 186, 187, 188, 189, 190, 191, 192, 193, 194, 195, 196, 197, 198, 199, 200, 201, 202, 203, 204, 205, 206, 207, 208, 209, 210, 211, 212, 213, 214, 215, 216, 217, 218, 219, 220, 221, 222, 223, 224, 225, 226, 227, 228, 229, 230, 231, 232, 233, 234, 235, 236, 237, 238, 239, 240, 241, 242, 243, 244, 245, 246, 247, 248, 249, 250, 251, 252, 253, 254, 255, 256, 257, 258, 259, 260, 261, 262, 263, 264, 265, 266, 267, 268, 269, 270, 271, 272, 273, 274, 275, 276, 277, 278, 279, 280],
      "LargestImagePixelValue": [1139, 1234, 1484, 943, 1076, 1189, 1213, 932, 1077, 1459, 1388, 1011, 1092, 1135, 1327, 906, 1004, 1169, 965, 999, 1128, 1465, 1088, 1036, 1218, 1224, 915, 1035, 1302, 1019, 1001, 1358, 1097, 1003, 1087, 1291, 934, 989, 1272, 1036, 1007, 1197, 1361, 899, 1109, 1326, 935, 1045, 1452, 1015, 1005, 1428, 990, 1042, 1212, 1029, 948, 1333, 1034, 1024, 1209, 1263, 1026, 1206, 1456, 903, 1068, 1213, 1011, 962, 1218, 1187, 939, 1077, 1451, 921, 1141, 1283, 1093, 948, 1221, 1016, 943, 1298, 1277, 955, 1041, 1347, 930, 1009, 1381, 989, 989, 1172, 1166, 916, 1135, 1368, 953, 1013, 1460, 995, 1014, 1170, 943, 933, 1322, 1063, 1027, 1078, 1431, 930, 959, 1231, 966, 987, 1091, 1397, 955, 988, 1153, 1192, 1005, 908, 1146, 1376, 930, 1022, 1163, 1073, 914, 1235, 1354, 1021, 964, 1195, 1042, 954, 1221, 1326, 1011, 950, 1227, 1308, 929, 1076, 1173, 1093, 926, 1149, 1464, 1018, 1035, 1136, 1394, 962, 987, 1296, 1025, 1027, 1072, 1420, 1021, 1008, 1336, 1260, 943, 929, 1236, 1156, 922, 1057, 1118, 1378, 928, 936, 1221, 1199, 1030, 922, 1306, 1218, 969, 981, 1220, 1420, 919, 976, 1092, 1321, 934, 913, 1299, 1338, 1092, 910, 1300, 1151, 1021, 1017, 1331, 1126, 902, 1113, 1223, 1311, 952, 966, 1343, 1225, 957, 925, 1292, 1330, 1011, 903, 1155, 1419, 921, 1084, 1117, 1402, 997, 1145, 1265, 1504, 1083, 1013, 1205, 1236, 1113, 916, 1094, 1353, 950, 1060, 1066, 1386, 994, 948, 1267, 1298, 1157, 942, 1042, 1378, 1103, 1114, 1031, 1438, 952, 928, 1293, 1424, 1017, 906, 1355, 1216, 1059, 936, 1368, 982, 946, 1179, 1353, 1010, 932, 1097, 1312, 1171, 1051, 917, 1249, 1478, 943, 1059, 1124, 1330, 1017, 950],
      "WindowCenter": [426.0, 424.0, 425.0, 420.0, 421.0, 423.0, 424.0, 422.0, 423.0, 426.0, 424.0, 421.0, 422.0, 422.0, 424.0, 420.0, 422.0, 424.0, 423.0, 423.0, 424.0, 427.0, 423.0, 422.0, 424.0, 424.0, 421.0, 423.0, 426.0, 423.0, 423.0, 426.0, 423.0, 422.0, 423.0, 425.0, 422.0, 422.0, 425.0, 423.0, 423.0, 425.0, 425.0, 421.0, 424.0, 426.0, 422.0, 424.0, 427.0, 422.0, 423.0, 426.0, 422.0, 422.0, 424.0, 422.0, 421.0, 426.0, 423.0, 423.0, 424.0, 425.0, 422.0, 424.0, 426.0, 421.0, 423.0, 424.0, 422.0, 421.0, 424.0, 423.0, 421.0, 423.0, 426.0, 422.0, 424.0, 425.0, 423.0, 421.0, 424.0, 422.0, 421.0, 424.0, 425.0, 421.0, 422.0, 425.0, 421.0, 421.0, 425.0, 420.0, 421.0, 423.0, 423.0, 420.0, 423.0, 425.0, 421.0, 422.0, 426.0, 421.0, 422.0, 423.0, 421.0, 421.0, 424.0, 422.0, 422.0, 422.0, 425.0, 420.0, 421.0, 424.0, 421.0, 421.0, 422.0, 425.0, 421.0, 421.0, 422.0, 423.0, 420.0, 420.0, 423.0, 425.0, 421.0, 422.0, 424.0, 423.0, 421.0, 424.0, 425.0, 422.0, 422.0, 424.0, 422.0, 422.0, 424.0, 424.0, 421.0, 421.0, 423.0, 423.0, 420.0, 422.0, 423.0, 422.0, 420.0, 423.0, 425.0, 421.0, 421.0, 422.0, 425.0, 421.0, 421.0, 424.0, 421.0, 421.0, 422.0, 425.0, 421.0, 420.0, 423.0, 422.0, 419.0, 420.0, 422.0, 422.0, 419.0, 421.0, 422.0, 424.0, 420.0, 420.0, 424.0, 423.0, 421.0, 420.0, 424.0, 423.0, 421.0, 421.0, 423.0, 424.0, 419.0, 420.0, 422.0, 424.0, 421.0, 420.0, 424.0, 424.0, 422.0, 419.0, 424.0, 423.0, 421.0, 422.0, 424.0, 423.0, 420.0, 422.0, 423.0, 424.0, 420.0, 420.0, 423.0, 423.0, 420.0, 420.0, 424.0, 424.0, 421.0, 419.0, 422.0, 425.0, 420.0, 422.0, 423.0, 425.0, 421.0, 422.0, 423.0, 425.0, 421.0, 421.0, 422.0, 423.0, 422.0, 420.0, 422.0, 424.0, 420.0, 421.0, 421.0, 424.0, 421.0, 420.0, 423.0, 423.0, 422.0, 419.0, 421.0, 424.0, 421.0, 422.0, 421.0, 425.0, 420.0, 419.0, 423.0, 424.0, 420.0, 419.0, 424.0, 422.0, 421.0, 420.0, 424.0, 421.0, 420.0, 422.0, 424.0, 421.0, 420.0, 421.0, 424.0, 423.0, 422.0, 420.0, 423.0, 425.0, 420.0, 421.0, 422.0, 424.0, 421.0, 420.0],
      "WindowWidth": [901.0, 897.0, 898.0, 890.0, 892.0, 894.0, 895.0, 893.0, 895.0, 898.0, 896.0, 891.0, 892.0, 893.0, 894.0, 890.0, 894.0, 896.0, 894.0, 895.0, 897.0, 900.0, 895.0, 893.0, 895.0, 896.0, 892.0, 895.0, 900.0, 896.0, 894.0, 898.0, 895.0, 893.0, 894.0, 897.0, 893.0, 894.0, 897.0, 895.0, 894.0, 897.0, 898.0, 892.0, 896.0, 899.0, 894.0, 896.0, 901.0, 894.0, 894.0, 899.0, 893.0, 892.0, 896.0, 893.0, 892.0, 898.0, 895.0, 894.0, 897.0, 897.0, 894.0, 896.0, 899.0, 892.0, 894.0, 896.0, 893.0, 892.0, 896.0, 895.0, 892.0, 895.0, 900.0, 894.0, 896.0, 897.0, 894.0, 891.0, 895.0, 893.0, 892.0, 897.0, 897.0, 892.0, 893.0, 897.0, 891.0, 892.0, 897.0, 890.0, 891.0, 893.0, 894.0, 890.0, 894.0, 897.0, 892.0, 893.0, 898.0, 892.0, 893.0, 895.0, 891.0, 891.0, 896.0, 893.0, 893.0, 893.0, 896.0, 890.0, 891.0, 895.0, 892.0, 892.0, 893.0, 897.0, 891.0, 891.0, 893.0, 893.0, 890.0, 890.0, 894.0, 897.0, 891.0, 893.0, 896.0, 895.0, 892.0, 896.0, 897.0, 893.0, 893.0, 896.0, 893.0, 893.0, 895.0, 896.0, 892.0, 891.0, 893.0, 894.0, 890.0, 893.0, 894.0, 893.0, 890.0, 894.0, 898.0, 892.0, 892.0, 893.0, 896.0, 891.0, 892.0, 895.0, 892.0, 892.0, 893.0, 897.0, 891.0, 890.0, 894.0, 892.0, 889.0, 889.0, 893.0, 892.0, 888.0, 891.0, 892.0, 895.0, 890.0, 891.0, 895.0, 894.0, 892.0, 890.0, 895.0, 895.0, 891.0, 891.0, 894.0, 895.0, 888.0, 890.0, 892.0, 896.0, 891.0, 891.0, 896.0, 896.0, 892.0, 889.0, 895.0, 894.0, 892.0, 893.0, 896.0, 894.0, 890.0, 892.0, 893.0, 895.0, 890.0, 890.0, 894.0, 893.0, 890.0, 890.0, 896.0, 895.0, 891.0, 889.0, 893.0, 896.0, 890.0, 893.0, 895.0, 898.0, 892.0, 893.0, 895.0, 897.0, 892.0, 890.0, 893.0, 893.0, 892.0, 889.0, 893.0, 896.0, 890.0, 892.0, 892.0, 896.0, 891.0, 890.0, 895.0, 894.0, 892.0, 889.0, 891.0, 896.0, 892.0, 892.0, 890.0, 896.0, 890.0, 889.0, 894.0, 896.0, 890.0, 888.0, 895.0, 893.0, 891.0, 890.0, 896.0, 891.0, 891.0, 893.0, 895.0, 890.0, 889.0, 892.0, 895.0, 893.0, 892.0, 890.0, 894.0, 896.0, 889.0, 892.0, 893.0, 895.0, 891.0, 891.0]
    },
    "slices": {}
  }
}