{
  "AcquisitionMatrixPE": 96,
  "AcquisitionNumber": 1,
  "AcquisitionTime": "19:10:32.797500",
  "BandwidthPerPixelPhaseEncode": 18.939,
  "BaseResolution": 96,
  "BodyPartExamined": "BRAIN",
  "ConsistencyInfo": "N4_VE11C_LATEST_20160120",
  "ConversionSoftware": "dcm2niix",
  "ConversionSoftwareVersion": "v1.0.20170923 (OpenJPEG build) GCC6.3.0",
  "DerivedVendorReportedEchoSpacing": 0.000550011,
  "DeviceSerialNumber": "66112",
  "DwellTime": 2.3e-06,
  "EchoTime": 0.033,
  "EchoTrainLength": 96,
  "EffectiveEchoSpacing": 0.000550011,
  "FlipAngle": 64,
  "ImageType": [
    "ORIGINAL",
    "PRIMARY",
    "FMRI",
    "NONE",
    "ND",
    "NORM",
    "MOSAIC"
],
  "InstitutionAddress": "Maynard_3_Hanover_NH_US_03755",
  "InstitutionName": "Dartmouth_College_-_PBS",
  "MagneticFieldStrength": 3,
  "Manufacturer": "Siemens",
  "ManufacturersModelName": "Prisma",
  "Modality": "MR",
  "MultibandAccelerationFactor": 4,
  "PartialFourier": 1,
  "PercentPhaseFOV": 100,
  "PhaseEncodingDirection": "j-",
  "PhaseEncodingSteps": 96,
  "PhaseResolution": 1,
  "ProcedureStepDescription": "Gobbini_Matteo_1017_famface-angles",
  "ProtocolName": "func_run-11_task-str1back",
  "PulseSequenceDetails": "%SiemensSeq%_ep2d_bold",
  "ReceiveCoilActiveElements": "HEA;HEP",
  "ReceiveCoilName": "Head_32",
  "ReconMatrixPE": 96,
  "RepetitionTime": 1.25,
  "ScanOptions": "FS",
  "ScanningSequence": "EP",
  "SequenceName": "_epfid2d1_96",
  "SequenceVariant": "SK",
  "SeriesDescription": "func_run-11_task-str1back",
  "SliceTiming": [0.8775, 0, 0.615, 0.0875, 0.7025, 0.175, 0.79, 0.35, 0.965, 0.44, 1.055, 0.5275, 1.1425, 0.2625, 0.8775, 0, 0.615, 0.0875, 0.7025, 0.175, 0.79, 0.35, 0.965, 0.44, 1.055, 0.5275, 1.1425, 0.2625, 0.8775, 0, 0.615, 0.0875, 0.7025, 0.175, 0.79, 0.35, 0.965, 0.44, 1.055, 0.5275, 1.1425, 0.2625, 0.8775, 0, 0.615, 0.0875, 0.7025, 0.175, 0.79, 0.35, 0.965, 0.44, 1.055, 0.5275, 1.1425, 0.2625],
  "SoftwareVersions": "syngo_MR_E11",
  "StationName": "AWP66112",
  "TaskName": "str1back",
  "TotalReadoutTime": 0.0522511,
  "dcmmeta_affine": [
    [-2.498976230621338, 0.035767022520303726, -0.06195845082402229, 122.24299621582031],
    [0.036482613533735275, 2.4995710849761963, -0.02851857990026474, -111.58646392822266],
    [-0.06153981015086174, 0.029411062598228455, 2.4990694522857666, -66.34745025634766],
    [0.0, 0.0, 0.0, 1.0]
],
  "dcmmeta_reorient_transform": [
    [0.0, -1.0, 0.0, 95.0],
    [1.0, 0.0, 0.0, 0.0],
    [0.0, 0.0, 1.0, 0.0],
    [0.0, 0.0, 0.0, 1.0]
],
  "dcmmeta_shape": [96, 96, 56, 280],
  "dcmmeta_slice_dim": 2,
  "dcmmeta_version": 0.6,
  "global": {
    "const": {
      "AccessionNumber": "A000604",
      "AcquisitionMatrix": [96, 0, 0, 96],
      "AngioFlag": "N",
      "BitsAllocated": 16,
      "BitsStored": 12,
      "BodyPartExamined": "BRAIN",
      "Columns": 768,
      "EchoNumbers": 1,
      "EchoTime": 33.0,
      "EchoTrainLength": 96,
      "FlipAngle": 64.0,
      "HighBit": 11,
      "ImageOrientationPatient": [0.99959046579317, -0.0145930451392, -0.0246159242963, 0.01430680852559, 0.99982844205438, -0.0117644247169],
      "ImagePositionPatient": [-977.3145707926, -953.47052611688, -32.993909441968],
      "ImageType": [
        "ORIGINAL",
        "PRIMARY",
        "FMRI",
        "NONE",
        "ND",
        "NORM",
        "MOSAIC"
],
      "ImagedNucleus": "1H",
      "ImagingFrequency": 123.252369,
      "InPlanePhaseEncodingDirection": "COL",
      "MRAcquisitionType": "2D",
      "MagneticFieldStrength": 3.0,
      "Manufacturer": "SIEMENS",
      "ManufacturerModelName": "Prisma",
      "Modality": "MR",
      "NumberOfAverages": 1.0,
      "NumberOfPhaseEncodingSteps": 96,
      "PercentPhaseFieldOfView": 100.0,
      "PercentSampling": 100.0,
      "PerformedProcedureStepStartTime": "175429.251000",
      "PhotometricInterpretation": "MONOCHROME2",
      "PixelBandwidth": 2265.0,
      "PixelRepresentation": 0,
      "PixelSpacing": [2.5, 2.5],
      "PositionReferenceIndicator": "",
      "ProtocolName": "func_run-11_task-str1back",
      "RepetitionTime": 1250.0,
      "Rows": 768,
      "SAR": 0.04876079892454,
      "SamplesPerPixel": 1,
      "ScanOptions": "FS",
      "ScanningSequence": "EP",
      "SequenceName": "*epfid2d1_96",
      "SequenceVariant": "SK",
      "SeriesDescription": "func_run-11_task-str1back",
      "SeriesNumber": 78,
      "SeriesTime": "191034.511000",
      "SliceLocation": -68.079435812736,
      "SliceThickness": 2.5,
      "SmallestImagePixelValue": 0,
      "SoftwareVersions": "syngo MR E11",
      "SpacingBetweenSlices": 2.5000000961071,
      "SpecificCharacterSet": "ISO_IR 100",
      "StudyID": "1",
      "StudyTime": "175429.196000",
      "TransmitCoilName": "Body",
      "VariableFlipAngleFlag": "N",
      "WindowCenterWidthExplanation": "Algo1",
      "dBdt": 0.0},
    "slices": {}
  },
  "time": {
    "samples": {
      "AcquisitionNumber": [1, 2, 3, 4, 5, 6, 7, 8, 9, 10, 11, 12, 13, 14, 15, 16, 17, 18, 19, 20, 21, 22, 23, 24, 25, 26, 27, 28, 29, 30, 31, 32, 33, 34, 35, 36, 37, 38, 39, 40, 41, 42, 43, 44, 45, 46, 47, 48, 49, 50, 51, 52, 53, 54, 55, 56, 57, 58, 59, 60, 61, 62, 63, 64, 65, 66, 67, 68, 69, 70, 71, 72, 73, 74, 75, 76, 77, 78, 79, 80, 81, 82, 83, 84, 85, 86, 87, 88, 89, 90, 91, 92, 93, 94, 95, 96, 97, 98, 99, 100, 101, 102, 103, 104, 105, 106, 107, 108, 109, 110, 111, 112, 113, 114, 115, 116, 117, 118, 119, 120, 121, 122, 123, 124, 125, 126, 127, 128, 129, 130, 131, 132, 133, 134, 135, 136, 137, 138, 139, 140, 141, 142, 143, 144, 145, 146, 147, 148, 149, 150, 151, 152, 153, 154, 155, 156, 157, 158, 159, 160, 161, 162, 163, 164, 165, 166, 167, 168, 169, 170, 171, 172, 173, 174, 175, 176, 177, 178, 179, 180, 181, 182, 183, 184, 185, 186, 187, 188, 189, 190, 191, 192, 193, 194, 195, 196, 197, 198, 199, 200, 201, 202, 203, 204, 205, 206, 207, 208, 209, 210, 211, 212, 213, 214, 215, 216, 217, 218, 219, 220, 221, 222, 223, 224, 225, 226, 227, 228, 229, 230, 231, 232, 233, 234, 235, 236, 237, 238, 239, 240, 241, 242, 243, 244, 245, 246, 247, 248, 249, 250, 251, 252, 253, 254, 255, 256, 257, 258, 259, 260, 261, 262, 263, 264, 265, 266, 267, 268, 269, 270, 271, 272, 273, 274, 275, 276, 277, 278, 279, 280],
      "AcquisitionTime": ["191032.797500", "191034.047500", "191035.297500", "191036.547500", "191037.797500", "191039.047500", "191040.297500", "191041.547500", "191042.797500", "191044.047500", "191045.297500", "191046.547500", "191047.797500", "191049.047500", "191050.297500", "191051.547500", "191052.797500", "191054.047500", "191055.297500", "191056.547500", "191057.797500", "191059.047500", "191100.297500", "191101.547500", "191102.797500", "191104.047500", "191105.297500", "191106.547500", "191107.797500", "191109.047500", "191110.297500", "191111.547500", "191112.797500", "191114.047500", "191115.297500", "191116.547500", "191117.797500", "191119.047500", "191120.297500", "191121.547500", "191122.797500", "191124.047500", "191125.297500", "191126.547500", "191127.797500", "191129.047500", "191130.297500", "191131.547500", "191132.797500", "191134.047500", "191135.297500", "191136.547500", "191137.797500", "191139.047500", "191140.297500", "191141.547500", "191142.797500", "191144.047500", "191145.297500", "191146.547500", "191147.797500", "191149.047500", "191150.297500", "191151.547500", "191152.797500", "191154.047500", "191155.297500", "191156.547500", "191157.797500", "191159.047500", "191200.297500", "191201.547500", "191202.797500", "191204.047500", "191205.297500", "191206.547500", "191207.797500", "191209.047500", "191210.297500", "191211.547500", "191212.797500", "191214.047500", "191215.297500", "191216.547500", "191217.797500", "191219.047500", "191220.297500", "191221.547500", "191222.797500", "191224.047500", "191225.297500", "191226.547500", "191227.797500", "191229.047500", "191230.297500", "191231.547500", "191232.797500", "191234.047500", "191235.297500", "191236.547500", "191237.797500", "191239.047500", "191240.297500", "191241.547500", "191242.797500", "191244.047500", "191245.297500", "191246.547500", "191247.797500", "191249.047500", "191250.297500", "191251.547500", "191252.797500", "191254.047500", "191255.297500", "191256.547500", "191257.797500", "191259.047500", "191300.297500", "191301.547500", "191302.797500", "191304.047500", "191305.297500", "191306.547500", "191307.797500", "191309.047500", "191310.297500", "191311.547500", "191312.797500", "191314.047500", "191315.297500", "191316.547500", "191317.797500", "191319.047500", "191320.297500", "191321.547500", "191322.797500", "191324.047500", "191325.297500", "191326.547500", "191327.797500", "191329.047500", "191330.297500", "191331.547500", "191332.797500", "191334.047500", "191335.297500", "191336.547500", "191337.797500", "191339.047500", "191340.297500", "191341.547500", "191342.797500", "191344.047500", "191345.297500", "191346.547500", "191347.797500", "191349.047500", "191350.297500", "191351.547500", "191352.797500", "191354.047500", "191355.297500", "191356.547500", "191357.797500", "191359.047500", "191400.297500", "191401.547500", "191402.797500", "191404.047500", "191405.297500", "191406.547500", "191407.797500", "191409.047500", "191410.297500", "191411.547500", "191412.797500", "191414.047500", "191415.297500", "191416.547500", "191417.797500", "191419.047500", "191420.297500", "191421.547500", "191422.797500", "191424.047500", "191425.297500", "191426.547500", "191427.797500", "191429.047500", "191430.297500", "191431.547500", "191432.797500", "191434.047500", "191435.297500", "191436.547500", "191437.797500", "191439.047500", "191440.297500", "191441.547500", "191442.797500", "191444.047500", "191445.297500", "191446.547500", "191447.797500", "191449.047500", "191450.297500", "191451.547500", "191452.797500", "191454.047500", "191455.297500", "191456.547500", "191457.797500", "191459.047500", "191500.297500", "191501.547500", "191502.797500", "191504.047500", "191505.297500", "191506.547500", "191507.797500", "191509.047500", "191510.297500", "191511.547500", "191512.797500", "191514.047500", "191515.297500", "191516.547500", "191517.797500", "191519.047500", "191520.297500", "191521.547500", "191522.797500", "191524.047500", "191525.297500", "191526.547500", "191527.797500", "191529.047500", "191530.297500", "191531.547500", "191532.797500", "191534.047500", "191535.297500", "191536.547500", "191537.797500", "191539.047500", "191540.297500", "191541.547500", "191542.797500", "191544.047500", "191545.297500", "191546.547500", "191547.797500", "191549.047500", "191550.297500", "191551.547500", "191552.797500", "191554.047500", "191555.297500", "191556.547500", "191557.797500", "191559.047500", "191600.297500", "191601.547500", "191602.797500", "191604.047500", "191605.297500", "191606.547500", "191607.797500", "191609.047500", "191610.297500", "191611.547500", "191612.797500", "191614.047500", "191615.297500", "191616.547500", "191617.797500", "191619.047500", "191620.297500", "191621.547500"],
      "ContentTime": ["191034.515000", "191035.593000", "191036.870000", "191038.107000", "191039.355000", "191040.620000", "191041.878000", "191043.116000", "191044.344000", "191045.624000", "191046.863000", "191048.113000", "191049.376000", "191050.612000", "191051.850000", "191053.161000", "191054.361000", "191055.597000", "191056.871000", "191058.062000", "191059.328000", "191100.617000", "191101.842000", "191103.107000", "191104.319000", "191105.596000", "191106.852000", "191108.114000", "191109.349000", "191110.609000", "191111.925000", "191113.119000", "191114.366000", "191115.586000", "191116.842000", "191118.140000", "191119.392000", "191120.601000", "191121.844000", "191123.102000", "191124.379000", "191125.578000", "191126.860000", "191128.122000", "191129.347000", "191130.595000", "191131.832000", "191133.098000", "191134.370000", "191135.574000", "191136.828000", "191138.101000", "191139.330000", "191140.601000", "191141.844000", "191143.079000", "191144.372000", "191145.559000", "191146.875000", "191148.084000", "191149.349000", "191150.604000", "191151.834000", "191153.115000", "191154.388000", "191155.628000", "191156.876000", "191158.133000", "191159.373000", "191200.580000", "191201.940000", "191203.121000", "191204.358000", "191205.630000", "191206.845000", "191208.078000", "191209.370000", "191210.622000", "191211.840000", "191213.120000", "191214.350000", "191215.618000", "191216.833000", "191218.086000", "191219.353000", "191220.615000", "191221.863000", "191223.053000", "191224.374000", "191225.582000", "191226.942000", "191228.074000", "191229.367000", "191230.583000", "191231.895000", "191233.140000", "191234.331000", "191235.562000", "191236.837000", "191238.139000", "191239.409000", "191240.639000", "191241.879000", "191243.122000", "191244.440000", "191245.646000", "191246.864000", "191248.125000", "191249.361000", "191250.591000", "191251.855000", "191253.159000", "191254.377000", "191255.610000", "191256.839000", "191258.106000", "191259.379000", "191300.616000", "191301.865000", "191303.114000", "191304.366000", "191305.580000", "191306.861000", "191308.131000", "191309.375000", "191310.608000", "191311.851000", "191313.107000", "191314.358000", "191315.633000", "191316.844000", "191318.083000", "191319.350000", "191320.608000", "191321.869000", "191323.120000", "191324.323000", "191325.594000", "191326.891000", "191328.099000", "191329.361000", "191330.630000", "191331.895000", "191333.174000", "191334.372000", "191335.695000", "191336.934000", "191338.104000", "191339.378000", "191340.646000", "191341.830000", "191343.106000", "191344.366000", "191345.599000", "191346.862000", "191348.097000", "191349.358000", "191350.591000", "191351.867000", "191353.122000", "191354.375000", "191355.606000", "191356.834000", "191358.139000", "191359.374000", "191400.626000", "191401.849000", "191403.111000", "191404.374000", "191405.623000", "191406.850000", "191408.111000", "191409.373000", "191410.568000", "191411.863000", "191413.111000", "191414.342000", "191415.605000", "191416.849000", "191418.084000", "191419.327000", "191420.621000", "191421.882000", "191423.098000", "191424.385000", "191425.609000", "191426.902000", "191428.119000", "191429.356000", "191430.593000", "191431.868000", "191433.097000", "191434.369000", "191435.610000", "191436.898000", "191438.085000", "191439.355000", "191440.628000", "191441.869000", "191443.077000", "191444.335000", "191445.601000", "191446.870000", "191448.111000", "191449.348000", "191450.579000", "191451.869000", "191453.123000", "191454.409000", "191455.631000", "191456.866000", "191458.117000", "191459.333000", "191500.647000", "191501.846000", "191503.100000", "191504.400000", "191505.633000", "191506.873000", "191508.116000", "191509.358000", "191510.638000", "191511.906000", "191513.120000", "191514.357000", "191515.620000", "191516.882000", "191518.116000", "191519.370000", "191520.598000", "191521.894000", "191523.094000", "191524.372000", "191525.555000", "191526.830000", "191528.137000", "191529.327000", "191530.629000", "191531.893000", "191533.112000", "191534.430000", "191535.626000", "191536.888000", "191538.117000", "191539.364000", "191540.617000", "191541.845000", "191543.100000", "191544.338000", "191545.611000", "191546.870000", "191548.115000", "191549.356000", "191550.661000", "191551.875000", "191553.109000", "191554.382000", "191555.623000", "191556.862000", "191558.102000", "191559.373000", "191600.640000", "191601.868000", "191603.111000", "191604.364000", "191605.622000", "191606.843000", "191608.115000", "191609.363000", "191610.620000", "191611.872000", "191613.127000", "191614.335000", "191615.589000", "191616.853000", "191618.126000", "191619.373000", "191620.597000", "191621.838000", "191623.146000"],
      "InstanceCreationTime": ["191034.515000", "191035.593000", "191036.870000", "191038.107000", "191039.355000", "191040.620000", "191041.878000", "191043.116000", "191044.344000", "191045.624000", "191046.863000", "191048.113000", "191049.376000", "191050.612000", "191051.850000", "191053.161000", "191054.361000", "191055.597000", "191056.871000", "191058.062000", "191059.328000", "191100.617000", "191101.842000", "191103.107000", "191104.319000", "191105.596000", "191106.852000", "191108.114000", "191109.349000", "191110.609000", "191111.925000", "191113.119000", "191114.366000", "191115.586000", "191116.842000", "191118.140000", "191119.392000", "191120.601000", "191121.844000", "191123.102000", "191124.379000", "191125.578000", "191126.860000", "191128.122000", "191129.347000", "191130.595000", "191131.832000", "191133.098000", "191134.370000", "191135.574000", "191136.828000", "191138.101000", "191139.330000", "191140.601000", "191141.844000", "191143.079000", "191144.372000", "191145.559000", "191146.875000", "191148.084000", "191149.349000", "191150.604000", "191151.834000", "191153.115000", "191154.388000", "191155.628000", "191156.876000", "191158.133000", "191159.373000", "191200.580000", "191201.940000", "191203.121000", "191204.358000", "191205.630000", "191206.845000", "191208.078000", "191209.370000", "191210.622000", "191211.840000", "191213.120000", "191214.350000", "191215.618000", "191216.833000", "191218.086000", "191219.353000", "191220.615000", "191221.863000", "191223.053000", "191224.374000", "191225.582000", "191226.942000", "191228.074000", "191229.367000", "191230.583000", "191231.895000", "191233.140000", "191234.331000", "191235.562000", "191236.837000", "191238.139000", "191239.409000", "191240.639000", "191241.879000", "191243.122000", "191244.440000", "191245.646000", "191246.864000", "191248.125000", "191249.361000", "191250.591000", "191251.855000", "191253.159000", "191254.377000", "191255.610000", "191256.839000", "191258.106000", "191259.379000", "191300.616000", "191301.865000", "191303.114000", "191304.366000", "191305.580000", "191306.861000", "191308.131000", "191309.375000", "191310.608000", "191311.851000", "191313.107000", "191314.358000", "191315.633000", "191316.844000", "191318.083000", "191319.350000", "191320.608000", "191321.869000", "191323.120000", "191324.323000", "191325.594000", "191326.891000", "191328.099000", "191329.361000", "191330.630000", "191331.895000", "191333.174000", "191334.372000", "191335.695000", "191336.934000", "191338.104000", "191339.378000", "191340.646000", "191341.830000", "191343.106000", "191344.366000", "191345.599000", "191346.862000", "191348.097000", "191349.358000", "191350.591000", "191351.867000", "191353.122000", "191354.375000", "191355.606000", "191356.834000", "191358.139000", "191359.374000", "191400.626000", "191401.849000", "191403.111000", "191404.374000", "191405.623000", "191406.850000", "191408.111000", "191409.373000", "191410.568000", "191411.863000", "191413.111000", "191414.342000", "191415.605000", "191416.849000", "191418.084000", "191419.327000", "191420.621000", "191421.882000", "191423.098000", "191424.385000", "191425.609000", "191426.902000", "191428.119000", "191429.356000", "191430.593000", "191431.868000", "191433.097000", "191434.369000", "191435.610000", "191436.898000", "191438.085000", "191439.355000", "191440.628000", "191441.869000", "191443.077000", "191444.335000", "191445.601000", "191446.870000", "191448.111000", "191449.348000", "191450.579000", "191451.869000", "191453.123000", "191454.409000", "191455.631000", "191456.866000", "191458.117000", "191459.333000", "191500.647000", "191501.846000", "191503.100000", "191504.400000", "191505.633000", "191506.873000", "191508.116000", "191509.358000", "191510.638000", "191511.906000", "191513.120000", "191514.357000", "191515.620000", "191516.882000", "191518.116000", "191519.370000", "191520.598000", "191521.894000", "191523.094000", "191524.372000", "191525.555000", "191526.830000", "191528.137000", "191529.327000", "191530.629000", "191531.893000", "191533.112000", "191534.430000", "191535.626000", "191536.888000", "191538.117000", "191539.364000", "191540.617000", "191541.845000", "191543.100000", "191544.338000", "191545.611000", "191546.870000", "191548.115000", "191549.356000", "191550.661000", "191551.875000", "191553.109000", "191554.382000", "191555.623000", "191556.862000", "191558.102000", "191559.373000", "191600.640000", "191601.868000", "191603.111000", "191604.364000", "191605.622000", "191606.843000", "191608.115000", "191609.363000", "191610.620000", "191611.872000", "191613.127000", "191614.335000", "191615.589000", "191616.853000", "191618.126000", "191619.373000", "191620.597000", "191621.838000", "191623.146000"],
      "InstanceNumber": [1, 2, 3, 4, 5, 6, 7, 8, 9, 10, 11, 12, 13, 14, 15, 16, 17, 18, 19, 20, 21, 22, 23, 24, 25, 26, 27, 28, 29, 30, 31, 32, 33, 34, 35, 36, 37, 38, 39, 40, 41, 42, 43, 44, 45, 46, 47, 48, 49, 50, 51, 52, 53, 54, 55, 56, 57, 58, 59, 60, 61, 62, 63, 64, 65, 66, 67, 68, 69, 70, 71, 72, 73, 74, 75, 76, 77, 78, 79, 80, 81, 82, 83, 84, 85, 86, 87, 88, 89, 90, 91, 92, 93, 94, 95, 96, 97, 98, 99, 100, 101, 102, 103, 104, 105, 106, 107, 108, 109, 110, 111, 112, 113, 114, 115, 116, 117, 118, 119, 120, 121, 122, 123, 124, 125, 126, 127, 128, 129, 130, 131, 132, 133, 134, 135, 136, 137, 138, 139, 140, 141, 142, 143, 144, 145, 146, 147, 148, 149, 150, 151, 152, 153, 154, 155, 156, 157, 158, 159, 160, 161, 162, 163, 164, 165, 166, 167, 168, 169, 170, 171, 172, 173, 174, 175, 176, 177, 178, 179, 180, 181, 182, 183, 184, 185, 186, 187, 188, 189, 190, 191, 192, 193, 194, 195, 196, 197, 198, 199, 200, 201, 202, 203, 204, 205, 206, 207, 208, 209, 210, 211, 212, 213, 214, 215, 216, 217, 218, 219, 220, 221, 222, 223, 224, 225, 226, 227, 228, 229, 230, 231, 232, 233, 234, 235, 236, 237, 238, 239, 240, 241, 242, 243, 244, 245, 246, 247, 248, 249, 250, 251, 252, 253, 254, 255, 256, 257, 258, 259, 260, 261, 262, 263, 264, 265, 266, 267, 268, 269, 270, 271, 272, 273, 274, 275, 276, 277, 278, 279, 280],
      "LargestImagePixelValue": [1043, 1269, 1292, 1186, 959, 977, 1113, 1289, 1199, 958, 919, 1088, 1198, 1180, 922, 934, 1262, 1187, 971, 1271, 1603, 1289, 992, 1188, 1651, 1215, 1077, 1053, 1421, 1238, 944, 952, 1382, 1530, 995, 957, 1361, 1556, 992, 992, 1339, 1638, 1201, 1081, 1078, 1350, 1177, 957, 1113, 1252, 1664, 1152, 1009, 963, 1241, 1579, 1069, 989, 1042, 1306, 1688, 1086, 1076, 1094, 1323, 1707, 1043, 958, 1089, 1251, 1502, 1374, 979, 965, 1200, 1207, 1192, 948, 1017, 1293, 1668, 1050, 1048, 1185, 1529, 1187, 942, 1102, 1317, 1637, 1140, 1049, 1002, 1370, 1496, 953, 1139, 1267, 1700, 1230, 933, 1212, 1144, 1248, 1181, 924, 1075, 1202, 1445, 1432, 996, 1089, 955, 1289, 1498, 936, 1011, 1149, 1394, 1260, 993, 1206, 1313, 1558, 1214, 940, 1124, 1222, 1423, 1187, 948, 957, 1589, 1391, 1201, 962, 959, 1127, 1462, 1464, 1079, 948, 1125, 1354, 1185, 941, 942, 1534, 1614, 1186, 972, 954, 1375, 1505, 1047, 943, 1209, 1504, 1437, 965, 962, 1177, 1225, 1185, 939, 1062, 1236, 1667, 1261, 984, 974, 989, 1401, 1369, 949, 955, 1191, 1364, 1513, 1109, 963, 1238, 1239, 1242, 940, 1055, 1260, 1559, 944, 979, 1479, 1617, 1064, 959, 1203, 1567, 1220, 960, 1091, 1308, 1660, 949, 949, 1236, 1470, 1489, 1051, 953, 1172, 1256, 1365, 1092, 951, 1140, 1382, 1537, 964, 964, 1267, 1409, 1447, 1047, 1138, 1296, 1668, 965, 952, 1335, 1401, 1382, 1020, 986, 1433, 1318, 1001, 952, 1257, 1537, 1222, 950, 964, 1278, 1463, 1146, 965, 963, 1598, 1534, 1012, 953, 1201, 1455, 1474, 950, 1171, 1276, 1731, 1014, 948, 1190, 1270, 1360, 944, 994, 1183, 1443, 1333, 966, 992, 953, 1277, 1329, 1116, 955, 1041, 1301, 1604, 1364, 975, 1092],
      "WindowCenter": [425.0, 425.0, 425.0, 424.0, 422.0, 422.0, 424.0, 425.0, 425.0, 423.0, 423.0, 425.0, 426.0, 426.0, 423.0, 424.0, 428.0, 427.0, 425.0, 428.0, 431.0, 428.0, 425.0, 426.0, 430.0, 426.0, 424.0, 424.0, 428.0, 426.0, 423.0, 423.0, 427.0, 428.0, 424.0, 423.0, 427.0, 428.0, 423.0, 423.0, 426.0, 428.0, 424.0, 423.0, 423.0, 426.0, 425.0, 423.0, 424.0, 425.0, 428.0, 425.0, 423.0, 423.0, 426.0, 429.0, 424.0, 423.0, 424.0, 426.0, 429.0, 424.0, 424.0, 424.0, 426.0, 428.0, 422.0, 422.0, 424.0, 425.0, 427.0, 426.0, 422.0, 422.0, 424.0, 425.0, 425.0, 423.0, 424.0, 426.0, 429.0, 424.0, 424.0, 425.0, 428.0, 425.0, 423.0, 424.0, 426.0, 429.0, 425.0, 424.0, 423.0, 427.0, 428.0, 423.0, 425.0, 426.0, 429.0, 425.0, 422.0, 424.0, 423.0, 424.0, 424.0, 422.0, 424.0, 425.0, 427.0, 426.0, 423.0, 424.0, 422.0, 426.0, 428.0, 422.0, 424.0, 425.0, 428.0, 426.0, 424.0, 425.0, 426.0, 428.0, 425.0, 422.0, 424.0, 424.0, 426.0, 425.0, 423.0, 423.0, 428.0, 427.0, 425.0, 423.0, 423.0, 424.0, 427.0, 427.0, 424.0, 422.0, 424.0, 427.0, 425.0, 423.0, 423.0, 428.0, 429.0, 425.0, 423.0, 423.0, 427.0, 428.0, 424.0, 423.0, 426.0, 428.0, 427.0, 422.0, 423.0, 425.0, 425.0, 425.0, 423.0, 424.0, 426.0, 429.0, 426.0, 423.0, 423.0, 423.0, 427.0, 427.0, 423.0, 423.0, 427.0, 428.0, 429.0, 424.0, 423.0, 425.0, 425.0, 426.0, 423.0, 424.0, 426.0, 429.0, 423.0, 424.0, 428.0, 429.0, 424.0, 423.0, 426.0, 428.0, 426.0, 423.0, 424.0, 426.0, 429.0, 422.0, 423.0, 426.0, 428.0, 428.0, 424.0, 423.0, 424.0, 426.0, 427.0, 425.0, 424.0, 425.0, 428.0, 429.0, 423.0, 424.0, 426.0, 428.0, 427.0, 424.0, 424.0, 426.0, 429.0, 422.0, 423.0, 426.0, 426.0, 426.0, 422.0, 422.0, 427.0, 426.0, 423.0, 423.0, 426.0, 428.0, 425.0, 422.0, 422.0, 426.0, 427.0, 425.0, 423.0, 423.0, 429.0, 428.0, 424.0, 423.0, 426.0, 428.0, 427.0, 422.0, 424.0, 425.0, 428.0, 422.0, 421.0, 424.0, 425.0, 425.0, 421.0, 422.0, 424.0, 426.0, 425.0, 421.0, 422.0, 422.0, 425.0, 426.0, 424.0, 423.0, 424.0, 426.0, 428.0, 426.0, 422.0, 423.0],
      "WindowWidth": [902.0, 900.0, 898.0, 897.0, 894.0, 895.0, 897.0, 899.0, 898.0, 895.0, 896.0, 899.0, 900.0, 900.0, 897.0, 898.0, 903.0, 903.0, 900.0, 904.0, 908.0, 904.0, 899.0, 900.0, 905.0, 900.0, 898.0, 897.0, 903.0, 901.0, 896.0, 896.0, 901.0, 903.0, 897.0, 896.0, 901.0, 903.0, 896.0, 896.0, 900.0, 903.0, 896.0, 895.0, 896.0, 899.0, 898.0, 895.0, 897.0, 899.0, 903.0, 898.0, 895.0, 895.0, 899.0, 904.0, 897.0, 896.0, 897.0, 900.0, 903.0, 896.0, 896.0, 896.0, 899.0, 903.0, 894.0, 893.0, 896.0, 898.0, 901.0, 900.0, 895.0, 894.0, 897.0, 897.0, 898.0, 895.0, 897.0, 900.0, 904.0, 897.0, 897.0, 899.0, 903.0, 899.0, 896.0, 898.0, 900.0, 904.0, 898.0, 897.0, 896.0, 901.0, 902.0, 895.0, 898.0, 899.0, 905.0, 899.0, 894.0, 897.0, 895.0, 897.0, 897.0, 894.0, 898.0, 899.0, 902.0, 900.0, 896.0, 896.0, 894.0, 899.0, 902.0, 895.0, 898.0, 899.0, 903.0, 901.0, 897.0, 899.0, 900.0, 903.0, 898.0, 894.0, 897.0, 897.0, 900.0, 898.0, 895.0, 896.0, 903.0, 901.0, 899.0, 895.0, 895.0, 897.0, 902.0, 901.0, 897.0, 894.0, 897.0, 901.0, 899.0, 897.0, 896.0, 904.0, 904.0, 898.0, 895.0, 895.0, 901.0, 903.0, 897.0, 896.0, 900.0, 903.0, 902.0, 895.0, 895.0, 898.0, 898.0, 899.0, 896.0, 898.0, 900.0, 905.0, 900.0, 895.0, 895.0, 895.0, 901.0, 900.0, 896.0, 896.0, 901.0, 903.0, 904.0, 898.0, 895.0, 899.0, 899.0, 899.0, 896.0, 898.0, 901.0, 904.0, 896.0, 898.0, 903.0, 904.0, 897.0, 895.0, 900.0, 903.0, 900.0, 895.0, 896.0, 899.0, 903.0, 895.0, 896.0, 901.0, 903.0, 903.0, 897.0, 895.0, 898.0, 899.0, 901.0, 899.0, 897.0, 899.0, 903.0, 904.0, 897.0, 897.0, 901.0, 902.0, 902.0, 896.0, 897.0, 899.0, 904.0, 895.0, 895.0, 900.0, 900.0, 900.0, 895.0, 894.0, 900.0, 900.0, 896.0, 895.0, 899.0, 902.0, 899.0, 894.0, 894.0, 899.0, 901.0, 898.0, 896.0, 896.0, 904.0, 903.0, 897.0, 896.0, 900.0, 902.0, 901.0, 894.0, 897.0, 898.0, 902.0, 893.0, 893.0, 897.0, 898.0, 899.0, 893.0, 894.0, 897.0, 899.0, 898.0, 893.0, 895.0, 894.0, 898.0, 899.0, 897.0, 896.0, 897.0, 901.0, 903.0, 900.0, 894.0, 896.0]
    },
    "slices": {}
  }
}