{
  "AcquisitionMatrixPE": 96,
  "AcquisitionNumber": 1,
  "AcquisitionTime": "18:37:14.795000",
  "BandwidthPerPixelPhaseEncode": 18.939,
  "BaseResolution": 96,
  "BodyPartExamined": "BRAIN",
  "ConsistencyInfo": "N4_VE11C_LATEST_20160120",
  "ConversionSoftware": "dcm2niix",
  "ConversionSoftwareVersion": "v1.0.20170923 (OpenJPEG build) GCC6.3.0",
  "DerivedVendorReportedEchoSpacing": 0.000550011,
  "DeviceSerialNumber": "66112",
  "DwellTime": 2.3e-06,
  "EchoTime": 0.033,
  "EchoTrainLength": 96,
  "EffectiveEchoSpacing": 0.000550011,
  "FlipAngle": 64,
  "ImageType": [
    "ORIGINAL",
    "PRIMARY",
    "FMRI",
    "NONE",
    "ND",
    "NORM",
    "MOSAIC"
],
  "InstitutionAddress": "Maynard_3_Hanover_NH_US_03755",
  "InstitutionName": "Dartmouth_College_-_PBS",
  "MagneticFieldStrength": 3,
  "Manufacturer": "Siemens",
  "ManufacturersModelName": "Prisma",
  "Modality": "MR",
  "MultibandAccelerationFactor": 4,
  "PartialFourier": 1,
  "PercentPhaseFOV": 100,
  "PhaseEncodingDirection": "j-",
  "PhaseEncodingSteps": 96,
  "PhaseResolution": 1,
  "ProcedureStepDescription": "Gobbini_Matteo_1017_famface-angles",
  "ProtocolName": "func_run-06_task-localizer",
  "PulseSequenceDetails": "%SiemensSeq%_ep2d_bold",
  "ReceiveCoilActiveElements": "HEA;HEP",
  "ReceiveCoilName": "Head_32",
  "ReconMatrixPE": 96,
  "RepetitionTime": 1.25,
  "ScanOptions": "FS",
  "ScanningSequence": "EP",
  "SequenceName": "_epfid2d1_96",
  "SequenceVariant": "SK",
  "SeriesDescription": "func_run-06_task-localizer",
  "SliceTiming": [0.8775, 0, 0.615, 0.0875, 0.7025, 0.175, 0.79, 0.3525, 0.9675, 0.44, 1.055, 0.5275, 1.1425, 0.2625, 0.8775, 0, 0.615, 0.0875, 0.7025, 0.175, 0.79, 0.3525, 0.9675, 0.44, 1.055, 0.5275, 1.1425, 0.2625, 0.8775, 0, 0.615, 0.0875, 0.7025, 0.175, 0.79, 0.3525, 0.9675, 0.44, 1.055, 0.5275, 1.1425, 0.2625, 0.8775, 0, 0.615, 0.0875, 0.7025, 0.175, 0.79, 0.3525, 0.9675, 0.44, 1.055, 0.5275, 1.1425, 0.2625],
  "SoftwareVersions": "syngo_MR_E11",
  "StationName": "AWP66112",
  "TaskName": "localizer",
  "TotalReadoutTime": 0.0522511,
  "dcmmeta_affine": [
    [-2.498976230621338, 0.035767022520303726, -0.06195845082402229, 122.24299621582031],
    [0.036482613533735275, 2.4995710849761963, -0.02851857990026474, -111.58646392822266],
    [-0.06153981015086174, 0.029411062598228455, 2.4990694522857666, -66.34745025634766],
    [0.0, 0.0, 0.0, 1.0]
],
  "dcmmeta_reorient_transform": [
    [0.0, -1.0, 0.0, 95.0],
    [1.0, 0.0, 0.0, 0.0],
    [0.0, 0.0, 1.0, 0.0],
    [0.0, 0.0, 0.0, 1.0]
],
  "dcmmeta_shape": [96, 96, 56, 325],
  "dcmmeta_slice_dim": 2,
  "dcmmeta_version": 0.6,
  "global": {
    "const": {
      "AccessionNumber": "A000604",
      "AcquisitionMatrix": [96, 0, 0, 96],
      "AngioFlag": "N",
      "BitsAllocated": 16,
      "BitsStored": 12,
      "BodyPartExamined": "BRAIN",
      "Columns": 768,
      "EchoNumbers": 1,
      "EchoTime": 33.0,
      "EchoTrainLength": 96,
      "FlipAngle": 64.0,
      "HighBit": 11,
      "ImageOrientationPatient": [0.99959046579317, -0.0145930451392, -0.0246159242963, 0.01430680852559, 0.99982844205438, -0.0117644247169],
      "ImagePositionPatient": [-977.3145707926, -953.47052611688, -32.993909441968],
      "ImageType": [
        "ORIGINAL",
        "PRIMARY",
        "FMRI",
        "NONE",
        "ND",
        "NORM",
        "MOSAIC"
],
      "ImagedNucleus": "1H",
      "ImagingFrequency": 123.252365,
      "InPlanePhaseEncodingDirection": "COL",
      "MRAcquisitionType": "2D",
      "MagneticFieldStrength": 3.0,
      "Manufacturer": "SIEMENS",
      "ManufacturerModelName": "Prisma",
      "Modality": "MR",
      "NumberOfAverages": 1.0,
      "NumberOfPhaseEncodingSteps": 96,
      "PercentPhaseFieldOfView": 100.0,
      "PercentSampling": 100.0,
      "PerformedProcedureStepStartTime": "175429.251000",
      "PhotometricInterpretation": "MONOCHROME2",
      "PixelBandwidth": 2265.0,
      "PixelRepresentation": 0,
      "PixelSpacing": [2.5, 2.5],
      "PositionReferenceIndicator": "",
      "ProtocolName": "func_run-06_task-localizer",
      "RepetitionTime": 1250.0,
      "Rows": 768,
      "SAR": 0.04882711148867,
      "SamplesPerPixel": 1,
      "ScanOptions": "FS",
      "ScanningSequence": "EP",
      "SequenceName": "*epfid2d1_96",
      "SequenceVariant": "SK",
      "SeriesDescription": "func_run-06_task-localizer",
      "SeriesNumber": 43,
      "SeriesTime": "183716.587000",
      "SliceLocation": -68.079435812736,
      "SliceThickness": 2.5,
      "SmallestImagePixelValue": 0,
      "SoftwareVersions": "syngo MR E11",
      "SpacingBetweenSlices": 2.5000000961071,
      "SpecificCharacterSet": "ISO_IR 100",
      "StudyID": "1",
      "StudyTime": "175429.196000",
      "TransmitCoilName": "Body",
      "VariableFlipAngleFlag": "N",
      "WindowCenterWidthExplanation": "Algo1",
      "dBdt": 0.0},
    "slices": {}
  },
  "time": {
    "samples": {
      "AcquisitionNumber": [1, 2, 3, 4, 5, 6, 7, 8, 9, 10, 11, 12, 13, 14, 15, 16, 17, 18, 19, 20, 21, 22, 23, 24, 25, 26, 27, 28, 29, 30, 31, 32, 33, 34, 35, 36, 37, 38, 39, 40, 41, 42, 43, 44, 45, 46, 47, 48, 49, 50, 51, 52, 53, 54, 55, 56, 57, 58, 59, 60, 61, 62, 63, 64, 65, 66, 67, 68, 69, 70, 71, 72, 73, 74, 75, 76, 77, 78, 79, 80, 81, 82, 83, 84, 85, 86, 87, 88, 89, 90, 91, 92, 93, 94, 95, 96, 97, 98, 99, 100, 101, 102, 103, 104, 105, 106, 107, 108, 109, 110, 111, 112, 113, 114, 115, 116, 117, 118, 119, 120, 121, 122, 123, 124, 125, 126, 127, 128, 129, 130, 131, 132, 133, 134, 135, 136, 137, 138, 139, 140, 141, 142, 143, 144, 145, 146, 147, 148, 149, 150, 151, 152, 153, 154, 155, 156, 157, 158, 159, 160, 161, 162, 163, 164, 165, 166, 167, 168, 169, 170, 171, 172, 173, 174, 175, 176, 177, 178, 179, 180, 181, 182, 183, 184, 185, 186, 187, 188, 189, 190, 191, 192, 193, 194, 195, 196, 197, 198, 199, 200, 201, 202, 203, 204, 205, 206, 207, 208, 209, 210, 211, 212, 213, 214, 215, 216, 217, 218, 219, 220, 221, 222, 223, 224, 225, 226, 227, 228, 229, 230, 231, 232, 233, 234, 235, 236, 237, 238, 239, 240, 241, 242, 243, 244, 245, 246, 247, 248, 249, 250, 251, 252, 253, 254, 255, 256, 257, 258, 259, 260, 261, 262, 263, 264, 265, 266, 267, 268, 269, 270, 271, 272, 273, 274, 275, 276, 277, 278, 279, 280, 281, 282, 283, 284, 285, 286, 287, 288, 289, 290, 291, 292, 293, 294, 295, 296, 297, 298, 299, 300, 301, 302, 303, 304, 305, 306, 307, 308, 309, 310, 311, 312, 313, 314, 315, 316, 317, 318, 319, 320, 321, 322, 323, 324, 325],
      "AcquisitionTime": ["183714.795000", "183716.045000", "183717.295000", "183718.545000", "183719.795000", "183721.045000", "183722.295000", "183723.545000", "183724.795000", "183726.045000", "183727.295000", "183728.545000", "183729.795000", "183731.045000", "183732.295000", "183733.545000", "183734.795000", "183736.045000", "183737.295000", "183738.545000", "183739.795000", "183741.045000", "183742.295000", "183743.545000", "183744.795000", "183746.045000", "183747.295000", "183748.545000", "183749.795000", "183751.045000", "183752.295000", "183753.545000", "183754.795000", "183756.045000", "183757.295000", "183758.545000", "183759.795000", "183801.045000", "183802.295000", "183803.545000", "183804.795000", "183806.045000", "183807.295000", "183808.545000", "183809.795000", "183811.045000", "183812.295000", "183813.545000", "183814.795000", "183816.045000", "183817.295000", "183818.545000", "183819.795000", "183821.045000", "183822.295000", "183823.545000", "183824.795000", "183826.045000", "183827.295000", "183828.545000", "183829.795000", "183831.045000", "183832.295000", "183833.545000", "183834.795000", "183836.045000", "183837.295000", "183838.545000", "183839.795000", "183841.045000", "183842.295000", "183843.545000", "183844.795000", "183846.045000", "183847.295000", "183848.545000", "183849.795000", "183851.045000", "183852.295000", "183853.545000", "183854.795000", "183856.045000", "183857.295000", "183858.545000", "183859.795000", "183901.045000", "183902.295000", "183903.545000", "183904.795000", "183906.045000", "183907.295000", "183908.545000", "183909.795000", "183911.045000", "183912.295000", "183913.545000", "183914.795000", "183916.045000", "183917.295000", "183918.545000", "183919.795000", "183921.045000", "183922.295000", "183923.545000", "183924.795000", "183926.045000", "183927.295000", "183928.545000", "183929.795000", "183931.045000", "183932.295000", "183933.545000", "183934.795000", "183936.045000", "183937.295000", "183938.545000", "183939.795000", "183941.045000", "183942.295000", "183943.545000", "183944.795000", "183946.045000", "183947.295000", "183948.545000", "183949.795000", "183951.045000", "183952.295000", "183953.545000", "183954.795000", "183956.045000", "183957.295000", "183958.545000", "183959.795000", "184001.045000", "184002.295000", "184003.545000", "184004.795000", "184006.045000", "184007.295000", "184008.545000", "184009.795000", "184011.045000", "184012.295000", "184013.545000", "184014.795000", "184016.045000", "184017.295000", "184018.545000", "184019.795000", "184021.045000", "184022.295000", "184023.545000", "184024.795000", "184026.045000", "184027.295000", "184028.545000", "184029.795000", "184031.045000", "184032.295000", "184033.545000", "184034.795000", "184036.045000", "184037.295000", "184038.545000", "184039.795000", "184041.045000", "184042.295000", "184043.545000", "184044.795000", "184046.045000", "184047.295000", "184048.545000", "184049.795000", "184051.045000", "184052.295000", "184053.545000", "184054.795000", "184056.045000", "184057.295000", "184058.545000", "184059.795000", "184101.045000", "184102.295000", "184103.545000", "184104.795000", "184106.045000", "184107.295000", "184108.545000", "184109.795000", "184111.045000", "184112.295000", "184113.545000", "184114.795000", "184116.045000", "184117.295000", "184118.545000", "184119.795000", "184121.045000", "184122.295000", "184123.545000", "184124.795000", "184126.045000", "184127.295000", "184128.545000", "184129.795000", "184131.045000", "184132.295000", "184133.545000", "184134.795000", "184136.045000", "184137.295000", "184138.545000", "184139.795000", "184141.045000", "184142.295000", "184143.545000", "184144.795000", "184146.045000", "184147.295000", "184148.545000", "184149.795000", "184151.045000", "184152.295000", "184153.545000", "184154.795000", "184156.045000", "184157.295000", "184158.545000", "184159.795000", "184201.045000", "184202.295000", "184203.545000", "184204.795000", "184206.045000", "184207.295000", "184208.545000", "184209.795000", "184211.045000", "184212.295000", "184213.545000", "184214.795000", "184216.045000", "184217.295000", "184218.545000", "184219.795000", "184221.045000", "184222.295000", "184223.545000", "184224.795000", "184226.045000", "184227.295000", "184228.545000", "184229.795000", "184231.045000", "184232.295000", "184233.545000", "184234.795000", "184236.045000", "184237.295000", "184238.545000", "184239.795000", "184241.045000", "184242.295000", "184243.545000", "184244.795000", "184246.045000", "184247.295000", "184248.545000", "184249.795000", "184251.045000", "184252.295000", "184253.545000", "184254.795000", "184256.045000", "184257.295000", "184258.545000", "184259.795000", "184301.045000", "184302.295000", "184303.545000", "184304.795000", "184306.045000", "184307.295000", "184308.545000", "184309.795000", "184311.045000", "184312.295000", "184313.545000", "184314.795000", "184316.045000", "184317.295000", "184318.545000", "184319.795000", "184321.045000", "184322.295000", "184323.545000", "184324.795000", "184326.045000", "184327.295000", "184328.545000", "184329.795000", "184331.045000", "184332.295000", "184333.545000", "184334.795000", "184336.045000", "184337.295000", "184338.545000", "184339.795000", "184341.045000", "184342.295000", "184343.545000", "184344.795000", "184346.045000", "184347.295000", "184348.545000", "184349.795000", "184351.045000", "184352.295000", "184353.545000", "184354.795000", "184356.045000", "184357.295000", "184358.545000", "184359.795000"],
      "ContentTime": ["183716.591000", "183717.653000", "183718.910000", "183720.158000", "183721.440000", "183722.666000", "183723.905000", "183725.173000", "183726.467000", "183727.609000", "183728.935000", "183730.153000", "183731.505000", "183732.701000", "183733.912000", "183735.134000", "183736.434000", "183737.684000", "183738.925000", "183740.200000", "183741.439000", "183742.679000", "183743.937000", "183745.160000", "183746.431000", "183747.689000", "183748.905000", "183750.181000", "183751.423000", "183752.680000", "183753.946000", "183755.167000", "183756.424000", "183757.664000", "183758.913000", "183800.166000", "183801.432000", "183802.675000", "183803.915000", "183805.156000", "183806.409000", "183807.659000", "183808.897000", "183810.167000", "183811.415000", "183812.660000", "183813.923000", "183815.169000", "183816.408000", "183817.684000", "183818.917000", "183820.150000", "183821.422000", "183822.671000", "183823.918000", "183825.154000", "183826.447000", "183827.640000", "183828.889000", "183830.175000", "183831.420000", "183832.684000", "183833.940000", "183835.151000", "183836.426000", "183837.639000", "183838.902000", "183840.195000", "183841.395000", "183842.674000", "183843.933000", "183845.176000", "183846.430000", "183847.642000", "183848.937000", "183850.173000", "183851.392000", "183852.680000", "183853.937000", "183855.170000", "183856.422000", "183857.701000", "183858.935000", "183900.169000", "183901.414000", "183902.678000", "183903.898000", "183905.168000", "183906.403000", "183907.680000", "183908.896000", "183910.161000", "183911.421000", "183912.708000", "183913.980000", "183915.224000", "183916.395000", "183917.667000", "183918.932000", "183920.198000", "183921.420000", "183922.652000", "183923.935000", "183925.190000", "183926.414000", "183927.694000", "183928.932000", "183930.175000", "183931.462000", "183932.682000", "183933.992000", "183935.177000", "183936.430000", "183937.685000", "183938.917000", "183940.169000", "183941.415000", "183942.711000", "183943.915000", "183945.159000", "183946.445000", "183947.722000", "183948.935000", "183950.191000", "183951.424000", "183952.668000", "183953.924000", "183955.225000", "183956.435000", "183957.698000", "183958.910000", "184000.167000", "184001.414000", "184002.678000", "184003.877000", "184005.177000", "184006.471000", "184007.685000", "184008.946000", "184010.159000", "184011.411000", "184012.684000", "184013.906000", "184015.160000", "184016.421000", "184017.661000", "184018.912000", "184020.206000", "184021.469000", "184022.677000", "184023.935000", "184025.170000", "184026.399000", "184027.689000", "184028.923000", "184030.246000", "184031.435000", "184032.683000", "184033.960000", "184035.178000", "184036.436000", "184037.686000", "184038.899000", "184040.189000", "184041.403000", "184042.663000", "184043.923000", "184045.138000", "184046.421000", "184047.711000", "184048.922000", "184050.194000", "184051.416000", "184052.659000", "184053.916000", "184055.178000", "184056.438000", "184057.686000", "184058.921000", "184100.126000", "184101.446000", "184102.674000", "184103.925000", "184105.170000", "184106.430000", "184107.657000", "184108.985000", "184110.166000", "184111.492000", "184112.663000", "184113.908000", "184115.181000", "184116.452000", "184117.656000", "184118.946000", "184120.178000", "184121.416000", "184122.663000", "184123.932000", "184125.188000", "184126.393000", "184127.690000", "184128.915000", "184130.182000", "184131.430000", "184132.694000", "184133.905000", "184135.174000", "184136.407000", "184137.697000", "184138.949000", "184140.187000", "184141.449000", "184142.692000", "184143.928000", "184145.156000", "184146.391000", "184147.658000", "184148.921000", "184150.221000", "184151.429000", "184152.701000", "184153.918000", "184155.222000", "184156.430000", "184157.660000", "184158.947000", "184200.228000", "184201.435000", "184202.667000", "184203.915000", "184205.183000", "184206.423000", "184207.689000", "184208.906000", "184210.178000", "184211.406000", "184212.638000", "184213.936000", "184215.172000", "184216.422000", "184217.631000", "184218.983000", "184220.158000", "184221.411000", "184222.672000", "184223.935000", "184225.180000", "184226.397000", "184227.661000", "184228.950000", "184230.175000", "184231.429000", "184232.691000", "184233.931000", "184235.190000", "184236.433000", "184237.670000", "184238.955000", "184240.168000", "184241.430000", "184242.673000", "184243.911000", "184245.169000", "184246.426000", "184247.684000", "184248.929000", "184250.159000", "184251.441000", "184252.673000", "184253.941000", "184255.180000", "184256.409000", "184257.692000", "184258.922000", "184300.173000", "184301.431000", "184302.657000", "184303.913000", "184305.171000", "184306.420000", "184307.666000", "184308.911000", "184310.189000", "184311.428000", "184312.659000", "184313.881000", "184315.155000", "184316.419000", "184317.750000", "184318.915000", "184320.159000", "184321.428000", "184322.675000", "184323.973000", "184325.165000", "184326.398000", "184327.668000", "184328.930000", "184330.184000", "184331.430000", "184332.676000", "184333.969000", "184335.197000", "184336.431000", "184337.674000", "184338.912000", "184340.249000", "184341.478000", "184342.670000", "184343.979000", "184345.142000", "184346.412000", "184347.674000", "184348.904000", "184350.181000", "184351.446000", "184352.680000", "184353.930000", "184355.161000", "184356.437000", "184357.685000", "184358.929000", "184400.199000", "184401.447000"],
      "InstanceCreationTime": ["183716.591000", "183717.653000", "183718.910000", "183720.158000", "183721.440000", "183722.666000", "183723.905000", "183725.173000", "183726.467000", "183727.609000", "183728.935000", "183730.153000", "183731.505000", "183732.701000", "183733.912000", "183735.134000", "183736.434000", "183737.684000", "183738.925000", "183740.200000", "183741.439000", "183742.679000", "183743.937000", "183745.160000", "183746.431000", "183747.689000", "183748.905000", "183750.181000", "183751.423000", "183752.680000", "183753.946000", "183755.167000", "183756.424000", "183757.664000", "183758.913000", "183800.166000", "183801.432000", "183802.675000", "183803.915000", "183805.156000", "183806.409000", "183807.659000", "183808.897000", "183810.167000", "183811.415000", "183812.660000", "183813.923000", "183815.169000", "183816.408000", "183817.684000", "183818.917000", "183820.150000", "183821.422000", "183822.671000", "183823.918000", "183825.154000", "183826.447000", "183827.640000", "183828.889000", "183830.175000", "183831.420000", "183832.684000", "183833.940000", "183835.151000", "183836.426000", "183837.639000", "183838.902000", "183840.195000", "183841.395000", "183842.674000", "183843.933000", "183845.176000", "183846.430000", "183847.642000", "183848.937000", "183850.173000", "183851.392000", "183852.680000", "183853.937000", "183855.170000", "183856.422000", "183857.701000", "183858.935000", "183900.169000", "183901.414000", "183902.678000", "183903.898000", "183905.168000", "183906.403000", "183907.680000", "183908.896000", "183910.161000", "183911.421000", "183912.708000", "183913.980000", "183915.224000", "183916.395000", "183917.667000", "183918.932000", "183920.198000", "183921.420000", "183922.652000", "183923.935000", "183925.190000", "183926.414000", "183927.694000", "183928.932000", "183930.175000", "183931.462000", "183932.682000", "183933.992000", "183935.177000", "183936.430000", "183937.685000", "183938.917000", "183940.169000", "183941.415000", "183942.711000", "183943.915000", "183945.159000", "183946.445000", "183947.722000", "183948.935000", "183950.191000", "183951.424000", "183952.668000", "183953.924000", "183955.225000", "183956.435000", "183957.698000", "183958.910000", "184000.167000", "184001.414000", "184002.678000", "184003.877000", "184005.177000", "184006.471000", "184007.685000", "184008.946000", "184010.159000", "184011.411000", "184012.684000", "184013.906000", "184015.160000", "184016.421000", "184017.661000", "184018.912000", "184020.206000", "184021.469000", "184022.677000", "184023.935000", "184025.170000", "184026.399000", "184027.689000", "184028.923000", "184030.246000", "184031.435000", "184032.683000", "184033.960000", "184035.178000", "184036.436000", "184037.686000", "184038.899000", "184040.189000", "184041.403000", "184042.663000", "184043.923000", "184045.138000", "184046.421000", "184047.711000", "184048.922000", "184050.194000", "184051.416000", "184052.659000", "184053.916000", "184055.178000", "184056.438000", "184057.686000", "184058.921000", "184100.126000", "184101.446000", "184102.674000", "184103.925000", "184105.170000", "184106.430000", "184107.657000", "184108.985000", "184110.166000", "184111.492000", "184112.663000", "184113.908000", "184115.181000", "184116.452000", "184117.656000", "184118.946000", "184120.178000", "184121.416000", "184122.663000", "184123.932000", "184125.188000", "184126.393000", "184127.690000", "184128.915000", "184130.182000", "184131.430000", "184132.694000", "184133.905000", "184135.174000", "184136.407000", "184137.697000", "184138.949000", "184140.187000", "184141.449000", "184142.692000", "184143.928000", "184145.156000", "184146.391000", "184147.658000", "184148.921000", "184150.221000", "184151.429000", "184152.701000", "184153.918000", "184155.222000", "184156.430000", "184157.660000", "184158.947000", "184200.228000", "184201.435000", "184202.667000", "184203.915000", "184205.183000", "184206.423000", "184207.689000", "184208.906000", "184210.178000", "184211.406000", "184212.638000", "184213.936000", "184215.172000", "184216.422000", "184217.631000", "184218.983000", "184220.158000", "184221.411000", "184222.672000", "184223.935000", "184225.180000", "184226.397000", "184227.661000", "184228.950000", "184230.175000", "184231.429000", "184232.691000", "184233.931000", "184235.190000", "184236.433000", "184237.670000", "184238.955000", "184240.168000", "184241.430000", "184242.673000", "184243.911000", "184245.169000", "184246.426000", "184247.684000", "184248.929000", "184250.159000", "184251.441000", "184252.673000", "184253.941000", "184255.180000", "184256.409000", "184257.692000", "184258.922000", "184300.173000", "184301.431000", "184302.657000", "184303.913000", "184305.171000", "184306.420000", "184307.666000", "184308.911000", "184310.189000", "184311.428000", "184312.659000", "184313.881000", "184315.155000", "184316.419000", "184317.750000", "184318.915000", "184320.159000", "184321.428000", "184322.675000", "184323.973000", "184325.165000", "184326.398000", "184327.668000", "184328.930000", "184330.184000", "184331.430000", "184332.676000", "184333.969000", "184335.197000", "184336.431000", "184337.674000", "184338.912000", "184340.249000", "184341.478000", "184342.670000", "184343.979000", "184345.142000", "184346.412000", "184347.674000", "184348.904000", "184350.181000", "184351.446000", "184352.680000", "184353.930000", "184355.161000", "184356.437000", "184357.685000", "184358.929000", "184400.199000", "184401.447000"],
      "InstanceNumber": [1, 2, 3, 4, 5, 6, 7, 8, 9, 10, 11, 12, 13, 14, 15, 16, 17, 18, 19, 20, 21, 22, 23, 24, 25, 26, 27, 28, 29, 30, 31, 32, 33, 34, 35, 36, 37, 38, 39, 40, 41, 42, 43, 44, 45, 46, 47, 48, 49, 50, 51, 52, 53, 54, 55, 56, 57, 58, 59, 60, 61, 62, 63, 64, 65, 66, 67, 68, 69, 70, 71, 72, 73, 74, 75, 76, 77, 78, 79, 80, 81, 82, 83, 84, 85, 86, 87, 88, 89, 90, 91, 92, 93, 94, 95, 96, 97, 98, 99, 100, 101, 102, 103, 104, 105, 106, 107, 108, 109, 110, 111, 112, 113, 114, 115, 116, 117, 118, 119, 120, 121, 122, 123, 124, 125, 126, 127, 128, 129, 130, 131, 132, 133, 134, 135, 136, 137, 138, 139, 140, 141, 142, 143, 144, 145, 146, 147, 148, 149, 150, 151, 152, 153, 154, 155, 156, 157, 158, 159, 160, 161, 162, 163, 164, 165, 166, 167, 168, 169, 170, 171, 172, 173, 174, 175, 176, 177, 178, 179, 180, 181, 182, 183, 184, 185, 186, 187, 188, 189, 190, 191, 192, 193, 194, 195, 196, 197, 198, 199, 200, 201, 202, 203, 204, 205, 206, 207, 208, 209, 210, 211, 212, 213, 214, 215, 216, 217, 218, 219, 220, 221, 222, 223, 224, 225, 226, 227, 228, 229, 230, 231, 232, 233, 234, 235, 236, 237, 238, 239, 240, 241, 242, 243, 244, 245, 246, 247, 248, 249, 250, 251, 252, 253, 254, 255, 256, 257, 258, 259, 260, 261, 262, 263, 264, 265, 266, 267, 268, 269, 270, 271, 272, 273, 274, 275, 276, 277, 278, 279, 280, 281, 282, 283, 284, 285, 286, 287, 288, 289, 290, 291, 292, 293, 294, 295, 296, 297, 298, 299, 300, 301, 302, 303, 304, 305, 306, 307, 308, 309, 310, 311, 312, 313, 314, 315, 316, 317, 318, 319, 320, 321, 322, 323, 324, 325],
      "LargestImagePixelValue": [1004, 1308, 1370, 1698, 1002, 1034, 975, 1313, 1480, 997, 939, 1064, 1383, 1476, 1146, 963, 1163, 1471, 1677, 1052, 1025, 1151, 1315, 1690, 983, 1034, 1203, 1381, 1499, 967, 1098, 1256, 1572, 1186, 967, 1168, 1241, 1454, 1207, 919, 1092, 1299, 1009, 1077, 1677, 1543, 1092, 1217, 1524, 1394, 938, 952, 1294, 1580, 1172, 1006, 958, 1376, 1483, 1237, 980, 1024, 1479, 1404, 924, 970, 1217, 1530, 1088, 1179, 1400, 1506, 1601, 1041, 1028, 986, 1326, 1381, 957, 947, 1352, 1585, 1165, 950, 1347, 1611, 1222, 1027, 1287, 1536, 1195, 974, 1191, 1502, 1535, 1016, 1188, 1312, 1644, 1129, 1141, 1063, 1485, 1312, 945, 944, 1259, 1293, 945, 1183, 1356, 1630, 1355, 993, 1091, 1197, 1429, 1396, 935, 1131, 1200, 1590, 993, 1089, 1467, 1668, 1205, 969, 1423, 1464, 1023, 966, 1488, 1621, 1210, 1076, 1203, 1639, 1030, 1119, 1206, 1638, 1154, 966, 1406, 1484, 1230, 977, 1050, 1413, 1257, 942, 938, 1250, 1618, 1150, 1098, 1059, 1368, 1525, 930, 1039, 1475, 1235, 1069, 1097, 1569, 1459, 935, 1174, 1243, 1570, 1149, 1093, 968, 1381, 1158, 1009, 1402, 1562, 1346, 1141, 1124, 1660, 1360, 918, 1179, 1276, 1619, 1024, 948, 1208, 1372, 1174, 1013, 1211, 1672, 967, 1017, 1443, 1589, 1586, 1098, 1015, 1199, 1331, 1451, 1117, 943, 1039, 1002, 1438, 1500, 1205, 958, 995, 1505, 1600, 1137, 970, 1286, 1609, 1141, 1080, 1225, 1640, 1209, 1111, 975, 1414, 1352, 937, 1191, 1358, 1722, 988, 985, 1554, 1366, 1187, 1014, 1500, 1626, 1120, 1065, 1123, 1340, 1327, 936, 955, 1554, 1463, 1038, 1234, 1421, 1636, 958, 960, 1357, 1425, 1090, 946, 1224, 1598, 1064, 1166, 1184, 1639, 1165, 957, 1213, 1448, 1205, 1000, 1277, 1631, 1174, 1159, 1204, 1680, 978, 966, 1519, 1520, 1097, 952, 1253, 1515, 1295, 928, 974, 1167, 1493, 1094, 1111, 1102, 1521, 1603, 1103, 1064, 1234, 1307, 1210, 931, 1031, 1490, 1194, 1165, 1008, 1532, 1700, 1140, 1094, 1083, 1297, 1168, 969, 1090, 1643, 1517, 1052, 943, 1170, 1490, 1461],
      "WindowCenter": [424.0, 425.0, 425.0, 427.0, 421.0, 421.0, 421.0, 424.0, 426.0, 421.0, 421.0, 422.0, 426.0, 426.0, 423.0, 422.0, 425.0, 427.0, 428.0, 423.0, 422.0, 424.0, 425.0, 428.0, 422.0, 423.0, 425.0, 426.0, 427.0, 422.0, 423.0, 425.0, 428.0, 424.0, 422.0, 424.0, 424.0, 426.0, 424.0, 422.0, 424.0, 427.0, 424.0, 425.0, 429.0, 427.0, 423.0, 424.0, 426.0, 425.0, 421.0, 421.0, 425.0, 427.0, 424.0, 422.0, 421.0, 425.0, 426.0, 424.0, 422.0, 423.0, 427.0, 426.0, 421.0, 422.0, 425.0, 429.0, 424.0, 425.0, 426.0, 426.0, 426.0, 422.0, 422.0, 421.0, 425.0, 426.0, 422.0, 422.0, 426.0, 427.0, 424.0, 422.0, 425.0, 428.0, 424.0, 422.0, 424.0, 426.0, 423.0, 421.0, 424.0, 427.0, 427.0, 422.0, 423.0, 425.0, 427.0, 422.0, 422.0, 421.0, 425.0, 424.0, 421.0, 421.0, 425.0, 425.0, 422.0, 424.0, 425.0, 427.0, 424.0, 421.0, 422.0, 423.0, 426.0, 425.0, 421.0, 423.0, 424.0, 428.0, 423.0, 424.0, 427.0, 428.0, 424.0, 421.0, 426.0, 426.0, 422.0, 422.0, 426.0, 427.0, 424.0, 422.0, 423.0, 426.0, 421.0, 422.0, 423.0, 427.0, 423.0, 420.0, 424.0, 425.0, 423.0, 421.0, 422.0, 425.0, 424.0, 422.0, 421.0, 425.0, 427.0, 423.0, 423.0, 421.0, 425.0, 426.0, 421.0, 423.0, 427.0, 425.0, 423.0, 423.0, 427.0, 426.0, 421.0, 423.0, 423.0, 426.0, 422.0, 423.0, 421.0, 426.0, 424.0, 423.0, 426.0, 427.0, 425.0, 423.0, 422.0, 427.0, 424.0, 420.0, 423.0, 423.0, 426.0, 422.0, 421.0, 424.0, 426.0, 424.0, 423.0, 425.0, 428.0, 422.0, 423.0, 426.0, 427.0, 427.0, 422.0, 421.0, 423.0, 424.0, 425.0, 422.0, 421.0, 423.0, 422.0, 426.0, 427.0, 424.0, 422.0, 422.0, 427.0, 427.0, 424.0, 422.0, 425.0, 428.0, 424.0, 423.0, 424.0, 427.0, 424.0, 423.0, 421.0, 426.0, 425.0, 421.0, 424.0, 426.0, 428.0, 421.0, 421.0, 427.0, 425.0, 423.0, 422.0, 425.0, 426.0, 422.0, 421.0, 422.0, 425.0, 425.0, 421.0, 422.0, 427.0, 426.0, 422.0, 424.0, 425.0, 427.0, 421.0, 421.0, 425.0, 426.0, 423.0, 421.0, 425.0, 428.0, 423.0, 424.0, 424.0, 428.0, 424.0, 422.0, 425.0, 427.0, 425.0, 423.0, 425.0, 428.0, 424.0, 423.0, 423.0, 427.0, 421.0, 421.0, 426.0, 426.0, 422.0, 420.0, 423.0, 425.0, 423.0, 420.0, 421.0, 424.0, 427.0, 424.0, 424.0, 423.0, 427.0, 427.0, 422.0, 422.0, 423.0, 423.0, 424.0, 421.0, 423.0, 428.0, 425.0, 424.0, 422.0, 427.0, 427.0, 422.0, 423.0, 422.0, 425.0, 424.0, 422.0, 424.0, 428.0, 427.0, 423.0, 421.0, 424.0, 426.0, 426.0],
