{
  "AcquisitionMatrixPE": 96,
  "AcquisitionNumber": 1,
  "AcquisitionTime": "10:56:0.057500",
  "BandwidthPerPixelPhaseEncode": 18.939,
  "BaseResolution": 96,
  "BodyPartExamined": "BRAIN",
  "ConsistencyInfo": "N4_VE11C_LATEST_20160120",
  "ConversionSoftware": "dcm2niix",
  "ConversionSoftwareVersion": "v1.0.20170923 (OpenJPEG build) GCC6.3.0",
  "DerivedVendorReportedEchoSpacing": 0.000550011,
  "DeviceSerialNumber": "66112",
  "DwellTime": 2.3e-06,
  "EchoTime": 0.033,
  "EchoTrainLength": 96,
  "EffectiveEchoSpacing": 0.000550011,
  "FlipAngle": 64,
  "ImageType": [
    "ORIGINAL",
    "PRIMARY",
    "FMRI",
    "NONE",
    "ND",
    "NORM",
    "MOSAIC"
],
  "InstitutionAddress": "Maynard_3_Hanover_NH_US_03755",
  "InstitutionName": "Dartmouth_College_-_PBS",
  "MagneticFieldStrength": 3,
  "Manufacturer": "Siemens",
  "ManufacturersModelName": "Prisma",
  "Modality": "MR",
  "MultibandAccelerationFactor": 4,
  "PartialFourier": 1,
  "PercentPhaseFOV": 100,
  "PhaseEncodingDirection": "j-",
  "PhaseEncodingSteps": 96,
  "PhaseResolution": 1,
  "ProcedureStepDescription": "Gobbini_Matteo_1017_famface-angles",
  "ProtocolName": "func_run-07_task-fam1back",
  "PulseSequenceDetails": "%SiemensSeq%_ep2d_bold",
  "ReceiveCoilActiveElements": "HEA;HEP",
  "ReceiveCoilName": "Head_32",
  "ReconMatrixPE": 96,
  "RepetitionTime": 1.25,
  "ScanOptions": "FS",
  "ScanningSequence": "EP",
  "SequenceName": "_epfid2d1_96",
  "SequenceVariant": "SK",
  "SeriesDescription": "func_run-07_task-fam1back",
  "SliceTiming": [0.8775, 0, 0.615, 0.0875, 0.7025, 0.175, 0.79, 0.35, 0.965, 0.4375, 1.0525, 0.5275, 1.14, 0.2625, 0.8775, 0, 0.615, 0.0875, 0.7025, 0.175, 0.79, 0.35, 0.965, 0.4375, 1.0525, 0.5275, 1.14, 0.2625, 0.8775, 0, 0.615, 0.0875, 0.7025, 0.175, 0.79, 0.35, 0.965, 0.4375, 1.0525, 0.5275, 1.14, 0.2625, 0.8775, 0, 0.615, 0.0875, 0.7025, 0.175, 0.79, 0.35, 0.965, 0.4375, 1.0525, 0.5275, 1.14, 0.2625],
  "SoftwareVersions": "syngo_MR_E11",
  "StationName": "AWP66112",
  "TaskName": "fam1back",
  "TotalReadoutTime": 0.0522511,
  "dcmmeta_affine": [
    [-2.4954535961151123, -0.07406338304281235, 0.13124586641788483, 122.51382446289062],
    [-0.06766194105148315, 2.496100664138794, 0.12207943946123123, -98.80907440185547],
    [0.13465780019760132, -0.11830529570579529, 2.4935660362243652, -93.82156372070312],
    [0.0, 0.0, 0.0, 1.0]
],
  "dcmmeta_reorient_transform": [
    [0.0, -1.0, 0.0, 95.0],
    [1.0, 0.0, 0.0, 0.0],
    [0.0, 0.0, 1.0, 0.0],
    [0.0, 0.0, 0.0, 1.0]
],
  "dcmmeta_shape": [96, 96, 56, 280],
  "dcmmeta_slice_dim": 2,
  "dcmmeta_version": 0.6,
  "global": {
    "const": {
      "AccessionNumber": "A000624",
      "AcquisitionMatrix": [96, 0, 0, 96],
      "AngioFlag": "N",
      "BitsAllocated": 16,
      "BitsStored": 12,
      "BodyPartExamined": "BRAIN",
      "Columns": 768,
      "EchoNumbers": 1,
      "EchoTime": 33.0,
      "EchoTrainLength": 96,
      "FlipAngle": 64.0,
      "HighBit": 11,
      "ImageOrientationPatient": [0.99818147759794, 0.02706477677212, 0.0538631194666, -0.0296253540625, 0.99844026137768, 0.04732211805011],
      "ImagePositionPatient": [-929.06494921269, -999.74471859708, -190.05616297698],
      "ImageType": [
        "ORIGINAL",
        "PRIMARY",
        "FMRI",
        "NONE",
        "ND",
        "NORM",
        "MOSAIC"
],
      "ImagedNucleus": "1H",
      "ImagingFrequency": 123.252404,
      "InPlanePhaseEncodingDirection": "COL",
      "MRAcquisitionType": "2D",
      "MagneticFieldStrength": 3.0,
      "Manufacturer": "SIEMENS",
      "ManufacturerModelName": "Prisma",
      "Modality": "MR",
      "NumberOfAverages": 1.0,
      "NumberOfPhaseEncodingSteps": 96,
      "PercentPhaseFieldOfView": 100.0,
      "PercentSampling": 100.0,
      "PerformedProcedureStepStartTime": "095908.147000",
      "PhotometricInterpretation": "MONOCHROME2",
      "PixelBandwidth": 2265.0,
      "PixelRepresentation": 0,
      "PixelSpacing": [2.5, 2.5],
      "PositionReferenceIndicator": "",
      "ProtocolName": "func_run-07_task-fam1back",
      "RepetitionTime": 1250.0,
      "Rows": 768,
      "SAR": 0.05579240200203,
      "SamplesPerPixel": 1,
      "ScanOptions": "FS",
      "ScanningSequence": "EP",
      "SequenceName": "*epfid2d1_96",
      "SequenceVariant": "SK",
      "SeriesDescription": "func_run-07_task-fam1back",
      "SeriesNumber": 50,
      "SeriesTime": "105601.358000",
      "SliceLocation": -91.973348800746,
      "SliceThickness": 2.5,
      "SmallestImagePixelValue": 0,
      "SoftwareVersions": "syngo MR E11",
      "SpacingBetweenSlices": 2.4999999763145,
      "SpecificCharacterSet": "ISO_IR 100",
      "StudyID": "2",
      "StudyTime": "095908.099000",
      "TransmitCoilName": "Body",
      "VariableFlipAngleFlag": "N",
      "WindowCenterWidthExplanation": "Algo1",
      "dBdt": 0.0},
    "slices": {}
  },
  "time": {
    "samples": {
      "AcquisitionNumber": [1, 2, 3, 4, 5, 6, 7, 8, 9, 10, 11, 12, 13, 14, 15, 16, 17, 18, 19, 20, 21, 22, 23, 24, 25, 26, 27, 28, 29, 30, 31, 32, 33, 34, 35, 36, 37, 38, 39, 40, 41, 42, 43, 44, 45, 46, 47, 48, 49, 50, 51, 52, 53, 54, 55, 56, 57, 58, 59, 60, 61, 62, 63, 64, 65, 66, 67, 68, 69, 70, 71, 72, 73, 74, 75, 76, 77, 78, 79, 80, 81, 82, 83, 84, 85, 86, 87, 88, 89, 90, 91, 92, 93, 94, 95, 96, 97, 98, 99, 100, 101, 102, 103, 104, 105, 106, 107, 108, 109, 110, 111, 112, 113, 114, 115, 116, 117, 118, 119, 120, 121, 122, 123, 124, 125, 126, 127, 128, 129, 130, 131, 132, 133, 134, 135, 136, 137, 138, 139, 140, 141, 142, 143, 144, 145, 146, 147, 148, 149, 150, 151, 152, 153, 154, 155, 156, 157, 158, 159, 160, 161, 162, 163, 164, 165, 166, 167, 168, 169, 170, 171, 172, 173, 174, 175, 176, 177, 178, 179, 180, 181, 182, 183, 184, 185, 186, 187, 188, 189, 190, 191, 192, 193, 194, 195, 196, 197, 198, 199, 200, 201, 202, 203, 204, 205, 206, 207, 208, 209, 210, 211, 212, 213, 214, 215, 216, 217, 218, 219, 220, 221, 222, 223, 224, 225, 226, 227, 228, 229, 230, 231, 232, 233, 234, 235, 236, 237, 238, 239, 240, 241, 242, 243, 244, 245, 246, 247, 248, 249, 250, 251, 252, 253, 254, 255, 256, 257, 258, 259, 260, 261, 262, 263, 264, 265, 266, 267, 268, 269, 270, 271, 272, 273, 274, 275, 276, 277, 278, 279, 280],
      "AcquisitionTime": ["105600.057500", "105601.307500", "105602.557500", "105603.807500", "105605.057500", "105606.307500", "105607.557500", "105608.807500", "105610.057500", "105611.307500", "105612.557500", "105613.807500", "105615.057500", "105616.307500", "105617.557500", "105618.807500", "105620.057500", "105621.307500", "105622.557500", "105623.807500", "105625.057500", "105626.307500", "105627.557500", "105628.807500", "105630.057500", "105631.307500", "105632.557500", "105633.807500", "105635.057500", "105636.307500", "105637.557500", "105638.807500", "105640.057500", "105641.307500", "105642.557500", "105643.807500", "105645.057500", "105646.307500", "105647.557500", "105648.807500", "105650.057500", "105651.307500", "105652.557500", "105653.807500", "105655.057500", "105656.307500", "105657.557500", "105658.807500", "105700.057500", "105701.307500", "105702.557500", "105703.807500", "105705.057500", "105706.307500", "105707.557500", "105708.807500", "105710.057500", "105711.307500", "105712.557500", "105713.807500", "105715.057500", "105716.307500", "105717.557500", "105718.807500", "105720.057500", "105721.307500", "105722.557500", "105723.807500", "105725.057500", "105726.307500", "105727.557500", "105728.807500", "105730.057500", "105731.307500", "105732.557500", "105733.807500", "105735.057500", "105736.307500", "105737.557500", "105738.807500", "105740.057500", "105741.307500", "105742.557500", "105743.807500", "105745.057500", "105746.307500", "105747.557500", "105748.807500", "105750.057500", "105751.307500", "105752.557500", "105753.807500", "105755.057500", "105756.307500", "105757.557500", "105758.807500", "105800.057500", "105801.307500", "105802.557500", "105803.807500", "105805.057500", "105806.307500", "105807.557500", "105808.807500", "105810.057500", "105811.307500", "105812.557500", "105813.807500", "105815.057500", "105816.307500", "105817.557500", "105818.807500", "105820.057500", "105821.307500", "105822.557500", "105823.807500", "105825.057500", "105826.307500", "105827.557500", "105828.807500", "105830.057500", "105831.307500", "105832.557500", "105833.807500", "105835.057500", "105836.307500", "105837.557500", "105838.807500", "105840.057500", "105841.307500", "105842.557500", "105843.807500", "105845.057500", "105846.307500", "105847.557500", "105848.807500", "105850.057500", "105851.307500", "105852.557500", "105853.807500", "105855.057500", "105856.307500", "105857.557500", "105858.807500", "105900.057500", "105901.307500", "105902.557500", "105903.807500", "105905.057500", "105906.307500", "105907.557500", "105908.807500", "105910.057500", "105911.307500", "105912.557500", "105913.807500", "105915.057500", "105916.307500", "105917.557500", "105918.807500", "105920.057500", "105921.307500", "105922.557500", "105923.807500", "105925.057500", "105926.307500", "105927.557500", "105928.807500", "105930.057500", "105931.307500", "105932.557500", "105933.807500", "105935.057500", "105936.307500", "105937.557500", "105938.807500", "105940.057500", "105941.307500", "105942.557500", "105943.807500", "105945.057500", "105946.307500", "105947.557500", "105948.807500", "105950.057500", "105951.307500", "105952.557500", "105953.807500", "105955.057500", "105956.307500", "105957.557500", "105958.807500", "110000.057500", "110001.307500", "110002.557500", "110003.807500", "110005.057500", "110006.307500", "110007.557500", "110008.807500", "110010.057500", "110011.307500", "110012.557500", "110013.807500", "110015.057500", "110016.307500", "110017.557500", "110018.807500", "110020.057500", "110021.307500", "110022.557500", "110023.807500", "110025.057500", "110026.307500", "110027.557500", "110028.807500", "110030.057500", "110031.307500", "110032.557500", "110033.807500", "110035.057500", "110036.307500", "110037.557500", "110038.807500", "110040.057500", "110041.307500", "110042.557500", "110043.807500", "110045.057500", "110046.307500", "110047.557500", "110048.807500", "110050.057500", "110051.307500", "110052.557500", "110053.807500", "110055.057500", "110056.307500", "110057.557500", "110058.807500", "110100.057500", "110101.307500", "110102.557500", "110103.807500", "110105.057500", "110106.307500", "110107.557500", "110108.807500", "110110.057500", "110111.307500", "110112.557500", "110113.807500", "110115.057500", "110116.307500", "110117.557500", "110118.807500", "110120.057500", "110121.307500", "110122.557500", "110123.807500", "110125.057500", "110126.307500", "110127.557500", "110128.807500", "110130.057500", "110131.307500", "110132.557500", "110133.807500", "110135.057500", "110136.307500", "110137.557500", "110138.807500", "110140.057500", "110141.307500", "110142.557500", "110143.807500", "110145.057500", "110146.307500", "110147.557500", "110148.807500"],
      "ContentTime": ["105601.362000", "105602.398000", "105603.674000", "105604.906000", "105606.157000", "105607.438000", "105608.724000", "105609.905000", "105611.152000", "105612.403000", "105613.708000", "105614.906000", "105616.197000", "105617.423000", "105618.677000", "105619.911000", "105621.181000", "105622.417000", "105623.646000", "105624.906000", "105626.169000", "105627.402000", "105628.631000", "105629.914000", "105631.214000", "105632.412000", "105633.654000", "105634.913000", "105636.176000", "105637.377000", "105638.658000", "105639.894000", "105641.126000", "105642.431000", "105643.698000", "105644.907000", "105646.169000", "105647.408000", "105648.651000", "105649.901000", "105651.163000", "105652.423000", "105653.700000", "105654.978000", "105656.195000", "105657.380000", "105658.642000", "105659.917000", "105701.139000", "105702.399000", "105703.648000", "105704.882000", "105706.175000", "105707.435000", "105708.653000", "105709.937000", "105711.191000", "105712.392000", "105713.715000", "105714.912000", "105716.153000", "105717.433000", "105718.654000", "105719.936000", "105721.167000", "105722.415000", "105723.686000", "105724.951000", "105726.150000", "105727.407000", "105728.649000", "105729.939000", "105731.149000", "105732.445000", "105733.654000", "105734.935000", "105736.166000", "105737.414000", "105738.637000", "105739.933000", "105741.178000", "105742.367000", "105743.636000", "105744.904000", "105746.177000", "105747.408000", "105748.661000", "105749.914000", "105751.155000", "105752.435000", "105753.690000", "105754.957000", "105756.143000", "105757.415000", "105758.688000", "105759.928000", "105801.171000", "105802.406000", "105803.657000", "105804.942000", "105806.172000", "105807.434000", "105808.659000", "105809.943000", "105811.184000", "105812.412000", "105813.655000", "105814.930000", "105816.168000", "105817.456000", "105818.685000", "105819.941000", "105821.180000", "105822.447000", "105823.661000", "105824.927000", "105826.203000", "105827.414000", "105828.679000", "105829.948000", "105831.207000", "105832.415000", "105833.668000", "105834.917000", "105836.163000", "105837.412000", "105838.632000", "105839.929000", "105841.162000", "105842.414000", "105843.776000", "105844.978000", "105846.179000", "105847.453000", "105848.650000", "105849.898000", "105851.153000", "105852.417000", "105853.705000", "105854.951000", "105856.214000", "105857.412000", "105858.686000", "105859.957000", "105901.178000", "105902.420000", "105903.671000", "105904.905000", "105906.183000", "105907.414000", "105908.702000", "105909.930000", "105911.176000", "105912.485000", "105913.654000", "105914.936000", "105916.161000", "105917.429000", "105918.676000", "105919.941000", "105921.174000", "105922.405000", "105923.656000", "105924.915000", "105926.154000", "105927.413000", "105928.670000", "105929.895000", "105931.177000", "105932.496000", "105933.678000", "105934.903000", "105936.169000", "105937.478000", "105938.667000", "105939.934000", "105941.229000", "105942.460000", "105943.701000", "105944.922000", "105946.191000", "105947.453000", "105948.654000", "105949.933000", "105951.172000", "105952.474000", "105953.746000", "105954.949000", "105956.162000", "105957.433000", "105958.700000", "105959.922000", "110001.164000", "110002.472000", "110003.647000", "110004.908000", "110006.147000", "110007.415000", "110008.683000", "110009.898000", "110011.155000", "110012.414000", "110013.707000", "110014.918000", "110016.169000", "110017.400000", "110018.672000", "110019.941000", "110021.175000", "110022.433000", "110023.681000", "110024.919000", "110026.215000", "110027.464000", "110028.692000", "110029.917000", "110031.183000", "110032.427000", "110033.631000", "110034.902000", "110036.205000", "110037.420000", "110038.638000", "110039.946000", "110041.147000", "110042.429000", "110043.678000", "110044.908000", "110046.236000", "110047.476000", "110048.646000", "110049.923000", "110051.153000", "110052.407000", "110053.664000", "110054.923000", "110056.150000", "110057.435000", "110058.664000", "110059.928000", "110101.141000", "110102.443000", "110103.643000", "110104.992000", "110106.154000", "110107.436000", "110108.642000", "110110.015000", "110111.145000", "110112.407000", "110113.683000", "110114.957000", "110116.168000", "110117.427000", "110118.630000", "110119.897000", "110121.237000", "110122.405000", "110123.647000", "110124.914000", "110126.192000", "110127.455000", "110128.700000", "110129.905000", "110131.174000", "110132.414000", "110133.668000", "110134.901000", "110136.170000", "110137.435000", "110138.671000", "110139.909000", "110141.199000", "110142.431000", "110143.677000", "110144.912000", "110146.174000", "110147.420000", "110148.640000", "110149.944000"],
      "InstanceCreationTime": ["105601.362000", "105602.398000", "105603.674000", "105604.906000", "105606.157000", "105607.438000", "105608.724000", "105609.905000", "105611.152000", "105612.403000", "105613.708000", "105614.906000", "105616.197000", "105617.423000", "105618.677000", "105619.911000", "105621.181000", "105622.417000", "105623.646000", "105624.906000", "105626.169000", "105627.402000", "105628.631000", "105629.914000", "105631.214000", "105632.412000", "105633.654000", "105634.913000", "105636.176000", "105637.377000", "105638.658000", "105639.894000", "105641.126000", "105642.431000", "105643.698000", "105644.907000", "105646.169000", "105647.408000", "105648.651000", "105649.901000", "105651.163000", "105652.423000", "105653.700000", "105654.978000", "105656.195000", "105657.380000", "105658.642000", "105659.917000", "105701.139000", "105702.399000", "105703.648000", "105704.882000", "105706.175000", "105707.435000", "105708.653000", "105709.937000", "105711.191000", "105712.392000", "105713.715000", "105714.912000", "105716.153000", "105717.433000", "105718.654000", "105719.936000", "105721.167000", "105722.415000", "105723.686000", "105724.951000", "105726.150000", "105727.407000", "105728.649000", "105729.939000", "105731.149000", "105732.445000", "105733.654000", "105734.935000", "105736.166000", "105737.414000", "105738.637000", "105739.933000", "105741.178000", "105742.367000", "105743.636000", "105744.904000", "105746.177000", "105747.408000", "105748.661000", "105749.914000", "105751.155000", "105752.435000", "105753.690000", "105754.957000", "105756.143000", "105757.415000", "105758.688000", "105759.928000", "105801.171000", "105802.406000", "105803.657000", "105804.942000", "105806.172000", "105807.434000", "105808.659000", "105809.943000", "105811.184000", "105812.412000", "105813.655000", "105814.930000", "105816.168000", "105817.456000", "105818.685000", "105819.941000", "105821.180000", "105822.447000", "105823.661000", "105824.927000", "105826.203000", "105827.414000", "105828.679000", "105829.948000", "105831.207000", "105832.415000", "105833.668000", "105834.917000", "105836.163000", "105837.412000", "105838.632000", "105839.929000", "105841.162000", "105842.414000", "105843.776000", "105844.978000", "105846.179000", "105847.453000", "105848.650000", "105849.898000", "105851.153000", "105852.417000", "105853.705000", "105854.951000", "105856.214000", "105857.412000", "105858.686000", "105859.957000", "105901.178000", "105902.420000", "105903.671000", "105904.905000", "105906.183000", "105907.414000", "105908.702000", "105909.930000", "105911.176000", "105912.485000", "105913.654000", "105914.936000", "105916.161000", "105917.429000", "105918.676000", "105919.941000", "105921.174000", "105922.405000", "105923.656000", "105924.915000", "105926.154000", "105927.413000", "105928.670000", "105929.895000", "105931.177000", "105932.496000", "105933.678000", "105934.903000", "105936.169000", "105937.478000", "105938.667000", "105939.934000", "105941.229000", "105942.460000", "105943.701000", "105944.922000", "105946.191000", "105947.453000", "105948.654000", "105949.933000", "105951.172000", "105952.474000", "105953.746000", "105954.949000", "105956.162000", "105957.433000", "105958.700000", "105959.922000", "110001.164000", "110002.472000", "110003.647000", "110004.908000", "110006.147000", "110007.415000", "110008.683000", "110009.898000", "110011.155000", "110012.414000", "110013.707000", "110014.918000", "110016.169000", "110017.400000", "110018.672000", "110019.941000", "110021.175000", "110022.433000", "110023.681000", "110024.919000", "110026.215000", "110027.464000", "110028.692000", "110029.917000", "110031.183000", "110032.427000", "110033.631000", "110034.902000", "110036.205000", "110037.420000", "110038.638000", "110039.946000", "110041.147000", "110042.429000", "110043.678000", "110044.908000", "110046.236000", "110047.476000", "110048.646000", "110049.923000", "110051.153000", "110052.407000", "110053.664000", "110054.923000", "110056.150000", "110057.435000", "110058.664000", "110059.928000", "110101.141000", "110102.443000", "110103.643000", "110104.992000", "110106.154000", "110107.436000", "110108.642000", "110110.015000", "110111.145000", "110112.407000", "110113.683000", "110114.957000", "110116.168000", "110117.427000", "110118.630000", "110119.897000", "110121.237000", "110122.405000", "110123.647000", "110124.914000", "110126.192000", "110127.455000", "110128.700000", "110129.905000", "110131.174000", "110132.414000", "110133.668000", "110134.901000", "110136.170000", "110137.435000", "110138.671000", "110139.909000", "110141.199000", "110142.431000", "110143.677000", "110144.912000", "110146.174000", "110147.420000", "110148.640000", "110149.944000"],
      "InstanceNumber": [1, 2, 3, 4, 5, 6, 7, 8, 9, 10, 11, 12, 13, 14, 15, 16, 17, 18, 19, 20, 21, 22, 23, 24, 25, 26, 27, 28, 29, 30, 31, 32, 33, 34, 35, 36, 37, 38, 39, 40, 41, 42, 43, 44, 45, 46, 47, 48, 49, 50, 51, 52, 53, 54, 55, 56, 57, 58, 59, 60, 61, 62, 63, 64, 65, 66, 67, 68, 69, 70, 71, 72, 73, 74, 75, 76, 77, 78, 79, 80, 81, 82, 83, 84, 85, 86, 87, 88, 89, 90, 91, 92, 93, 94, 95, 96, 97, 98, 99, 100, 101, 102, 103, 104, 105, 106, 107, 108, 109, 110, 111, 112, 113, 114, 115, 116, 117, 118, 119, 120, 121, 122, 123, 124, 125, 126, 127, 128, 129, 130, 131, 132, 133, 134, 135, 136, 137, 138, 139, 140, 141, 142, 143, 144, 145, 146, 147, 148, 149, 150, 151, 152, 153, 154, 155, 156, 157, 158, 159, 160, 161, 162, 163, 164, 165, 166, 167, 168, 169, 170, 171, 172, 173, 174, 175, 176, 177, 178, 179, 180, 181, 182, 183, 184, 185, 186, 187, 188, 189, 190, 191, 192, 193, 194, 195, 196, 197, 198, 199, 200, 201, 202, 203, 204, 205, 206, 207, 208, 209, 210, 211, 212, 213, 214, 215, 216, 217, 218, 219, 220, 221, 222, 223, 224, 225, 226, 227, 228, 229, 230, 231, 232, 233, 234, 235, 236, 237, 238, 239, 240, 241, 242, 243, 244, 245, 246, 247, 248, 249, 250, 251, 252, 253, 254, 255, 256, 257, 258, 259, 260, 261, 262, 263, 264, 265, 266, 267, 268, 269, 270, 271, 272, 273, 274, 275, 276, 277, 278, 279, 280],
      "LargestImagePixelValue": [937, 984, 1406, 1071, 1115, 954, 886, 1397, 972, 1090, 823, 793, 962, 857, 1261, 836, 844, 780, 782, 990, 882, 777, 1141, 823, 887, 1178, 944, 1103, 845, 924, 1231, 961, 763, 1245, 815, 808, 1100, 816, 919, 1270, 866, 780, 1160, 984, 1039, 1260, 952, 1112, 1018, 781, 947, 1042, 786, 758, 974, 785, 1190, 782, 802, 797, 941, 1034, 919, 894, 936, 836, 835, 1091, 855, 1209, 848, 845, 1279, 962, 999, 1178, 1007, 906, 1193, 785, 810, 1202, 788, 924, 1165, 866, 733, 1004, 842, 803, 759, 788, 1161, 982, 932, 1294, 941, 812, 1104, 819, 786, 848, 1298, 835, 797, 1018, 850, 797, 983, 1148, 1052, 833, 1051, 1030, 814, 906, 981, 795, 746, 766, 902, 1126, 942, 820, 903, 1216, 839, 801, 895, 767, 809, 1067, 823, 902, 1037, 1264, 887, 807, 1086, 777, 851, 1118, 1028, 908, 1018, 1296, 1081, 758, 1310, 807, 768, 1075, 843, 869, 1157, 1061, 918, 1360, 935, 793, 1001, 864, 792, 1070, 781, 819, 1207, 868, 815, 1184, 987, 975, 1232, 1224, 919, 1204, 852, 841, 887, 783, 1020, 889, 924, 1170, 772, 771, 1114, 764, 806, 983, 844, 815, 1173, 811, 897, 971, 1019, 812, 874, 912, 1293, 910, 981, 1073, 795, 1180, 820, 894, 936, 877, 804, 779, 770, 1400, 958, 802, 1239, 837, 946, 1092, 998, 997, 1260, 811, 784, 1003, 776, 890, 1025, 780, 1048, 832, 826, 1266, 1119, 878, 1237, 798, 956, 804, 784, 1319, 979, 867, 1146, 1008, 900, 1149, 985, 913, 1313, 925, 780, 1252, 791, 856, 1008, 1084, 913, 1326, 1003, 776, 984, 1057, 916, 804, 1022, 806, 906, 913, 930, 944, 1181, 978, 791, 1206, 825, 846, 940, 817],
      "WindowCenter": [377.0, 374.0, 379.0, 377.0, 376.0, 374.0, 373.0, 377.0, 373.0, 374.0, 372.0, 372.0, 373.0, 372.0, 376.0, 372.0, 372.0, 372.0, 372.0, 374.0, 373.0, 372.0, 375.0, 372.0, 374.0, 376.0, 374.0, 375.0, 372.0, 373.0, 375.0, 374.0, 371.0, 376.0, 372.0, 372.0, 375.0, 373.0, 374.0, 377.0, 374.0, 373.0, 377.0, 375.0, 375.0, 376.0, 374.0, 374.0, 373.0, 370.0, 372.0, 373.0, 370.0, 371.0, 373.0, 371.0, 376.0, 372.0, 373.0, 373.0, 374.0, 375.0, 373.0, 373.0, 373.0, 373.0, 373.0, 376.0, 373.0, 376.0, 372.0, 372.0, 376.0, 373.0, 373.0, 375.0, 373.0, 372.0, 375.0, 371.0, 372.0, 375.0, 371.0, 373.0, 375.0, 372.0, 370.0, 374.0, 372.0, 372.0, 371.0, 372.0, 377.0, 375.0, 374.0, 377.0, 373.0, 372.0, 375.0, 372.0, 372.0, 372.0, 376.0, 372.0, 372.0, 374.0, 372.0, 372.0, 374.0, 375.0, 374.0, 372.0, 374.0, 373.0, 371.0, 372.0, 373.0, 372.0, 371.0, 372.0, 374.0, 375.0, 373.0, 372.0, 373.0, 376.0, 372.0, 372.0, 373.0, 371.0, 373.0, 376.0, 374.0, 374.0, 375.0, 377.0, 373.0, 372.0, 374.0, 372.0, 373.0, 376.0, 375.0, 373.0, 374.0, 376.0, 374.0, 371.0, 376.0, 371.0, 371.0, 375.0, 373.0, 373.0, 376.0, 375.0, 374.0, 377.0, 373.0, 372.0, 374.0, 372.0, 372.0, 376.0, 373.0, 374.0, 378.0, 374.0, 374.0, 377.0, 375.0, 375.0, 376.0, 376.0, 374.0, 376.0, 372.0, 372.0, 372.0, 371.0, 374.0, 372.0, 373.0, 375.0, 372.0, 371.0, 375.0, 371.0, 372.0, 374.0, 372.0, 372.0, 376.0, 373.0, 374.0, 375.0, 376.0, 374.0, 375.0, 375.0, 378.0, 374.0, 375.0, 375.0, 372.0, 376.0, 372.0, 373.0, 374.0, 374.0, 373.0, 372.0, 372.0, 377.0, 374.0, 372.0, 376.0, 372.0, 373.0, 376.0, 374.0, 374.0, 376.0, 371.0, 371.0, 374.0, 372.0, 373.0, 374.0, 372.0, 375.0, 374.0, 373.0, 377.0, 376.0, 374.0, 377.0, 373.0, 374.0, 373.0, 373.0, 378.0, 375.0, 374.0, 377.0, 375.0, 374.0, 376.0, 374.0, 374.0, 376.0, 373.0, 371.0, 376.0, 372.0, 373.0, 376.0, 376.0, 374.0, 377.0, 374.0, 371.0, 373.0, 374.0, 373.0, 372.0, 375.0, 373.0, 375.0, 375.0, 374.0, 374.0, 375.0, 374.0, 372.0, 377.0, 373.0, 374.0, 375.0, 373.0],
      "WindowWidth": [804.0, 798.0, 806.0, 801.0, 800.0, 797.0, 795.0, 800.0, 795.0, 797.0, 794.0, 794.0, 796.0, 795.0, 800.0, 795.0, 795.0, 794.0, 794.0, 798.0, 796.0, 794.0, 799.0, 795.0, 797.0, 800.0, 798.0, 799.0, 795.0, 796.0, 797.0, 797.0, 794.0, 800.0, 794.0, 794.0, 798.0, 795.0, 798.0, 802.0, 798.0, 796.0, 801.0, 799.0, 798.0, 800.0, 796.0, 797.0, 796.0, 791.0, 794.0, 795.0, 792.0, 792.0, 796.0, 793.0, 799.0, 795.0, 796.0, 796.0, 798.0, 798.0, 796.0, 796.0, 796.0, 795.0, 796.0, 799.0, 795.0, 800.0, 795.0, 795.0, 800.0, 796.0, 796.0, 798.0, 796.0, 794.0, 797.0, 793.0, 794.0, 798.0, 793.0, 795.0, 798.0, 794.0, 791.0, 797.0, 795.0, 794.0, 794.0, 795.0, 801.0, 799.0, 798.0, 801.0, 796.0, 794.0, 798.0, 795.0, 794.0, 795.0, 800.0, 795.0, 794.0, 797.0, 795.0, 794.0, 797.0, 798.0, 796.0, 794.0, 796.0, 795.0, 792.0, 794.0, 796.0, 794.0, 793.0, 795.0, 797.0, 799.0, 795.0, 794.0, 795.0, 799.0, 795.0, 794.0, 795.0, 793.0, 796.0, 800.0, 798.0, 799.0, 799.0, 801.0, 796.0, 794.0, 798.0, 794.0, 796.0, 799.0, 798.0, 796.0, 797.0, 800.0, 797.0, 792.0, 800.0, 793.0, 793.0, 799.0, 796.0, 796.0, 800.0, 799.0, 797.0, 800.0, 795.0, 793.0, 796.0, 794.0, 795.0, 799.0, 796.0, 797.0, 803.0, 798.0, 797.0, 802.0, 799.0, 798.0, 800.0, 800.0, 796.0, 799.0, 794.0, 794.0, 794.0, 792.0, 797.0, 794.0, 795.0, 799.0, 794.0, 793.0, 799.0, 793.0, 794.0, 797.0, 795.0, 794.0, 801.0, 797.0, 799.0, 799.0, 800.0, 797.0, 799.0, 799.0, 803.0, 798.0, 798.0, 799.0, 794.0, 799.0, 794.0, 796.0, 796.0, 797.0, 795.0, 794.0, 795.0, 802.0, 797.0, 794.0, 800.0, 795.0, 796.0, 799.0, 798.0, 797.0, 800.0, 793.0, 793.0, 797.0, 794.0, 796.0, 798.0, 795.0, 799.0, 797.0, 796.0, 801.0, 800.0, 797.0, 801.0, 796.0, 798.0, 796.0, 796.0, 803.0, 799.0, 797.0, 802.0, 800.0, 798.0, 801.0, 797.0, 797.0, 800.0, 796.0, 794.0, 799.0, 795.0, 796.0, 800.0, 801.0, 798.0, 802.0, 797.0, 793.0, 796.0, 797.0, 796.0, 795.0, 799.0, 796.0, 799.0, 799.0, 797.0, 797.0, 799.0, 797.0, 795.0, 801.0, 796.0, 798.0, 799.0, 796.0]
    },
    "slices": {}
  }
}