{
  "AcquisitionMatrixPE": 96,
  "AcquisitionNumber": 1,
  "AcquisitionTime": "10:27:48.462500",
  "BandwidthPerPixelPhaseEncode": 18.939,
  "BaseResolution": 96,
  "BodyPartExamined": "BRAIN",
  "ConsistencyInfo": "N4_VE11C_LATEST_20160120",
  "ConversionSoftware": "dcm2niix",
  "ConversionSoftwareVersion": "v1.0.20170923 (OpenJPEG build) GCC6.3.0",
  "DerivedVendorReportedEchoSpacing": 0.000550011,
  "DeviceSerialNumber": "66112",
  "DwellTime": 2.3e-06,
  "EchoTime": 0.033,
  "EchoTrainLength": 96,
  "EffectiveEchoSpacing": 0.000550011,
  "FlipAngle": 64,
  "ImageType": [
    "ORIGINAL",
    "PRIMARY",
    "FMRI",
    "NONE",
    "ND",
    "NORM",
    "MOSAIC"
],
  "InstitutionAddress": "Maynard_3_Hanover_NH_US_03755",
  "InstitutionName": "Dartmouth_College_-_PBS",
  "MagneticFieldStrength": 3,
  "Manufacturer": "Siemens",
  "ManufacturersModelName": "Prisma",
  "Modality": "MR",
  "MultibandAccelerationFactor": 4,
  "PartialFourier": 1,
  "PercentPhaseFOV": 100,
  "PhaseEncodingDirection": "j-",
  "PhaseEncodingSteps": 96,
  "PhaseResolution": 1,
  "ProcedureStepDescription": "Gobbini_Matteo_1017_famface-angles",
  "ProtocolName": "func_run-03_task-str1back",
  "PulseSequenceDetails": "%SiemensSeq%_ep2d_bold",
  "ReceiveCoilActiveElements": "HEA;HEP",
  "ReceiveCoilName": "Head_32",
  "ReconMatrixPE": 96,
  "RepetitionTime": 1.25,
  "ScanOptions": "FS",
  "ScanningSequence": "EP",
  "SequenceName": "_epfid2d1_96",
  "SequenceVariant": "SK",
  "SeriesDescription": "func_run-03_task-str1back",
  "SliceTiming": [0.88, 0, 0.615, 0.09, 0.705, 0.1775, 0.7925, 0.3525, 0.9675, 0.44, 1.055, 0.5275, 1.1425, 0.265, 0.88, 0, 0.615, 0.09, 0.705, 0.1775, 0.7925, 0.3525, 0.9675, 0.44, 1.055, 0.5275, 1.1425, 0.265, 0.88, 0, 0.615, 0.09, 0.705, 0.1775, 0.7925, 0.3525, 0.9675, 0.44, 1.055, 0.5275, 1.1425, 0.265, 0.88, 0, 0.615, 0.09, 0.705, 0.1775, 0.7925, 0.3525, 0.9675, 0.44, 1.055, 0.5275, 1.1425, 0.265],
  "SoftwareVersions": "syngo_MR_E11",
  "StationName": "AWP66112",
  "TaskName": "str1back",
  "TotalReadoutTime": 0.0522511,
  "dcmmeta_affine": [
    [-2.4954535961151123, -0.07406338304281235, 0.13124586641788483, 122.51382446289062],
    [-0.06766194105148315, 2.496100664138794, 0.12207943946123123, -98.80907440185547],
    [0.13465780019760132, -0.11830529570579529, 2.4935660362243652, -93.82156372070312],
    [0.0, 0.0, 0.0, 1.0]
],
  "dcmmeta_reorient_transform": [
    [0.0, -1.0, 0.0, 95.0],
    [1.0, 0.0, 0.0, 0.0],
    [0.0, 0.0, 1.0, 0.0],
    [0.0, 0.0, 0.0, 1.0]
],
  "dcmmeta_shape": [96, 96, 56, 280],
  "dcmmeta_slice_dim": 2,
  "dcmmeta_version": 0.6,
  "global": {
    "const": {
      "AccessionNumber": "A000624",
      "AcquisitionMatrix": [96, 0, 0, 96],
      "AngioFlag": "N",
      "BitsAllocated": 16,
      "BitsStored": 12,
      "BodyPartExamined": "BRAIN",
      "Columns": 768,
      "EchoNumbers": 1,
      "EchoTime": 33.0,
      "EchoTrainLength": 96,
      "FlipAngle": 64.0,
      "HighBit": 11,
      "ImageOrientationPatient": [0.99818147759794, 0.02706477677212, 0.0538631194666, -0.0296253540625, 0.99844026137768, 0.04732211805011],
      "ImagePositionPatient": [-929.06494921269, -999.74471859708, -190.05616297698],
      "ImageType": [
        "ORIGINAL",
        "PRIMARY",
        "FMRI",
        "NONE",
        "ND",
        "NORM",
        "MOSAIC"
],
      "ImagedNucleus": "1H",
      "ImagingFrequency": 123.252398,
      "InPlanePhaseEncodingDirection": "COL",
      "MRAcquisitionType": "2D",
      "MagneticFieldStrength": 3.0,
      "Manufacturer": "SIEMENS",
      "ManufacturerModelName": "Prisma",
      "Modality": "MR",
      "NumberOfAverages": 1.0,
      "NumberOfPhaseEncodingSteps": 96,
      "PercentPhaseFieldOfView": 100.0,
      "PercentSampling": 100.0,
      "PerformedProcedureStepStartTime": "095908.147000",
      "PhotometricInterpretation": "MONOCHROME2",
      "PixelBandwidth": 2265.0,
      "PixelRepresentation": 0,
      "PixelSpacing": [2.5, 2.5],
      "PositionReferenceIndicator": "",
      "ProtocolName": "func_run-03_task-str1back",
      "RepetitionTime": 1250.0,
      "Rows": 768,
      "SAR": 0.05579240200203,
      "SamplesPerPixel": 1,
      "ScanOptions": "FS",
      "ScanningSequence": "EP",
      "SequenceName": "*epfid2d1_96",
      "SequenceVariant": "SK",
      "SeriesDescription": "func_run-03_task-str1back",
      "SeriesNumber": 22,
      "SeriesTime": "102749.545000",
      "SliceLocation": -91.973348800746,
      "SliceThickness": 2.5,
      "SmallestImagePixelValue": 0,
      "SoftwareVersions": "syngo MR E11",
      "SpacingBetweenSlices": 2.4999999763145,
      "SpecificCharacterSet": "ISO_IR 100",
      "StudyID": "2",
      "StudyTime": "095908.099000",
      "TransmitCoilName": "Body",
      "VariableFlipAngleFlag": "N",
      "WindowCenterWidthExplanation": "Algo1",
      "dBdt": 0.0},
    "slices": {}
  },
  "time": {
    "samples": {
      "AcquisitionNumber": [1, 2, 3, 4, 5, 6, 7, 8, 9, 10, 11, 12, 13, 14, 15, 16, 17, 18, 19, 20, 21, 22, 23, 24, 25, 26, 27, 28, 29, 30, 31, 32, 33, 34, 35, 36, 37, 38, 39, 40, 41, 42, 43, 44, 45, 46, 47, 48, 49, 50, 51, 52, 53, 54, 55, 56, 57, 58, 59, 60, 61, 62, 63, 64, 65, 66, 67, 68, 69, 70, 71, 72, 73, 74, 75, 76, 77, 78, 79, 80, 81, 82, 83, 84, 85, 86, 87, 88, 89, 90, 91, 92, 93, 94, 95, 96, 97, 98, 99, 100, 101, 102, 103, 104, 105, 106, 107, 108, 109, 110, 111, 112, 113, 114, 115, 116, 117, 118, 119, 120, 121, 122, 123, 124, 125, 126, 127, 128, 129, 130, 131, 132, 133, 134, 135, 136, 137, 138, 139, 140, 141, 142, 143, 144, 145, 146, 147, 148, 149, 150, 151, 152, 153, 154, 155, 156, 157, 158, 159, 160, 161, 162, 163, 164, 165, 166, 167, 168, 169, 170, 171, 172, 173, 174, 175, 176, 177, 178, 179, 180, 181, 182, 183, 184, 185, 186, 187, 188, 189, 190, 191, 192, 193, 194, 195, 196, 197, 198, 199, 200, 201, 202, 203, 204, 205, 206, 207, 208, 209, 210, 211, 212, 213, 214, 215, 216, 217, 218, 219, 220, 221, 222, 223, 224, 225, 226, 227, 228, 229, 230, 231, 232, 233, 234, 235, 236, 237, 238, 239, 240, 241, 242, 243, 244, 245, 246, 247, 248, 249, 250, 251, 252, 253, 254, 255, 256, 257, 258, 259, 260, 261, 262, 263, 264, 265, 266, 267, 268, 269, 270, 271, 272, 273, 274, 275, 276, 277, 278, 279, 280],
      "AcquisitionTime": ["102748.462500", "102749.712500", "102750.962500", "102752.212500", "102753.462500", "102754.712500", "102755.962500", "102757.212500", "102758.462500", "102759.712500", "102800.962500", "102802.212500", "102803.462500", "102804.712500", "102805.962500", "102807.212500", "102808.462500", "102809.712500", "102810.962500", "102812.212500", "102813.462500", "102814.712500", "102815.962500", "102817.212500", "102818.462500", "102819.712500", "102820.962500", "102822.212500", "102823.462500", "102824.712500", "102825.962500", "102827.212500", "102828.462500", "102829.712500", "102830.962500", "102832.212500", "102833.462500", "102834.712500", "102835.962500", "102837.212500", "102838.462500", "102839.712500", "102840.962500", "102842.212500", "102843.462500", "102844.712500", "102845.962500", "102847.212500", "102848.462500", "102849.712500", "102850.962500", "102852.212500", "102853.462500", "102854.712500", "102855.962500", "102857.212500", "102858.462500", "102859.712500", "102900.962500", "102902.212500", "102903.462500", "102904.712500", "102905.962500", "102907.212500", "102908.462500", "102909.712500", "102910.962500", "102912.212500", "102913.462500", "102914.712500", "102915.962500", "102917.212500", "102918.462500", "102919.712500", "102920.962500", "102922.212500", "102923.462500", "102924.712500", "102925.962500", "102927.212500", "102928.462500", "102929.712500", "102930.962500", "102932.212500", "102933.462500", "102934.712500", "102935.962500", "102937.212500", "102938.462500", "102939.712500", "102940.962500", "102942.212500", "102943.462500", "102944.712500", "102945.962500", "102947.212500", "102948.462500", "102949.712500", "102950.962500", "102952.212500", "102953.462500", "102954.712500", "102955.962500", "102957.212500", "102958.462500", "102959.712500", "103000.962500", "103002.212500", "103003.462500", "103004.712500", "103005.962500", "103007.212500", "103008.462500", "103009.712500", "103010.962500", "103012.212500", "103013.462500", "103014.712500", "103015.962500", "103017.212500", "103018.462500", "103019.712500", "103020.962500", "103022.212500", "103023.462500", "103024.712500", "103025.962500", "103027.212500", "103028.462500", "103029.712500", "103030.962500", "103032.212500", "103033.462500", "103034.712500", "103035.962500", "103037.212500", "103038.462500", "103039.712500", "103040.962500", "103042.212500", "103043.462500", "103044.712500", "103045.962500", "103047.212500", "103048.462500", "103049.712500", "103050.962500", "103052.212500", "103053.462500", "103054.712500", "103055.962500", "103057.212500", "103058.462500", "103059.712500", "103100.962500", "103102.212500", "103103.462500", "103104.712500", "103105.962500", "103107.212500", "103108.462500", "103109.712500", "103110.962500", "103112.212500", "103113.462500", "103114.712500", "103115.962500", "103117.212500", "103118.462500", "103119.712500", "103120.962500", "103122.212500", "103123.462500", "103124.712500", "103125.962500", "103127.212500", "103128.462500", "103129.712500", "103130.962500", "103132.212500", "103133.462500", "103134.712500", "103135.962500", "103137.212500", "103138.462500", "103139.712500", "103140.962500", "103142.212500", "103143.462500", "103144.712500", "103145.962500", "103147.212500", "103148.462500", "103149.712500", "103150.962500", "103152.212500", "103153.462500", "103154.712500", "103155.962500", "103157.212500", "103158.462500", "103159.712500", "103200.962500", "103202.212500", "103203.462500", "103204.712500", "103205.962500", "103207.212500", "103208.462500", "103209.712500", "103210.962500", "103212.212500", "103213.462500", "103214.712500", "103215.962500", "103217.212500", "103218.462500", "103219.712500", "103220.962500", "103222.212500", "103223.462500", "103224.712500", "103225.962500", "103227.212500", "103228.462500", "103229.712500", "103230.962500", "103232.212500", "103233.462500", "103234.712500", "103235.962500", "103237.212500", "103238.462500", "103239.712500", "103240.962500", "103242.212500", "103243.462500", "103244.712500", "103245.962500", "103247.212500", "103248.462500", "103249.712500", "103250.962500", "103252.212500", "103253.462500", "103254.712500", "103255.962500", "103257.212500", "103258.462500", "103259.712500", "103300.962500", "103302.212500", "103303.462500", "103304.712500", "103305.962500", "103307.212500", "103308.462500", "103309.712500", "103310.962500", "103312.212500", "103313.462500", "103314.712500", "103315.962500", "103317.212500", "103318.462500", "103319.712500", "103320.962500", "103322.212500", "103323.462500", "103324.712500", "103325.962500", "103327.212500", "103328.462500", "103329.712500", "103330.962500", "103332.212500", "103333.462500", "103334.712500", "103335.962500", "103337.212500"],
      "ContentTime": ["102749.549000", "102750.578000", "102751.804000", "102753.077000", "102754.311000", "102755.563000", "102756.815000", "102758.076000", "102759.302000", "102800.536000", "102801.820000", "102803.101000", "102804.344000", "102805.562000", "102806.799000", "102808.067000", "102809.300000", "102810.563000", "102811.801000", "102813.037000", "102814.309000", "102815.597000", "102816.806000", "102818.058000", "102819.293000", "102820.570000", "102821.799000", "102823.036000", "102824.305000", "102825.568000", "102826.799000", "102828.047000", "102829.299000", "102830.557000", "102831.794000", "102833.105000", "102834.398000", "102835.585000", "102836.838000", "102838.070000", "102839.324000", "102840.559000", "102841.806000", "102843.068000", "102844.302000", "102845.554000", "102846.831000", "102848.086000", "102849.332000", "102850.579000", "102851.824000", "102853.050000", "102854.322000", "102855.570000", "102856.819000", "102858.071000", "102859.300000", "102900.563000", "102901.825000", "102903.106000", "102904.323000", "102905.623000", "102906.785000", "102908.112000", "102909.320000", "102910.536000", "102911.787000", "102913.043000", "102914.318000", "102915.521000", "102916.807000", "102918.059000", "102919.309000", "102920.568000", "102921.794000", "102923.081000", "102924.338000", "102925.588000", "102926.801000", "102928.071000", "102929.317000", "102930.563000", "102931.818000", "102933.062000", "102934.316000", "102935.594000", "102936.910000", "102938.064000", "102939.291000", "102940.542000", "102941.793000", "102943.047000", "102944.299000", "102945.520000", "102946.806000", "102948.055000", "102949.312000", "102950.579000", "102951.802000", "102953.064000", "102954.342000", "102955.596000", "102956.800000", "102958.126000", "102959.329000", "103000.568000", "103001.822000", "103003.077000", "103004.299000", "103005.585000", "103006.830000", "103008.073000", "103009.299000", "103010.563000", "103011.811000", "103013.090000", "103014.307000", "103015.595000", "103016.811000", "103018.077000", "103019.333000", "103020.580000", "103021.849000", "103023.080000", "103024.289000", "103025.564000", "103026.828000", "103028.077000", "103029.313000", "103030.592000", "103031.810000", "103033.050000", "103034.322000", "103035.592000", "103036.933000", "103038.060000", "103039.268000", "103040.565000", "103041.832000", "103043.102000", "103044.321000", "103045.562000", "103046.827000", "103048.082000", "103049.377000", "103050.578000", "103051.826000", "103053.093000", "103054.348000", "103055.556000", "103056.828000", "103058.092000", "103059.310000", "103100.560000", "103101.817000", "103103.058000", "103104.346000", "103105.567000", "103106.887000", "103108.107000", "103109.356000", "103110.568000", "103111.811000", "103113.091000", "103114.306000", "103115.576000", "103116.816000", "103118.057000", "103119.321000", "103120.550000", "103121.811000", "103123.061000", "103124.303000", "103125.560000", "103126.821000", "103128.078000", "103129.331000", "103130.569000", "103131.868000", "103133.069000", "103134.355000", "103135.634000", "103136.811000", "103138.052000", "103139.358000", "103140.631000", "103141.832000", "103143.071000", "103144.323000", "103145.566000", "103146.819000", "103148.104000", "103149.344000", "103150.634000", "103151.826000", "103153.061000", "103154.332000", "103155.578000", "103156.838000", "103158.056000", "103159.341000", "103200.573000", "103201.811000", "103203.068000", "103204.346000", "103205.566000", "103206.813000", "103208.065000", "103209.314000", "103210.569000", "103211.827000", "103213.073000", "103214.312000", "103215.551000", "103216.840000", "103218.103000", "103219.351000", "103220.608000", "103221.807000", "103223.054000", "103224.331000", "103225.600000", "103226.826000", "103228.101000", "103229.374000", "103230.556000", "103231.818000", "103233.086000", "103234.325000", "103235.552000", "103236.852000", "103238.053000", "103239.314000", "103240.581000", "103241.805000", "103243.058000", "103244.423000", "103245.600000", "103246.845000", "103248.054000", "103249.317000", "103250.554000", "103251.803000", "103253.089000", "103254.291000", "103255.600000", "103256.919000", "103258.063000", "103259.319000", "103300.569000", "103301.829000", "103303.067000", "103304.301000", "103305.598000", "103306.816000", "103308.064000", "103309.374000", "103310.562000", "103311.810000", "103313.075000", "103314.314000", "103315.583000", "103316.823000", "103318.065000", "103319.378000", "103320.543000", "103321.811000", "103323.065000", "103324.313000", "103325.550000", "103326.829000", "103328.092000", "103329.304000", "103330.591000", "103331.794000", "103333.053000", "103334.316000", "103335.541000", "103336.826000", "103338.090000"],
      "InstanceCreationTime": ["102749.549000", "102750.578000", "102751.804000", "102753.077000", "102754.311000", "102755.563000", "102756.815000", "102758.076000", "102759.302000", "102800.536000", "102801.820000", "102803.101000", "102804.344000", "102805.562000", "102806.799000", "102808.067000", "102809.300000", "102810.563000", "102811.801000", "102813.037000", "102814.309000", "102815.597000", "102816.806000", "102818.058000", "102819.293000", "102820.570000", "102821.799000", "102823.036000", "102824.305000", "102825.568000", "102826.799000", "102828.047000", "102829.299000", "102830.557000", "102831.794000", "102833.105000", "102834.398000", "102835.585000", "102836.838000", "102838.070000", "102839.324000", "102840.559000", "102841.806000", "102843.068000", "102844.302000", "102845.554000", "102846.831000", "102848.086000", "102849.332000", "102850.579000", "102851.824000", "102853.050000", "102854.322000", "102855.570000", "102856.819000", "102858.071000", "102859.300000", "102900.563000", "102901.825000", "102903.106000", "102904.323000", "102905.623000", "102906.785000", "102908.112000", "102909.320000", "102910.536000", "102911.787000", "102913.043000", "102914.318000", "102915.521000", "102916.807000", "102918.059000", "102919.309000", "102920.568000", "102921.794000", "102923.081000", "102924.338000", "102925.588000", "102926.801000", "102928.071000", "102929.317000", "102930.563000", "102931.818000", "102933.062000", "102934.316000", "102935.594000", "102936.910000", "102938.064000", "102939.291000", "102940.542000", "102941.793000", "102943.047000", "102944.299000", "102945.520000", "102946.806000", "102948.055000", "102949.312000", "102950.579000", "102951.802000", "102953.064000", "102954.342000", "102955.596000", "102956.800000", "102958.126000", "102959.329000", "103000.568000", "103001.822000", "103003.077000", "103004.299000", "103005.585000", "103006.830000", "103008.073000", "103009.299000", "103010.563000", "103011.811000", "103013.090000", "103014.307000", "103015.595000", "103016.811000", "103018.077000", "103019.333000", "103020.580000", "103021.849000", "103023.080000", "103024.289000", "103025.564000", "103026.828000", "103028.077000", "103029.313000", "103030.592000", "103031.810000", "103033.050000", "103034.322000", "103035.592000", "103036.933000", "103038.060000", "103039.268000", "103040.565000", "103041.832000", "103043.102000", "103044.321000", "103045.562000", "103046.827000", "103048.082000", "103049.377000", "103050.578000", "103051.826000", "103053.093000", "103054.348000", "103055.556000", "103056.828000", "103058.092000", "103059.310000", "103100.560000", "103101.817000", "103103.058000", "103104.346000", "103105.567000", "103106.887000", "103108.107000", "103109.356000", "103110.568000", "103111.811000", "103113.091000", "103114.306000", "103115.576000", "103116.816000", "103118.057000", "103119.321000", "103120.550000", "103121.811000", "103123.061000", "103124.303000", "103125.560000", "103126.821000", "103128.078000", "103129.331000", "103130.569000", "103131.868000", "103133.069000", "103134.355000", "103135.634000", "103136.811000", "103138.052000", "103139.358000", "103140.631000", "103141.832000", "103143.071000", "103144.323000", "103145.566000", "103146.819000", "103148.104000", "103149.344000", "103150.634000", "103151.826000", "103153.061000", "103154.332000", "103155.578000", "103156.838000", "103158.056000", "103159.341000", "103200.573000", "103201.811000", "103203.068000", "103204.346000", "103205.566000", "103206.813000", "103208.065000", "103209.314000", "103210.569000", "103211.827000", "103213.073000", "103214.312000", "103215.551000", "103216.840000", "103218.103000", "103219.351000", "103220.608000", "103221.807000", "103223.054000", "103224.331000", "103225.600000", "103226.826000", "103228.101000", "103229.374000", "103230.556000", "103231.818000", "103233.086000", "103234.325000", "103235.552000", "103236.852000", "103238.053000", "103239.314000", "103240.581000", "103241.805000", "103243.058000", "103244.423000", "103245.600000", "103246.845000", "103248.054000", "103249.317000", "103250.554000", "103251.803000", "103253.089000", "103254.291000", "103255.600000", "103256.919000", "103258.063000", "103259.319000", "103300.569000", "103301.829000", "103303.067000", "103304.301000", "103305.598000", "103306.816000", "103308.064000", "103309.374000", "103310.562000", "103311.810000", "103313.075000", "103314.314000", "103315.583000", "103316.823000", "103318.065000", "103319.378000", "103320.543000", "103321.811000", "103323.065000", "103324.313000", "103325.550000", "103326.829000", "103328.092000", "103329.304000", "103330.591000", "103331.794000", "103333.053000", "103334.316000", "103335.541000", "103336.826000", "103338.090000"],
      "InstanceNumber": [1, 2, 3, 4, 5, 6, 7, 8, 9, 10, 11, 12, 13, 14, 15, 16, 17, 18, 19, 20, 21, 22, 23, 24, 25, 26, 27, 28, 29, 30, 31, 32, 33, 34, 35, 36, 37, 38, 39, 40, 41, 42, 43, 44, 45, 46, 47, 48, 49, 50, 51, 52, 53, 54, 55, 56, 57, 58, 59, 60, 61, 62, 63, 64, 65, 66, 67, 68, 69, 70, 71, 72, 73, 74, 75, 76, 77, 78, 79, 80, 81, 82, 83, 84, 85, 86, 87, 88, 89, 90, 91, 92, 93, 94, 95, 96, 97, 98, 99, 100, 101, 102, 103, 104, 105, 106, 107, 108, 109, 110, 111, 112, 113, 114, 115, 116, 117, 118, 119, 120, 121, 122, 123, 124, 125, 126, 127, 128, 129, 130, 131, 132, 133, 134, 135, 136, 137, 138, 139, 140, 141, 142, 143, 144, 145, 146, 147, 148, 149, 150, 151, 152, 153, 154, 155, 156, 157, 158, 159, 160, 161, 162, 163, 164, 165, 166, 167, 168, 169, 170, 171, 172, 173, 174, 175, 176, 177, 178, 179, 180, 181, 182, 183, 184, 185, 186, 187, 188, 189, 190, 191, 192, 193, 194, 195, 196, 197, 198, 199, 200, 201, 202, 203, 204, 205, 206, 207, 208, 209, 210, 211, 212, 213, 214, 215, 216, 217, 218, 219, 220, 221, 222, 223, 224, 225, 226, 227, 228, 229, 230, 231, 232, 233, 234, 235, 236, 237, 238, 239, 240, 241, 242, 243, 244, 245, 246, 247, 248, 249, 250, 251, 252, 253, 254, 255, 256, 257, 258, 259, 260, 261, 262, 263, 264, 265, 266, 267, 268, 269, 270, 271, 272, 273, 274, 275, 276, 277, 278, 279, 280],
      "LargestImagePixelValue": [775, 768, 1308, 819, 917, 894, 852, 760, 1177, 867, 841, 1237, 789, 937, 1079, 823, 1003, 1259, 807, 797, 905, 736, 896, 743, 950, 1311, 932, 833, 1245, 720, 961, 740, 765, 845, 725, 1314, 952, 836, 969, 751, 1196, 815, 924, 1055, 740, 1021, 739, 751, 1248, 953, 894, 1056, 784, 859, 935, 776, 1044, 737, 800, 1086, 789, 1237, 799, 800, 1195, 808, 1333, 762, 871, 738, 748, 1083, 807, 1279, 845, 980, 788, 767, 943, 746, 1301, 929, 997, 787, 821, 796, 770, 1125, 724, 1267, 852, 931, 826, 825, 1117, 727, 1006, 758, 928, 929, 898, 1281, 853, 770, 1107, 723, 1014, 821, 799, 730, 876, 1233, 854, 932, 775, 765, 1164, 789, 1266, 858, 913, 775, 805, 1093, 779, 1213, 770, 966, 763, 826, 1297, 780, 930, 781, 777, 884, 740, 1198, 727, 1278, 889, 1185, 862, 930, 841, 819, 1305, 805, 995, 773, 748, 818, 749, 815, 834, 759, 725, 813, 893, 776, 1265, 780, 878, 730, 758, 1113, 787, 950, 759, 871, 1332, 899, 779, 894, 784, 761, 1317, 977, 881, 1288, 1001, 865, 1260, 737, 1023, 1012, 997, 917, 1239, 780, 760, 1063, 781, 880, 1172, 957, 908, 1242, 847, 797, 790, 758, 1191, 827, 761, 1132, 792, 806, 819, 776, 1271, 815, 899, 848, 755, 1302, 796, 1061, 795, 859, 803, 974, 785, 1266, 863, 1080, 813, 923, 894, 915, 1233, 932, 1002, 1247, 830, 773, 1331, 759, 766, 1002, 754, 783, 1192, 933, 939, 1313, 941, 788, 1106, 754, 922, 1127, 730, 963, 748, 870, 1339, 1065, 746, 1198, 766, 1016, 754, 755, 1331, 892, 870, 1303, 932, 820, 1106, 785, 1005, 748, 788, 1238, 802, 874, 1082, 772],
      "WindowCenter": [372.0, 371.0, 375.0, 370.0, 372.0, 371.0, 371.0, 370.0, 375.0, 371.0, 371.0, 374.0, 369.0, 372.0, 373.0, 370.0, 372.0, 373.0, 369.0, 369.0, 371.0, 369.0, 371.0, 370.0, 372.0, 375.0, 371.0, 370.0, 374.0, 368.0, 371.0, 369.0, 370.0, 371.0, 370.0, 375.0, 372.0, 371.0, 372.0, 370.0, 375.0, 372.0, 372.0, 374.0, 370.0, 373.0, 370.0, 370.0, 375.0, 373.0, 372.0, 374.0, 370.0, 371.0, 372.0, 370.0, 373.0, 370.0, 371.0, 374.0, 370.0, 375.0, 371.0, 371.0, 374.0, 370.0, 375.0, 370.0, 372.0, 370.0, 370.0, 374.0, 372.0, 375.0, 371.0, 373.0, 371.0, 370.0, 373.0, 370.0, 375.0, 372.0, 373.0, 371.0, 371.0, 371.0, 371.0, 374.0, 370.0, 375.0, 372.0, 373.0, 372.0, 372.0, 375.0, 370.0, 373.0, 370.0, 372.0, 372.0, 372.0, 375.0, 371.0, 370.0, 374.0, 370.0, 373.0, 370.0, 370.0, 370.0, 372.0, 375.0, 371.0, 372.0, 370.0, 370.0, 375.0, 371.0, 375.0, 371.0, 372.0, 371.0, 371.0, 374.0, 371.0, 375.0, 371.0, 373.0, 371.0, 371.0, 375.0, 370.0, 372.0, 370.0, 371.0, 372.0, 370.0, 375.0, 370.0, 375.0, 372.0, 375.0, 371.0, 373.0, 372.0, 372.0, 375.0, 371.0, 373.0, 371.0, 371.0, 372.0, 371.0, 372.0, 372.0, 370.0, 369.0, 371.0, 372.0, 370.0, 375.0, 370.0, 373.0, 370.0, 371.0, 374.0, 371.0, 373.0, 371.0, 373.0, 376.0, 372.0, 371.0, 372.0, 370.0, 370.0, 376.0, 373.0, 372.0, 375.0, 372.0, 371.0, 374.0, 370.0, 373.0, 373.0, 372.0, 371.0, 374.0, 369.0, 370.0, 374.0, 370.0, 372.0, 374.0, 372.0, 372.0, 375.0, 371.0, 371.0, 371.0, 371.0, 375.0, 372.0, 371.0, 375.0, 372.0, 372.0, 372.0, 372.0, 377.0, 372.0, 373.0, 372.0, 371.0, 376.0, 372.0, 374.0, 372.0, 373.0, 372.0, 375.0, 373.0, 377.0, 373.0, 375.0, 372.0, 373.0, 373.0, 373.0, 376.0, 373.0, 374.0, 375.0, 370.0, 370.0, 375.0, 369.0, 369.0, 372.0, 370.0, 370.0, 375.0, 372.0, 372.0, 375.0, 372.0, 370.0, 374.0, 370.0, 372.0, 374.0, 370.0, 373.0, 371.0, 372.0, 376.0, 374.0, 371.0, 375.0, 371.0, 374.0, 371.0, 371.0, 376.0, 373.0, 372.0, 376.0, 373.0, 372.0, 375.0, 371.0, 373.0, 370.0, 371.0, 375.0, 372.0, 372.0, 374.0, 371.0],
      "WindowWidth": [796.0, 793.0, 799.0, 792.0, 793.0, 792.0, 793.0, 791.0, 797.0, 793.0, 792.0, 796.0, 790.0, 793.0, 795.0, 791.0, 793.0, 795.0, 789.0, 790.0, 792.0, 790.0, 792.0, 791.0, 794.0, 797.0, 792.0, 790.0, 796.0, 788.0, 792.0, 789.0, 790.0, 792.0, 791.0, 798.0, 794.0, 792.0, 793.0, 792.0, 797.0, 793.0, 794.0, 796.0, 791.0, 795.0, 791.0, 791.0, 798.0, 795.0, 794.0, 796.0, 791.0, 793.0, 793.0, 791.0, 795.0, 791.0, 792.0, 797.0, 792.0, 797.0, 792.0, 792.0, 797.0, 791.0, 797.0, 790.0, 794.0, 792.0, 792.0, 797.0, 793.0, 798.0, 793.0, 795.0, 792.0, 792.0, 795.0, 791.0, 798.0, 793.0, 795.0, 792.0, 793.0, 793.0, 793.0, 797.0, 791.0, 799.0, 794.0, 795.0, 793.0, 794.0, 798.0, 792.0, 795.0, 791.0, 793.0, 793.0, 794.0, 798.0, 793.0, 791.0, 796.0, 791.0, 794.0, 791.0, 790.0, 791.0, 794.0, 798.0, 793.0, 794.0, 792.0, 791.0, 797.0, 792.0, 798.0, 793.0, 794.0, 793.0, 793.0, 797.0, 792.0, 798.0, 793.0, 795.0, 792.0, 792.0, 798.0, 791.0, 793.0, 791.0, 793.0, 794.0, 792.0, 798.0, 791.0, 798.0, 794.0, 798.0, 793.0, 796.0, 794.0, 793.0, 798.0, 792.0, 795.0, 792.0, 792.0, 794.0, 794.0, 795.0, 793.0, 792.0, 790.0, 792.0, 793.0, 792.0, 798.0, 792.0, 795.0, 792.0, 792.0, 796.0, 792.0, 795.0, 793.0, 795.0, 799.0, 794.0, 792.0, 793.0, 791.0, 792.0, 799.0, 796.0, 794.0, 798.0, 794.0, 792.0, 797.0, 790.0, 795.0, 795.0, 794.0, 792.0, 796.0, 790.0, 791.0, 796.0, 792.0, 794.0, 796.0, 794.0, 793.0, 797.0, 792.0, 792.0, 793.0, 793.0, 799.0, 794.0, 793.0, 798.0, 794.0, 794.0, 795.0, 794.0, 801.0, 795.0, 796.0, 795.0, 792.0, 800.0, 793.0, 797.0, 795.0, 796.0, 795.0, 800.0, 796.0, 801.0, 796.0, 799.0, 794.0, 796.0, 796.0, 796.0, 800.0, 796.0, 796.0, 797.0, 791.0, 790.0, 797.0, 789.0, 790.0, 793.0, 790.0, 791.0, 797.0, 794.0, 794.0, 798.0, 793.0, 791.0, 796.0, 791.0, 794.0, 796.0, 791.0, 796.0, 792.0, 794.0, 799.0, 797.0, 792.0, 799.0, 793.0, 797.0, 793.0, 793.0, 800.0, 795.0, 794.0, 799.0, 796.0, 794.0, 798.0, 793.0, 795.0, 791.0, 793.0, 798.0, 793.0, 795.0, 797.0, 793.0]
    },
    "slices": {}
  }
}