{
  "AcquisitionMatrixPE": 96,
  "AcquisitionNumber": 1,
  "AcquisitionTime": "11:23:39.657500",
  "BandwidthPerPixelPhaseEncode": 18.939,
  "BaseResolution": 96,
  "BodyPartExamined": "BRAIN",
  "ConsistencyInfo": "N4_VE11C_LATEST_20160120",
  "ConversionSoftware": "dcm2niix",
  "ConversionSoftwareVersion": "v1.0.20170923 (OpenJPEG build) GCC6.3.0",
  "DerivedVendorReportedEchoSpacing": 0.000550011,
  "DeviceSerialNumber": "66112",
  "DwellTime": 2.3e-06,
  "EchoTime": 0.033,
  "EchoTrainLength": 96,
  "EffectiveEchoSpacing": 0.000550011,
  "FlipAngle": 64,
  "ImageType": [
    "ORIGINAL",
    "PRIMARY",
    "FMRI",
    "NONE",
    "ND",
    "NORM",
    "MOSAIC"
],
  "InstitutionAddress": "Maynard_3_Hanover_NH_US_03755",
  "InstitutionName": "Dartmouth_College_-_PBS",
  "MagneticFieldStrength": 3,
  "Manufacturer": "Siemens",
  "ManufacturersModelName": "Prisma",
  "Modality": "MR",
  "MultibandAccelerationFactor": 4,
  "PartialFourier": 1,
  "PercentPhaseFOV": 100,
  "PhaseEncodingDirection": "j-",
  "PhaseEncodingSteps": 96,
  "PhaseResolution": 1,
  "ProcedureStepDescription": "Gobbini_Matteo_1017_famface-angles",
  "ProtocolName": "func_run-11_task-fam1back",
  "PulseSequenceDetails": "%SiemensSeq%_ep2d_bold",
  "ReceiveCoilActiveElements": "HEA;HEP",
  "ReceiveCoilName": "Head_32",
  "ReconMatrixPE": 96,
  "RepetitionTime": 1.25,
  "ScanOptions": "FS",
  "ScanningSequence": "EP",
  "SequenceName": "_epfid2d1_96",
  "SequenceVariant": "SK",
  "SeriesDescription": "func_run-11_task-fam1back",
  "SliceTiming": [0.88, 0, 0.615, 0.0875, 0.7025, 0.1775, 0.79, 0.3525, 0.9675, 0.44, 1.055, 0.5275, 1.1425, 0.265, 0.88, 0, 0.615, 0.0875, 0.7025, 0.1775, 0.79, 0.3525, 0.9675, 0.44, 1.055, 0.5275, 1.1425, 0.265, 0.88, 0, 0.615, 0.0875, 0.7025, 0.1775, 0.79, 0.3525, 0.9675, 0.44, 1.055, 0.5275, 1.1425, 0.265, 0.88, 0, 0.615, 0.0875, 0.7025, 0.1775, 0.79, 0.3525, 0.9675, 0.44, 1.055, 0.5275, 1.1425, 0.265],
  "SoftwareVersions": "syngo_MR_E11",
  "StationName": "AWP66112",
  "TaskName": "fam1back",
  "TotalReadoutTime": 0.0522511,
  "dcmmeta_affine": [
    [-2.4954535961151123, -0.07406338304281235, 0.13124586641788483, 122.51382446289062],
    [-0.06766194105148315, 2.496100664138794, 0.12207943946123123, -98.80907440185547],
    [0.13465780019760132, -0.11830529570579529, 2.4935660362243652, -93.82156372070312],
    [0.0, 0.0, 0.0, 1.0]
],
  "dcmmeta_reorient_transform": [
    [0.0, -1.0, 0.0, 95.0],
    [1.0, 0.0, 0.0, 0.0],
    [0.0, 0.0, 1.0, 0.0],
    [0.0, 0.0, 0.0, 1.0]
],
  "dcmmeta_shape": [96, 96, 56, 280],
  "dcmmeta_slice_dim": 2,
  "dcmmeta_version": 0.6,
  "global": {
    "const": {
      "AccessionNumber": "A000624",
      "AcquisitionMatrix": [96, 0, 0, 96],
      "AngioFlag": "N",
      "BitsAllocated": 16,
      "BitsStored": 12,
      "BodyPartExamined": "BRAIN",
      "Columns": 768,
      "EchoNumbers": 1,
      "EchoTime": 33.0,
      "EchoTrainLength": 96,
      "FlipAngle": 64.0,
      "HighBit": 11,
      "ImageOrientationPatient": [0.99818147759794, 0.02706477677212, 0.0538631194666, -0.0296253540625, 0.99844026137768, 0.04732211805011],
      "ImagePositionPatient": [-929.06494921269, -999.74471859708, -190.05616297698],
      "ImageType": [
        "ORIGINAL",
        "PRIMARY",
        "FMRI",
        "NONE",
        "ND",
        "NORM",
        "MOSAIC"
],
      "ImagedNucleus": "1H",
      "ImagingFrequency": 123.252406,
      "InPlanePhaseEncodingDirection": "COL",
      "MRAcquisitionType": "2D",
      "MagneticFieldStrength": 3.0,
      "Manufacturer": "SIEMENS",
      "ManufacturerModelName": "Prisma",
      "Modality": "MR",
      "NumberOfAverages": 1.0,
      "NumberOfPhaseEncodingSteps": 96,
      "PercentPhaseFieldOfView": 100.0,
      "PercentSampling": 100.0,
      "PerformedProcedureStepStartTime": "095908.147000",
      "PhotometricInterpretation": "MONOCHROME2",
      "PixelBandwidth": 2265.0,
      "PixelRepresentation": 0,
      "PixelSpacing": [2.5, 2.5],
      "PositionReferenceIndicator": "",
      "ProtocolName": "func_run-11_task-fam1back",
      "RepetitionTime": 1250.0,
      "Rows": 768,
      "SAR": 0.05579240200203,
      "SamplesPerPixel": 1,
      "ScanOptions": "FS",
      "ScanningSequence": "EP",
      "SequenceName": "*epfid2d1_96",
      "SequenceVariant": "SK",
      "SeriesDescription": "func_run-11_task-fam1back",
      "SeriesNumber": 78,
      "SeriesTime": "112341.578000",
      "SliceLocation": -91.973348800746,
      "SliceThickness": 2.5,
      "SmallestImagePixelValue": 0,
      "SoftwareVersions": "syngo MR E11",
      "SpacingBetweenSlices": 2.4999999763145,
      "SpecificCharacterSet": "ISO_IR 100",
      "StudyID": "2",
      "StudyTime": "095908.099000",
      "TransmitCoilName": "Body",
      "VariableFlipAngleFlag": "N",
      "WindowCenterWidthExplanation": "Algo1",
      "dBdt": 0.0},
    "slices": {}
  },
  "time": {
    "samples": {
      "AcquisitionNumber": [1, 2, 3, 4, 5, 6, 7, 8, 9, 10, 11, 12, 13, 14, 15, 16, 17, 18, 19, 20, 21, 22, 23, 24, 25, 26, 27, 28, 29, 30, 31, 32, 33, 34, 35, 36, 37, 38, 39, 40, 41, 42, 43, 44, 45, 46, 47, 48, 49, 50, 51, 52, 53, 54, 55, 56, 57, 58, 59, 60, 61, 62, 63, 64, 65, 66, 67, 68, 69, 70, 71, 72, 73, 74, 75, 76, 77, 78, 79, 80, 81, 82, 83, 84, 85, 86, 87, 88, 89, 90, 91, 92, 93, 94, 95, 96, 97, 98, 99, 100, 101, 102, 103, 104, 105, 106, 107, 108, 109, 110, 111, 112, 113, 114, 115, 116, 117, 118, 119, 120, 121, 122, 123, 124, 125, 126, 127, 128, 129, 130, 131, 132, 133, 134, 135, 136, 137, 138, 139, 140, 141, 142, 143, 144, 145, 146, 147, 148, 149, 150, 151, 152, 153, 154, 155, 156, 157, 158, 159, 160, 161, 162, 163, 164, 165, 166, 167, 168, 169, 170, 171, 172, 173, 174, 175, 176, 177, 178, 179, 180, 181, 182, 183, 184, 185, 186, 187, 188, 189, 190, 191, 192, 193, 194, 195, 196, 197, 198, 199, 200, 201, 202, 203, 204, 205, 206, 207, 208, 209, 210, 211, 212, 213, 214, 215, 216, 217, 218, 219, 220, 221, 222, 223, 224, 225, 226, 227, 228, 229, 230, 231, 232, 233, 234, 235, 236, 237, 238, 239, 240, 241, 242, 243, 244, 245, 246, 247, 248, 249, 250, 251, 252, 253, 254, 255, 256, 257, 258, 259, 260, 261, 262, 263, 264, 265, 266, 267, 268, 269, 270, 271, 272, 273, 274, 275, 276, 277, 278, 279, 280],
      "AcquisitionTime": ["112339.657500", "112340.907500", "112342.157500", "112343.407500", "112344.657500", "112345.907500", "112347.157500", "112348.407500", "112349.657500", "112350.907500", "112352.157500", "112353.407500", "112354.657500", "112355.907500", "112357.157500", "112358.407500", "112359.657500", "112400.907500", "112402.157500", "112403.407500", "112404.657500", "112405.907500", "112407.157500", "112408.407500", "112409.657500", "112410.907500", "112412.157500", "112413.407500", "112414.657500", "112415.907500", "112417.157500", "112418.407500", "112419.657500", "112420.907500", "112422.157500", "112423.407500", "112424.657500", "112425.907500", "112427.157500", "112428.407500", "112429.657500", "112430.907500", "112432.157500", "112433.407500", "112434.657500", "112435.907500", "112437.157500", "112438.407500", "112439.657500", "112440.907500", "112442.157500", "112443.407500", "112444.657500", "112445.907500", "112447.157500", "112448.407500", "112449.657500", "112450.907500", "112452.157500", "112453.407500", "112454.657500", "112455.907500", "112457.157500", "112458.407500", "112459.657500", "112500.907500", "112502.157500", "112503.407500", "112504.657500", "112505.907500", "112507.157500", "112508.407500", "112509.657500", "112510.907500", "112512.157500", "112513.407500", "112514.657500", "112515.907500", "112517.157500", "112518.407500", "112519.657500", "112520.907500", "112522.157500", "112523.407500", "112524.657500", "112525.907500", "112527.157500", "112528.407500", "112529.657500", "112530.907500", "112532.157500", "112533.407500", "112534.657500", "112535.907500", "112537.157500", "112538.407500", "112539.657500", "112540.907500", "112542.157500", "112543.407500", "112544.657500", "112545.907500", "112547.157500", "112548.407500", "112549.657500", "112550.907500", "112552.157500", "112553.407500", "112554.657500", "112555.907500", "112557.157500", "112558.407500", "112559.657500", "112600.907500", "112602.157500", "112603.407500", "112604.657500", "112605.907500", "112607.157500", "112608.407500", "112609.657500", "112610.907500", "112612.157500", "112613.407500", "112614.657500", "112615.907500", "112617.157500", "112618.407500", "112619.657500", "112620.907500", "112622.157500", "112623.407500", "112624.657500", "112625.907500", "112627.157500", "112628.407500", "112629.657500", "112630.907500", "112632.157500", "112633.407500", "112634.657500", "112635.907500", "112637.157500", "112638.407500", "112639.657500", "112640.907500", "112642.157500", "112643.407500", "112644.657500", "112645.907500", "112647.157500", "112648.407500", "112649.657500", "112650.907500", "112652.157500", "112653.407500", "112654.657500", "112655.907500", "112657.157500", "112658.407500", "112659.657500", "112700.907500", "112702.157500", "112703.407500", "112704.657500", "112705.907500", "112707.157500", "112708.407500", "112709.657500", "112710.907500", "112712.157500", "112713.407500", "112714.657500", "112715.907500", "112717.157500", "112718.407500", "112719.657500", "112720.907500", "112722.157500", "112723.407500", "112724.657500", "112725.907500", "112727.157500", "112728.407500", "112729.657500", "112730.907500", "112732.157500", "112733.407500", "112734.657500", "112735.907500", "112737.157500", "112738.407500", "112739.657500", "112740.907500", "112742.157500", "112743.407500", "112744.657500", "112745.907500", "112747.157500", "112748.407500", "112749.657500", "112750.907500", "112752.157500", "112753.407500", "112754.657500", "112755.907500", "112757.157500", "112758.407500", "112759.657500", "112800.907500", "112802.157500", "112803.407500", "112804.657500", "112805.907500", "112807.157500", "112808.407500", "112809.657500", "112810.907500", "112812.157500", "112813.407500", "112814.657500", "112815.907500", "112817.157500", "112818.407500", "112819.657500", "112820.907500", "112822.157500", "112823.407500", "112824.657500", "112825.907500", "112827.157500", "112828.407500", "112829.657500", "112830.907500", "112832.157500", "112833.407500", "112834.657500", "112835.907500", "112837.157500", "112838.407500", "112839.657500", "112840.907500", "112842.157500", "112843.407500", "112844.657500", "112845.907500", "112847.157500", "112848.407500", "112849.657500", "112850.907500", "112852.157500", "112853.407500", "112854.657500", "112855.907500", "112857.157500", "112858.407500", "112859.657500", "112900.907500", "112902.157500", "112903.407500", "112904.657500", "112905.907500", "112907.157500", "112908.407500", "112909.657500", "112910.907500", "112912.157500", "112913.407500", "112914.657500", "112915.907500", "112917.157500", "112918.407500", "112919.657500", "112920.907500", "112922.157500", "112923.407500", "112924.657500", "112925.907500", "112927.157500", "112928.407500"],
      "ContentTime": ["112341.582000", "112342.614000", "112343.857000", "112345.091000", "112346.342000", "112347.594000", "112348.851000", "112350.108000", "112351.320000", "112352.631000", "112353.853000", "112355.084000", "112356.371000", "112357.573000", "112358.846000", "112400.085000", "112401.322000", "112402.587000", "112403.847000", "112405.095000", "112406.326000", "112407.610000", "112408.829000", "112410.105000", "112411.326000", "112412.581000", "112413.816000", "112415.078000", "112416.325000", "112417.578000", "112418.804000", "112420.076000", "112421.366000", "112422.586000", "112423.825000", "112425.086000", "112426.348000", "112427.581000", "112428.829000", "112430.071000", "112431.321000", "112432.585000", "112433.852000", "112435.075000", "112436.305000", "112437.608000", "112438.833000", "112440.146000", "112441.352000", "112442.591000", "112443.870000", "112445.074000", "112446.313000", "112447.613000", "112448.834000", "112450.070000", "112451.333000", "112452.595000", "112453.841000", "112455.073000", "112456.305000", "112457.628000", "112458.830000", "112500.075000", "112501.357000", "112502.588000", "112503.871000", "112505.069000", "112506.344000", "112507.575000", "112508.859000", "112510.089000", "112511.352000", "112512.598000", "112513.834000", "112515.099000", "112516.332000", "112517.575000", "112518.851000", "112520.106000", "112521.321000", "112522.564000", "112523.830000", "112525.066000", "112526.346000", "112527.573000", "112528.847000", "112530.091000", "112531.386000", "112532.600000", "112533.833000", "112535.109000", "112536.330000", "112537.618000", "112538.812000", "112540.121000", "112541.397000", "112542.597000", "112543.836000", "112545.116000", "112546.336000", "112547.622000", "112548.874000", "112550.121000", "112551.379000", "112552.544000", "112553.844000", "112555.094000", "112556.306000", "112557.599000", "112558.845000", "112600.084000", "112601.338000", "112602.595000", "112603.834000", "112605.183000", "112606.411000", "112607.608000", "112608.871000", "112610.120000", "112611.348000", "112612.601000", "112613.868000", "112615.077000", "112616.350000", "112617.577000", "112618.822000", "112620.089000", "112621.347000", "112622.604000", "112623.843000", "112625.092000", "112626.356000", "112627.595000", "112628.850000", "112630.075000", "112631.352000", "112632.570000", "112633.828000", "112635.096000", "112636.341000", "112637.623000", "112638.889000", "112640.126000", "112641.326000", "112642.580000", "112643.857000", "112645.085000", "112646.318000", "112647.596000", "112648.932000", "112650.090000", "112651.327000", "112652.576000", "112653.848000", "112655.082000", "112656.335000", "112657.609000", "112658.827000", "112700.088000", "112701.343000", "112702.629000", "112703.855000", "112705.084000", "112706.324000", "112707.630000", "112708.853000", "112710.073000", "112711.345000", "112712.576000", "112713.841000", "112715.105000", "112716.320000", "112717.588000", "112718.927000", "112720.043000", "112721.323000", "112722.622000", "112723.860000", "112725.109000", "112726.341000", "112727.594000", "112728.835000", "112730.082000", "112731.332000", "112732.612000", "112733.833000", "112735.092000", "112736.338000", "112737.604000", "112738.842000", "112740.089000", "112741.342000", "112742.594000", "112743.832000", "112745.094000", "112746.354000", "112747.604000", "112748.880000", "112750.113000", "112751.347000", "112752.586000", "112753.830000", "112755.082000", "112756.322000", "112757.587000", "112758.893000", "112800.072000", "112801.362000", "112802.594000", "112803.854000", "112805.111000", "112806.312000", "112807.580000", "112808.837000", "112810.085000", "112811.341000", "112812.599000", "112813.836000", "112815.108000", "112816.350000", "112817.582000", "112818.806000", "112820.124000", "112821.403000", "112822.608000", "112823.821000", "112825.080000", "112826.375000", "112827.596000", "112828.840000", "112830.092000", "112831.321000", "112832.570000", "112833.843000", "112835.078000", "112836.342000", "112837.579000", "112838.842000", "112840.110000", "112841.358000", "112842.589000", "112843.823000", "112845.087000", "112846.360000", "112847.617000", "112848.840000", "112850.099000", "112851.335000", "112852.597000", "112853.844000", "112855.089000", "112856.346000", "112857.639000", "112858.884000", "112900.158000", "112901.334000", "112902.601000", "112903.874000", "112905.113000", "112906.337000", "112907.602000", "112908.845000", "112910.117000", "112911.349000", "112912.593000", "112913.863000", "112915.073000", "112916.353000", "112917.582000", "112918.865000", "112920.092000", "112921.315000", "112922.597000", "112923.862000", "112925.074000", "112926.376000", "112927.570000", "112928.851000", "112930.111000"],
      "InstanceCreationTime": ["112341.582000", "112342.614000", "112343.857000", "112345.091000", "112346.342000", "112347.594000", "112348.851000", "112350.108000", "112351.320000", "112352.631000", "112353.853000", "112355.084000", "112356.371000", "112357.573000", "112358.846000", "112400.085000", "112401.322000", "112402.587000", "112403.847000", "112405.095000", "112406.326000", "112407.610000", "112408.829000", "112410.105000", "112411.326000", "112412.581000", "112413.816000", "112415.078000", "112416.325000", "112417.578000", "112418.804000", "112420.076000", "112421.366000", "112422.586000", "112423.825000", "112425.086000", "112426.348000", "112427.581000", "112428.829000", "112430.071000", "112431.321000", "112432.585000", "112433.852000", "112435.075000", "112436.305000", "112437.608000", "112438.833000", "112440.146000", "112441.352000", "112442.591000", "112443.870000", "112445.074000", "112446.313000", "112447.613000", "112448.834000", "112450.070000", "112451.333000", "112452.595000", "112453.841000", "112455.073000", "112456.305000", "112457.628000", "112458.830000", "112500.075000", "112501.357000", "112502.588000", "112503.871000", "112505.069000", "112506.344000", "112507.575000", "112508.859000", "112510.089000", "112511.352000", "112512.598000", "112513.834000", "112515.099000", "112516.332000", "112517.575000", "112518.851000", "112520.106000", "112521.321000", "112522.564000", "112523.830000", "112525.066000", "112526.346000", "112527.573000", "112528.847000", "112530.091000", "112531.386000", "112532.600000", "112533.833000", "112535.109000", "112536.330000", "112537.618000", "112538.812000", "112540.121000", "112541.397000", "112542.597000", "112543.836000", "112545.116000", "112546.336000", "112547.622000", "112548.874000", "112550.121000", "112551.379000", "112552.544000", "112553.844000", "112555.094000", "112556.306000", "112557.599000", "112558.845000", "112600.084000", "112601.338000", "112602.595000", "112603.834000", "112605.183000", "112606.411000", "112607.608000", "112608.871000", "112610.120000", "112611.348000", "112612.601000", "112613.868000", "112615.077000", "112616.350000", "112617.577000", "112618.822000", "112620.089000", "112621.347000", "112622.604000", "112623.843000", "112625.092000", "112626.356000", "112627.595000", "112628.850000", "112630.075000", "112631.352000", "112632.570000", "112633.828000", "112635.096000", "112636.341000", "112637.623000", "112638.889000", "112640.126000", "112641.326000", "112642.580000", "112643.857000", "112645.085000", "112646.318000", "112647.596000", "112648.932000", "112650.090000", "112651.327000", "112652.576000", "112653.848000", "112655.082000", "112656.335000", "112657.609000", "112658.827000", "112700.088000", "112701.343000", "112702.629000", "112703.855000", "112705.084000", "112706.324000", "112707.630000", "112708.853000", "112710.073000", "112711.345000", "112712.576000", "112713.841000", "112715.105000", "112716.320000", "112717.588000", "112718.927000", "112720.043000", "112721.323000", "112722.622000", "112723.860000", "112725.109000", "112726.341000", "112727.594000", "112728.835000", "112730.082000", "112731.332000", "112732.612000", "112733.833000", "112735.092000", "112736.338000", "112737.604000", "112738.842000", "112740.089000", "112741.342000", "112742.594000", "112743.832000", "112745.094000", "112746.354000", "112747.604000", "112748.880000", "112750.113000", "112751.347000", "112752.586000", "112753.830000", "112755.082000", "112756.322000", "112757.587000", "112758.893000", "112800.072000", "112801.362000", "112802.594000", "112803.854000", "112805.111000", "112806.312000", "112807.580000", "112808.837000", "112810.085000", "112811.341000", "112812.599000", "112813.836000", "112815.108000", "112816.350000", "112817.582000", "112818.806000", "112820.124000", "112821.403000", "112822.608000", "112823.821000", "112825.080000", "112826.375000", "112827.596000", "112828.840000", "112830.092000", "112831.321000", "112832.570000", "112833.843000", "112835.078000", "112836.342000", "112837.579000", "112838.842000", "112840.110000", "112841.358000", "112842.589000", "112843.823000", "112845.087000", "112846.360000", "112847.617000", "112848.840000", "112850.099000", "112851.335000", "112852.597000", "112853.844000", "112855.089000", "112856.346000", "112857.639000", "112858.884000", "112900.158000", "112901.334000", "112902.601000", "112903.874000", "112905.113000", "112906.337000", "112907.602000", "112908.845000", "112910.117000", "112911.349000", "112912.593000", "112913.863000", "112915.073000", "112916.353000", "112917.582000", "112918.865000", "112920.092000", "112921.315000", "112922.597000", "112923.862000", "112925.074000", "112926.376000", "112927.570000", "112928.851000", "112930.111000"],
      "InstanceNumber": [1, 2, 3, 4, 5, 6, 7, 8, 9, 10, 11, 12, 13, 14, 15, 16, 17, 18, 19, 20, 21, 22, 23, 24, 25, 26, 27, 28, 29, 30, 31, 32, 33, 34, 35, 36, 37, 38, 39, 40, 41, 42, 43, 44, 45, 46, 47, 48, 49, 50, 51, 52, 53, 54, 55, 56, 57, 58, 59, 60, 61, 62, 63, 64, 65, 66, 67, 68, 69, 70, 71, 72, 73, 74, 75, 76, 77, 78, 79, 80, 81, 82, 83, 84, 85, 86, 87, 88, 89, 90, 91, 92, 93, 94, 95, 96, 97, 98, 99, 100, 101, 102, 103, 104, 105, 106, 107, 108, 109, 110, 111, 112, 113, 114, 115, 116, 117, 118, 119, 120, 121, 122, 123, 124, 125, 126, 127, 128, 129, 130, 131, 132, 133, 134, 135, 136, 137, 138, 139, 140, 141, 142, 143, 144, 145, 146, 147, 148, 149, 150, 151, 152, 153, 154, 155, 156, 157, 158, 159, 160, 161, 162, 163, 164, 165, 166, 167, 168, 169, 170, 171, 172, 173, 174, 175, 176, 177, 178, 179, 180, 181, 182, 183, 184, 185, 186, 187, 188, 189, 190, 191, 192, 193, 194, 195, 196, 197, 198, 199, 200, 201, 202, 203, 204, 205, 206, 207, 208, 209, 210, 211, 212, 213, 214, 215, 216, 217, 218, 219, 220, 221, 222, 223, 224, 225, 226, 227, 228, 229, 230, 231, 232, 233, 234, 235, 236, 237, 238, 239, 240, 241, 242, 243, 244, 245, 246, 247, 248, 249, 250, 251, 252, 253, 254, 255, 256, 257, 258, 259, 260, 261, 262, 263, 264, 265, 266, 267, 268, 269, 270, 271, 272, 273, 274, 275, 276, 277, 278, 279, 280],
      "LargestImagePixelValue": [1324, 849, 761, 1044, 747, 1123, 736, 1013, 1234, 768, 736, 902, 739, 752, 823, 738, 732, 867, 747, 778, 1094, 808, 784, 777, 801, 1081, 802, 1073, 761, 866, 795, 842, 1213, 896, 788, 1148, 812, 728, 1014, 756, 1010, 1087, 789, 759, 886, 744, 728, 749, 1006, 785, 731, 854, 1065, 848, 858, 1232, 844, 869, 1195, 853, 860, 869, 1120, 771, 765, 1139, 722, 821, 817, 1128, 793, 749, 1017, 824, 777, 1157, 802, 751, 1120, 757, 952, 967, 958, 790, 1078, 770, 807, 911, 857, 873, 1098, 794, 754, 981, 765, 952, 825, 873, 1052, 1054, 762, 761, 1119, 956, 753, 796, 1001, 728, 818, 975, 920, 780, 1128, 774, 826, 887, 828, 909, 976, 732, 886, 1152, 827, 824, 1083, 837, 780, 787, 817, 748, 824, 998, 925, 760, 930, 1110, 818, 774, 1155, 781, 770, 1117, 774, 817, 908, 847, 832, 929, 777, 1003, 1080, 846, 811, 1201, 824, 722, 898, 961, 750, 735, 1159, 780, 907, 1000, 822, 752, 981, 1083, 765, 813, 845, 1096, 732, 814, 783, 1190, 771, 795, 829, 953, 806, 737, 1046, 1009, 951, 834, 924, 974, 820, 806, 1148, 767, 761, 1085, 804, 842, 952, 1131, 796, 723, 1184, 759, 833, 1077, 805, 810, 1166, 796, 894, 904, 777, 948, 952, 1090, 911, 1069, 1244, 834, 819, 817, 1167, 758, 745, 1001, 732, 951, 905, 813, 1051, 794, 835, 1116, 948, 825, 1306, 853, 752, 808, 936, 780, 841, 1111, 771, 847, 1057, 911, 814, 897, 1086, 785, 858, 1044, 1088, 806, 782, 816, 834, 853, 779, 1301, 844, 934, 871, 1320, 831, 821, 903, 1129, 876, 783, 871, 1285, 1132, 787, 730, 1040, 760, 777, 907, 1021],
      "WindowCenter": [375.0, 369.0, 367.0, 371.0, 368.0, 373.0, 369.0, 371.0, 373.0, 369.0, 368.0, 371.0, 369.0, 369.0, 371.0, 370.0, 370.0, 372.0, 371.0, 372.0, 376.0, 373.0, 372.0, 372.0, 373.0, 376.0, 373.0, 376.0, 373.0, 373.0, 372.0, 374.0, 377.0, 374.0, 372.0, 376.0, 373.0, 371.0, 375.0, 372.0, 375.0, 375.0, 372.0, 371.0, 373.0, 371.0, 371.0, 372.0, 375.0, 372.0, 372.0, 374.0, 376.0, 373.0, 373.0, 377.0, 373.0, 373.0, 376.0, 372.0, 372.0, 372.0, 375.0, 371.0, 371.0, 375.0, 370.0, 372.0, 372.0, 375.0, 372.0, 371.0, 374.0, 372.0, 372.0, 376.0, 372.0, 372.0, 376.0, 372.0, 374.0, 374.0, 374.0, 372.0, 376.0, 372.0, 373.0, 374.0, 374.0, 373.0, 375.0, 372.0, 371.0, 374.0, 372.0, 374.0, 372.0, 373.0, 374.0, 374.0, 371.0, 370.0, 374.0, 373.0, 371.0, 372.0, 375.0, 371.0, 373.0, 375.0, 374.0, 373.0, 376.0, 372.0, 372.0, 373.0, 373.0, 374.0, 375.0, 371.0, 373.0, 375.0, 372.0, 372.0, 374.0, 372.0, 371.0, 371.0, 372.0, 371.0, 372.0, 374.0, 373.0, 371.0, 372.0, 375.0, 372.0, 372.0, 376.0, 372.0, 372.0, 376.0, 372.0, 373.0, 374.0, 374.0, 374.0, 375.0, 373.0, 375.0, 375.0, 372.0, 372.0, 375.0, 372.0, 371.0, 373.0, 374.0, 372.0, 372.0, 376.0, 372.0, 373.0, 374.0, 373.0, 372.0, 374.0, 375.0, 371.0, 372.0, 372.0, 375.0, 370.0, 372.0, 372.0, 376.0, 372.0, 370.0, 372.0, 373.0, 372.0, 372.0, 376.0, 375.0, 374.0, 372.0, 373.0, 374.0, 372.0, 372.0, 376.0, 372.0, 372.0, 375.0, 372.0, 372.0, 373.0, 375.0, 371.0, 370.0, 375.0, 371.0, 372.0, 375.0, 373.0, 373.0, 377.0, 373.0, 375.0, 374.0, 372.0, 375.0, 375.0, 376.0, 373.0, 373.0, 373.0, 369.0, 368.0, 369.0, 373.0, 369.0, 370.0, 373.0, 370.0, 373.0, 373.0, 371.0, 375.0, 371.0, 372.0, 375.0, 373.0, 372.0, 376.0, 372.0, 371.0, 372.0, 374.0, 372.0, 374.0, 377.0, 373.0, 374.0, 376.0, 375.0, 374.0, 375.0, 376.0, 373.0, 373.0, 375.0, 376.0, 372.0, 372.0, 372.0, 373.0, 373.0, 372.0, 377.0, 373.0, 373.0, 372.0, 377.0, 372.0, 372.0, 373.0, 376.0, 374.0, 372.0, 373.0, 376.0, 375.0, 372.0, 371.0, 374.0, 373.0, 373.0, 375.0, 376.0],
      "WindowWidth": [798.0, 789.0, 786.0, 791.0, 788.0, 794.0, 788.0, 792.0, 794.0, 789.0, 788.0, 792.0, 789.0, 790.0, 792.0, 791.0, 792.0, 794.0, 793.0, 795.0, 800.0, 796.0, 794.0, 795.0, 796.0, 800.0, 796.0, 801.0, 796.0, 797.0, 794.0, 797.0, 801.0, 798.0, 795.0, 799.0, 796.0, 794.0, 799.0, 794.0, 798.0, 798.0, 794.0, 793.0, 796.0, 793.0, 793.0, 795.0, 799.0, 795.0, 795.0, 797.0, 800.0, 796.0, 796.0, 801.0, 796.0, 795.0, 799.0, 794.0, 794.0, 794.0, 797.0, 792.0, 793.0, 798.0, 792.0, 794.0, 795.0, 798.0, 794.0, 794.0, 797.0, 795.0, 794.0, 799.0, 795.0, 794.0, 800.0, 794.0, 797.0, 797.0, 796.0, 794.0, 799.0, 795.0, 796.0, 798.0, 797.0, 795.0, 798.0, 794.0, 793.0, 797.0, 794.0, 797.0, 795.0, 795.0, 797.0, 797.0, 792.0, 792.0, 796.0, 795.0, 793.0, 794.0, 798.0, 793.0, 796.0, 798.0, 797.0, 795.0, 799.0, 794.0, 795.0, 796.0, 796.0, 798.0, 798.0, 794.0, 796.0, 799.0, 794.0, 794.0, 797.0, 794.0, 793.0, 793.0, 794.0, 793.0, 795.0, 798.0, 796.0, 792.0, 794.0, 798.0, 794.0, 794.0, 800.0, 795.0, 795.0, 799.0, 795.0, 796.0, 798.0, 797.0, 797.0, 799.0, 796.0, 798.0, 798.0, 794.0, 794.0, 798.0, 794.0, 794.0, 796.0, 798.0, 794.0, 795.0, 800.0, 794.0, 796.0, 798.0, 796.0, 794.0, 798.0, 799.0, 793.0, 794.0, 794.0, 798.0, 792.0, 794.0, 794.0, 800.0, 794.0, 791.0, 794.0, 796.0, 795.0, 795.0, 800.0, 799.0, 797.0, 794.0, 795.0, 796.0, 794.0, 795.0, 799.0, 794.0, 794.0, 799.0, 794.0, 795.0, 796.0, 798.0, 792.0, 792.0, 799.0, 792.0, 795.0, 798.0, 796.0, 796.0, 802.0, 796.0, 799.0, 798.0, 796.0, 799.0, 799.0, 799.0, 795.0, 794.0, 795.0, 789.0, 788.0, 788.0, 794.0, 789.0, 790.0, 795.0, 792.0, 796.0, 795.0, 792.0, 799.0, 793.0, 793.0, 797.0, 795.0, 793.0, 799.0, 794.0, 792.0, 793.0, 797.0, 795.0, 797.0, 802.0, 796.0, 797.0, 800.0, 798.0, 797.0, 799.0, 801.0, 796.0, 797.0, 798.0, 800.0, 794.0, 795.0, 795.0, 796.0, 797.0, 796.0, 802.0, 796.0, 796.0, 794.0, 800.0, 795.0, 795.0, 797.0, 799.0, 797.0, 794.0, 796.0, 800.0, 799.0, 794.0, 794.0, 796.0, 796.0, 797.0, 799.0, 801.0]
    },
    "slices": {}
  }
}