{
  "AcquisitionMatrixPE": 96,
  "AcquisitionNumber": 1,
  "AcquisitionTime": "14:17:49.940000",
  "BandwidthPerPixelPhaseEncode": 18.939,
  "BaseResolution": 96,
  "BodyPartExamined": "BRAIN",
  "ConsistencyInfo": "N4_VE11C_LATEST_20160120",
  "ConversionSoftware": "dcm2niix",
  "ConversionSoftwareVersion": "v1.0.20170923 (OpenJPEG build) GCC6.3.0",
  "DerivedVendorReportedEchoSpacing": 0.000550011,
  "DeviceSerialNumber": "66112",
  "DwellTime": 2.3e-06,
  "EchoTime": 0.033,
  "EchoTrainLength": 96,
  "EffectiveEchoSpacing": 0.000550011,
  "FlipAngle": 64,
  "ImageType": [
    "ORIGINAL",
    "PRIMARY",
    "FMRI",
    "NONE",
    "ND",
    "NORM",
    "MOSAIC"
],
  "InstitutionAddress": "Maynard_3_Hanover_NH_US_03755",
  "InstitutionName": "Dartmouth_College_-_PBS",
  "MagneticFieldStrength": 3,
  "Manufacturer": "Siemens",
  "ManufacturersModelName": "Prisma",
  "Modality": "MR",
  "MultibandAccelerationFactor": 4,
  "PartialFourier": 1,
  "PercentPhaseFOV": 100,
  "PhaseEncodingDirection": "j-",
  "PhaseEncodingSteps": 96,
  "PhaseResolution": 1,
  "ProcedureStepDescription": "Gobbini_Matteo_1017_famface-angles",
  "ProtocolName": "func_run-11_task-str1back",
  "PulseSequenceDetails": "%SiemensSeq%_ep2d_bold",
  "ReceiveCoilActiveElements": "HEA;HEP",
  "ReceiveCoilName": "Head_32",
  "ReconMatrixPE": 96,
  "RepetitionTime": 1.25,
  "ScanOptions": "FS",
  "ScanningSequence": "EP",
  "SequenceName": "_epfid2d1_96",
  "SequenceVariant": "SK",
  "SeriesDescription": "func_run-11_task-str1back",
  "SliceTiming": [0.8775, 0, 0.615, 0.0875, 0.7025, 0.175, 0.79, 0.35, 0.965, 0.44, 1.0525, 0.5275, 1.1425, 0.2625, 0.8775, 0, 0.615, 0.0875, 0.7025, 0.175, 0.79, 0.35, 0.965, 0.44, 1.0525, 0.5275, 1.1425, 0.2625, 0.8775, 0, 0.615, 0.0875, 0.7025, 0.175, 0.79, 0.35, 0.965, 0.44, 1.0525, 0.5275, 1.1425, 0.2625, 0.8775, 0, 0.615, 0.0875, 0.7025, 0.175, 0.79, 0.35, 0.965, 0.44, 1.0525, 0.5275, 1.1425, 0.2625],
  "SoftwareVersions": "syngo_MR_E11",
  "StationName": "AWP66112",
  "TaskName": "str1back",
  "TotalReadoutTime": 0.0522511,
  "dcmmeta_affine": [
    [-2.4951536655426025, 0.061851657927036285, 0.14276832342147827, 115.32459259033203],
    [0.06782371550798416, 2.496931314468384, 0.10360315442085266, -107.43690490722656],
    [0.14002986252307892, -0.10727554559707642, 2.4937689304351807, -63.76443099975586],
    [0.0, 0.0, 0.0, 1.0]
],
  "dcmmeta_reorient_transform": [
    [0.0, -1.0, 0.0, 95.0],
    [1.0, 0.0, 0.0, 0.0],
    [0.0, 0.0, 1.0, 0.0],
    [0.0, 0.0, 0.0, 1.0]
],
  "dcmmeta_shape": [96, 96, 56, 280],
  "dcmmeta_slice_dim": 2,
  "dcmmeta_version": 0.6,
  "global": {
    "const": {
      "AccessionNumber": "A000465",
      "AcquisitionMatrix": [96, 0, 0, 96],
      "AngioFlag": "N",
      "BitsAllocated": 16,
      "BitsStored": 12,
      "BodyPartExamined": "BRAIN",
      "Columns": 768,
      "EchoNumbers": 1,
      "EchoTime": 33.0,
      "EchoTrainLength": 96,
      "FlipAngle": 64.0,
      "HighBit": 11,
      "ImageOrientationPatient": [0.99806144738102, -0.0271294873154, 0.05601194666959, 0.02474066350521, 0.99877255303722, 0.04291021869943],
      "ImagePositionPatient": [-980.35427177015, -945.95175486667, -157.05022824766],
      "ImageType": [
        "ORIGINAL",
        "PRIMARY",
        "FMRI",
        "NONE",
        "ND",
        "NORM",
        "MOSAIC"
],
      "ImagedNucleus": "1H",
      "ImagingFrequency": 123.252363,
      "InPlanePhaseEncodingDirection": "COL",
      "MRAcquisitionType": "2D",
      "MagneticFieldStrength": 3.0,
      "Manufacturer": "SIEMENS",
      "ManufacturerModelName": "Prisma",
      "Modality": "MR",
      "NumberOfAverages": 1.0,
      "NumberOfPhaseEncodingSteps": 96,
      "PercentPhaseFieldOfView": 100.0,
      "PercentSampling": 100.0,
      "PerformedProcedureStepStartTime": "125640.563000",
      "PhotometricInterpretation": "MONOCHROME2",
      "PixelBandwidth": 2265.0,
      "PixelRepresentation": 0,
      "PixelSpacing": [2.5, 2.5],
      "PositionReferenceIndicator": "",
      "ProtocolName": "func_run-11_task-str1back",
      "RepetitionTime": 1250.0,
      "Rows": 768,
      "SAR": 0.04532105511013,
      "SamplesPerPixel": 1,
      "ScanOptions": "FS",
      "ScanningSequence": "EP",
      "SequenceName": "*epfid2d1_96",
      "SequenceVariant": "SK",
      "SeriesDescription": "func_run-11_task-str1back",
      "SeriesNumber": 78,
      "SeriesTime": "141751.609000",
      "SliceLocation": -61.471946402508,
      "SliceThickness": 2.5,
      "SmallestImagePixelValue": 0,
      "SoftwareVersions": "syngo MR E11",
      "SpacingBetweenSlices": 2.4999999815211,
      "SpecificCharacterSet": "ISO_IR 100",
      "StudyID": "1",
      "StudyTime": "125640.491000",
      "TransmitCoilName": "Body",
      "VariableFlipAngleFlag": "N",
      "WindowCenterWidthExplanation": "Algo1",
      "dBdt": 0.0},
    "slices": {}
  },
  "time": {
    "samples": {
      "AcquisitionNumber": [1, 2, 3, 4, 5, 6, 7, 8, 9, 10, 11, 12, 13, 14, 15, 16, 17, 18, 19, 20, 21, 22, 23, 24, 25, 26, 27, 28, 29, 30, 31, 32, 33, 34, 35, 36, 37, 38, 39, 40, 41, 42, 43, 44, 45, 46, 47, 48, 49, 50, 51, 52, 53, 54, 55, 56, 57, 58, 59, 60, 61, 62, 63, 64, 65, 66, 67, 68, 69, 70, 71, 72, 73, 74, 75, 76, 77, 78, 79, 80, 81, 82, 83, 84, 85, 86, 87, 88, 89, 90, 91, 92, 93, 94, 95, 96, 97, 98, 99, 100, 101, 102, 103, 104, 105, 106, 107, 108, 109, 110, 111, 112, 113, 114, 115, 116, 117, 118, 119, 120, 121, 122, 123, 124, 125, 126, 127, 128, 129, 130, 131, 132, 133, 134, 135, 136, 137, 138, 139, 140, 141, 142, 143, 144, 145, 146, 147, 148, 149, 150, 151, 152, 153, 154, 155, 156, 157, 158, 159, 160, 161, 162, 163, 164, 165, 166, 167, 168, 169, 170, 171, 172, 173, 174, 175, 176, 177, 178, 179, 180, 181, 182, 183, 184, 185, 186, 187, 188, 189, 190, 191, 192, 193, 194, 195, 196, 197, 198, 199, 200, 201, 202, 203, 204, 205, 206, 207, 208, 209, 210, 211, 212, 213, 214, 215, 216, 217, 218, 219, 220, 221, 222, 223, 224, 225, 226, 227, 228, 229, 230, 231, 232, 233, 234, 235, 236, 237, 238, 239, 240, 241, 242, 243, 244, 245, 246, 247, 248, 249, 250, 251, 252, 253, 254, 255, 256, 257, 258, 259, 260, 261, 262, 263, 264, 265, 266, 267, 268, 269, 270, 271, 272, 273, 274, 275, 276, 277, 278, 279, 280],
      "AcquisitionTime": ["141749.940000", "141751.190000", "141752.440000", "141753.690000", "141754.940000", "141756.190000", "141757.440000", "141758.690000", "141759.940000", "141801.190000", "141802.440000", "141803.690000", "141804.940000", "141806.190000", "141807.440000", "141808.690000", "141809.940000", "141811.190000", "141812.440000", "141813.690000", "141814.940000", "141816.190000", "141817.440000", "141818.690000", "141819.940000", "141821.190000", "141822.440000", "141823.690000", "141824.940000", "141826.190000", "141827.440000", "141828.690000", "141829.940000", "141831.190000", "141832.440000", "141833.690000", "141834.940000", "141836.190000", "141837.440000", "141838.690000", "141839.940000", "141841.190000", "141842.440000", "141843.690000", "141844.940000", "141846.190000", "141847.440000", "141848.690000", "141849.940000", "141851.190000", "141852.440000", "141853.690000", "141854.940000", "141856.190000", "141857.440000", "141858.690000", "141859.940000", "141901.190000", "141902.440000", "141903.690000", "141904.940000", "141906.190000", "141907.440000", "141908.690000", "141909.940000", "141911.190000", "141912.440000", "141913.690000", "141914.940000", "141916.190000", "141917.440000", "141918.690000", "141919.940000", "141921.190000", "141922.440000", "141923.690000", "141924.940000", "141926.190000", "141927.440000", "141928.690000", "141929.940000", "141931.190000", "141932.440000", "141933.690000", "141934.940000", "141936.190000", "141937.440000", "141938.690000", "141939.940000", "141941.190000", "141942.440000", "141943.690000", "141944.940000", "141946.190000", "141947.440000", "141948.690000", "141949.940000", "141951.190000", "141952.440000", "141953.690000", "141954.940000", "141956.190000", "141957.440000", "141958.690000", "141959.940000", "142001.190000", "142002.440000", "142003.690000", "142004.940000", "142006.190000", "142007.440000", "142008.690000", "142009.940000", "142011.190000", "142012.440000", "142013.690000", "142014.940000", "142016.190000", "142017.440000", "142018.690000", "142019.940000", "142021.190000", "142022.440000", "142023.690000", "142024.940000", "142026.190000", "142027.440000", "142028.690000", "142029.940000", "142031.190000", "142032.440000", "142033.690000", "142034.940000", "142036.190000", "142037.440000", "142038.690000", "142039.940000", "142041.190000", "142042.440000", "142043.690000", "142044.940000", "142046.190000", "142047.440000", "142048.690000", "142049.940000", "142051.190000", "142052.440000", "142053.690000", "142054.940000", "142056.190000", "142057.440000", "142058.690000", "142059.940000", "142101.190000", "142102.440000", "142103.690000", "142104.940000", "142106.190000", "142107.440000", "142108.690000", "142109.940000", "142111.190000", "142112.440000", "142113.690000", "142114.940000", "142116.190000", "142117.440000", "142118.690000", "142119.940000", "142121.190000", "142122.440000", "142123.690000", "142124.940000", "142126.190000", "142127.440000", "142128.690000", "142129.940000", "142131.190000", "142132.440000", "142133.690000", "142134.940000", "142136.190000", "142137.440000", "142138.690000", "142139.940000", "142141.190000", "142142.440000", "142143.690000", "142144.940000", "142146.190000", "142147.440000", "142148.690000", "142149.940000", "142151.190000", "142152.440000", "142153.690000", "142154.940000", "142156.190000", "142157.440000", "142158.690000", "142159.940000", "142201.190000", "142202.440000", "142203.690000", "142204.940000", "142206.190000", "142207.440000", "142208.690000", "142209.940000", "142211.190000", "142212.440000", "142213.690000", "142214.940000", "142216.190000", "142217.440000", "142218.690000", "142219.940000", "142221.190000", "142222.440000", "142223.690000", "142224.940000", "142226.190000", "142227.440000", "142228.690000", "142229.940000", "142231.190000", "142232.440000", "142233.690000", "142234.940000", "142236.190000", "142237.440000", "142238.690000", "142239.940000", "142241.190000", "142242.440000", "142243.690000", "142244.940000", "142246.190000", "142247.440000", "142248.690000", "142249.940000", "142251.190000", "142252.440000", "142253.690000", "142254.940000", "142256.190000", "142257.440000", "142258.690000", "142259.940000", "142301.190000", "142302.440000", "142303.690000", "142304.940000", "142306.190000", "142307.440000", "142308.690000", "142309.940000", "142311.190000", "142312.440000", "142313.690000", "142314.940000", "142316.190000", "142317.440000", "142318.690000", "142319.940000", "142321.190000", "142322.440000", "142323.690000", "142324.940000", "142326.190000", "142327.440000", "142328.690000", "142329.940000", "142331.190000", "142332.440000", "142333.690000", "142334.940000", "142336.190000", "142337.440000", "142338.690000"],
      "ContentTime": ["141751.614000", "141752.708000", "141753.926000", "141755.190000", "141756.442000", "141757.689000", "141758.961000", "141800.241000", "141801.432000", "141802.685000", "141803.938000", "141805.178000", "141806.424000", "141807.679000", "141808.941000", "141810.189000", "141811.443000", "141812.682000", "141813.942000", "141815.207000", "141816.431000", "141817.678000", "141818.940000", "141820.183000", "141821.448000", "141822.770000", "141823.944000", "141825.171000", "141826.445000", "141827.683000", "141828.954000", "141830.195000", "141831.426000", "141832.680000", "141833.973000", "141835.153000", "141836.441000", "141837.690000", "141838.958000", "141840.178000", "141841.441000", "141842.671000", "141843.921000", "141845.182000", "141846.437000", "141847.689000", "141848.927000", "141850.176000", "141851.425000", "141852.675000", "141853.944000", "141855.191000", "141856.450000", "141857.670000", "141858.945000", "141900.236000", "141901.418000", "141902.710000", "141903.935000", "141905.222000", "141906.435000", "141907.704000", "141908.926000", "141910.193000", "141911.462000", "141912.688000", "141913.927000", "141915.183000", "141916.431000", "141917.663000", "141918.937000", "141920.190000", "141921.456000", "141922.666000", "141923.962000", "141925.203000", "141926.457000", "141927.669000", "141928.921000", "141930.218000", "141931.450000", "141932.688000", "141933.956000", "141935.220000", "141936.441000", "141937.667000", "141938.937000", "141940.175000", "141941.424000", "141942.698000", "141943.992000", "141945.177000", "141946.432000", "141947.676000", "141948.929000", "141950.159000", "141951.419000", "141952.685000", "141953.916000", "141955.187000", "141956.455000", "141957.700000", "141958.964000", "142000.191000", "142001.440000", "142002.718000", "142003.951000", "142005.186000", "142006.460000", "142007.730000", "142008.956000", "142010.184000", "142011.463000", "142012.717000", "142014.019000", "142015.229000", "142016.454000", "142017.678000", "142018.938000", "142020.188000", "142021.485000", "142022.686000", "142023.976000", "142025.184000", "142026.453000", "142027.699000", "142028.945000", "142030.213000", "142031.453000", "142032.769000", "142033.988000", "142035.253000", "142036.474000", "142037.681000", "142038.923000", "142040.212000", "142041.474000", "142042.696000", "142043.945000", "142045.203000", "142046.438000", "142047.674000", "142048.943000", "142050.197000", "142051.444000", "142052.678000", "142053.933000", "142055.169000", "142056.426000", "142057.712000", "142058.941000", "142100.153000", "142101.442000", "142102.676000", "142103.950000", "142105.180000", "142106.466000", "142107.710000", "142108.946000", "142110.245000", "142111.472000", "142112.687000", "142113.922000", "142115.185000", "142116.421000", "142117.686000", "142118.948000", "142120.237000", "142121.477000", "142122.694000", "142123.938000", "142125.196000", "142126.418000", "142127.667000", "142128.969000", "142130.252000", "142131.448000", "142132.681000", "142133.947000", "142135.178000", "142136.453000", "142137.694000", "142138.937000", "142140.185000", "142141.446000", "142142.684000", "142143.951000", "142145.191000", "142146.442000", "142147.692000", "142148.928000", "142150.199000", "142151.439000", "142152.678000", "142153.964000", "142155.167000", "142156.447000", "142157.716000", "142158.924000", "142200.224000", "142201.466000", "142202.660000", "142203.931000", "142205.174000", "142206.473000", "142207.702000", "142208.921000", "142210.180000", "142211.457000", "142212.685000", "142213.976000", "142215.219000", "142216.421000", "142217.695000", "142218.919000", "142220.191000", "142221.444000", "142222.675000", "142223.943000", "142225.182000", "142226.479000", "142227.716000", "142228.933000", "142230.189000", "142231.466000", "142232.658000", "142233.966000", "142235.196000", "142236.473000", "142237.683000", "142238.915000", "142240.166000", "142241.446000", "142242.717000", "142244.057000", "142245.192000", "142246.453000", "142247.697000", "142248.935000", "142250.194000", "142251.439000", "142252.671000", "142253.933000", "142255.189000", "142256.437000", "142257.726000", "142258.980000", "142300.201000", "142301.428000", "142302.696000", "142304.018000", "142305.199000", "142306.486000", "142307.740000", "142308.971000", "142310.217000", "142311.467000", "142312.677000", "142313.931000", "142315.193000", "142316.438000", "142317.697000", "142319.032000", "142320.168000", "142321.480000", "142322.707000", "142323.928000", "142325.199000", "142326.454000", "142327.675000", "142328.950000", "142330.207000", "142331.432000", "142332.665000", "142333.948000", "142335.168000", "142336.451000", "142337.676000", "142338.987000", "142340.227000"],
      "InstanceCreationTime": ["141751.614000", "141752.708000", "141753.926000", "141755.190000", "141756.442000", "141757.689000", "141758.961000", "141800.241000", "141801.432000", "141802.685000", "141803.938000", "141805.178000", "141806.424000", "141807.679000", "141808.941000", "141810.189000", "141811.443000", "141812.682000", "141813.942000", "141815.207000", "141816.431000", "141817.678000", "141818.940000", "141820.183000", "141821.448000", "141822.770000", "141823.944000", "141825.171000", "141826.445000", "141827.683000", "141828.954000", "141830.195000", "141831.426000", "141832.680000", "141833.973000", "141835.153000", "141836.441000", "141837.690000", "141838.958000", "141840.178000", "141841.441000", "141842.671000", "141843.921000", "141845.182000", "141846.437000", "141847.689000", "141848.927000", "141850.176000", "141851.425000", "141852.675000", "141853.944000", "141855.191000", "141856.450000", "141857.670000", "141858.945000", "141900.236000", "141901.418000", "141902.710000", "141903.935000", "141905.222000", "141906.435000", "141907.704000", "141908.926000", "141910.193000", "141911.462000", "141912.688000", "141913.927000", "141915.183000", "141916.431000", "141917.663000", "141918.937000", "141920.190000", "141921.456000", "141922.666000", "141923.962000", "141925.203000", "141926.457000", "141927.669000", "141928.921000", "141930.218000", "141931.450000", "141932.688000", "141933.956000", "141935.220000", "141936.441000", "141937.667000", "141938.937000", "141940.175000", "141941.424000", "141942.698000", "141943.992000", "141945.177000", "141946.432000", "141947.676000", "141948.929000", "141950.159000", "141951.419000", "141952.685000", "141953.916000", "141955.187000", "141956.455000", "141957.700000", "141958.964000", "142000.191000", "142001.440000", "142002.718000", "142003.951000", "142005.186000", "142006.460000", "142007.730000", "142008.956000", "142010.184000", "142011.463000", "142012.717000", "142014.019000", "142015.229000", "142016.454000", "142017.678000", "142018.938000", "142020.188000", "142021.485000", "142022.686000", "142023.976000", "142025.184000", "142026.453000", "142027.699000", "142028.945000", "142030.213000", "142031.453000", "142032.769000", "142033.988000", "142035.253000", "142036.474000", "142037.681000", "142038.923000", "142040.212000", "142041.474000", "142042.696000", "142043.945000", "142045.203000", "142046.438000", "142047.674000", "142048.943000", "142050.197000", "142051.444000", "142052.678000", "142053.933000", "142055.169000", "142056.426000", "142057.712000", "142058.941000", "142100.153000", "142101.442000", "142102.676000", "142103.950000", "142105.180000", "142106.466000", "142107.710000", "142108.946000", "142110.245000", "142111.472000", "142112.687000", "142113.922000", "142115.185000", "142116.421000", "142117.686000", "142118.948000", "142120.237000", "142121.477000", "142122.694000", "142123.938000", "142125.196000", "142126.418000", "142127.667000", "142128.969000", "142130.252000", "142131.448000", "142132.681000", "142133.947000", "142135.178000", "142136.453000", "142137.694000", "142138.937000", "142140.185000", "142141.446000", "142142.684000", "142143.951000", "142145.191000", "142146.442000", "142147.692000", "142148.928000", "142150.199000", "142151.439000", "142152.678000", "142153.964000", "142155.167000", "142156.447000", "142157.716000", "142158.924000", "142200.224000", "142201.466000", "142202.660000", "142203.931000", "142205.174000", "142206.473000", "142207.702000", "142208.921000", "142210.180000", "142211.457000", "142212.685000", "142213.976000", "142215.219000", "142216.421000", "142217.695000", "142218.919000", "142220.191000", "142221.444000", "142222.675000", "142223.943000", "142225.182000", "142226.479000", "142227.716000", "142228.933000", "142230.189000", "142231.466000", "142232.658000", "142233.966000", "142235.196000", "142236.473000", "142237.683000", "142238.915000", "142240.166000", "142241.446000", "142242.717000", "142244.057000", "142245.192000", "142246.453000", "142247.697000", "142248.935000", "142250.194000", "142251.439000", "142252.671000", "142253.933000", "142255.189000", "142256.437000", "142257.726000", "142258.980000", "142300.201000", "142301.428000", "142302.696000", "142304.018000", "142305.199000", "142306.486000", "142307.740000", "142308.971000", "142310.217000", "142311.467000", "142312.677000", "142313.931000", "142315.193000", "142316.438000", "142317.697000", "142319.032000", "142320.168000", "142321.480000", "142322.707000", "142323.928000", "142325.199000", "142326.454000", "142327.675000", "142328.950000", "142330.207000", "142331.432000", "142332.665000", "142333.948000", "142335.168000", "142336.451000", "142337.676000", "142338.987000", "142340.227000"],
      "InstanceNumber": [1, 2, 3, 4, 5, 6, 7, 8, 9, 10, 11, 12, 13, 14, 15, 16, 17, 18, 19, 20, 21, 22, 23, 24, 25, 26, 27, 28, 29, 30, 31, 32, 33, 34, 35, 36, 37, 38, 39, 40, 41, 42, 43, 44, 45, 46, 47, 48, 49, 50, 51, 52, 53, 54, 55, 56, 57, 58, 59, 60, 61, 62, 63, 64, 65, 66, 67, 68, 69, 70, 71, 72, 73, 74, 75, 76, 77, 78, 79, 80, 81, 82, 83, 84, 85, 86, 87, 88, 89, 90, 91, 92, 93, 94, 95, 96, 97, 98, 99, 100, 101, 102, 103, 104, 105, 106, 107, 108, 109, 110, 111, 112, 113, 114, 115, 116, 117, 118, 119, 120, 121, 122, 123, 124, 125, 126, 127, 128, 129, 130, 131, 132, 133, 134, 135, 136, 137, 138, 139, 140, 141, 142, 143, 144, 145, 146, 147, 148, 149, 150, 151, 152, 153, 154, 155, 156, 157, 158, 159, 160, 161, 162, 163, 164, 165, 166, 167, 168, 169, 170, 171, 172, 173, 174, 175, 176, 177, 178, 179, 180, 181, 182, 183, 184, 185, 186, 187, 188, 189, 190, 191, 192, 193, 194, 195, 196, 197, 198, 199, 200, 201, 202, 203, 204, 205, 206, 207, 208, 209, 210, 211, 212, 213, 214, 215, 216, 217, 218, 219, 220, 221, 222, 223, 224, 225, 226, 227, 228, 229, 230, 231, 232, 233, 234, 235, 236, 237, 238, 239, 240, 241, 242, 243, 244, 245, 246, 247, 248, 249, 250, 251, 252, 253, 254, 255, 256, 257, 258, 259, 260, 261, 262, 263, 264, 265, 266, 267, 268, 269, 270, 271, 272, 273, 274, 275, 276, 277, 278, 279, 280],
      "LargestImagePixelValue": [894, 991, 742, 933, 1048, 815, 919, 899, 862, 972, 761, 915, 1067, 855, 920, 855, 916, 999, 761, 908, 1013, 854, 973, 866, 866, 957, 783, 874, 1002, 897, 919, 840, 897, 996, 769, 937, 927, 888, 911, 749, 893, 1126, 887, 986, 835, 944, 876, 872, 945, 821, 884, 857, 821, 978, 871, 968, 933, 860, 971, 892, 875, 790, 851, 1032, 818, 948, 841, 933, 1034, 872, 941, 719, 892, 1041, 851, 896, 827, 868, 992, 832, 892, 863, 823, 992, 799, 921, 1088, 883, 966, 754, 852, 981, 764, 885, 1082, 895, 962, 837, 866, 968, 865, 949, 912, 862, 997, 920, 855, 914, 878, 954, 773, 881, 1014, 833, 881, 868, 857, 1015, 734, 902, 955, 839, 1020, 756, 911, 885, 832, 989, 827, 930, 776, 842, 972, 788, 942, 928, 911, 1052, 901, 902, 735, 878, 1032, 826, 1024, 821, 920, 884, 885, 990, 815, 1005, 879, 1001, 751, 920, 853, 891, 903, 876, 1051, 888, 973, 849, 938, 729, 890, 779, 817, 924, 882, 973, 840, 945, 1088, 807, 967, 886, 971, 865, 912, 1097, 901, 974, 739, 846, 965, 810, 988, 792, 871, 964, 900, 869, 932, 808, 971, 852, 862, 926, 840, 997, 901, 875, 764, 875, 1018, 849, 941, 828, 928, 1052, 860, 870, 779, 833, 1037, 738, 932, 1067, 768, 928, 1003, 876, 980, 723, 851, 1037, 786, 942, 934, 900, 1064, 815, 926, 1065, 910, 949, 800, 843, 966, 821, 1006, 807, 848, 973, 740, 880, 1050, 764, 899, 921, 826, 963, 705, 856, 1052, 816, 919, 864, 875, 1021, 719, 923, 962, 833, 1004, 833, 912, 1017, 790, 897, 904, 830, 961, 922, 827, 979, 819, 862],
      "WindowCenter": [345.0, 344.0, 341.0, 343.0, 344.0, 341.0, 343.0, 342.0, 342.0, 344.0, 341.0, 343.0, 344.0, 342.0, 342.0, 342.0, 343.0, 343.0, 340.0, 342.0, 343.0, 341.0, 342.0, 341.0, 341.0, 342.0, 340.0, 342.0, 343.0, 342.0, 342.0, 341.0, 342.0, 343.0, 339.0, 342.0, 342.0, 342.0, 343.0, 340.0, 342.0, 344.0, 342.0, 343.0, 341.0, 342.0, 342.0, 342.0, 342.0, 341.0, 342.0, 342.0, 342.0, 344.0, 342.0, 343.0, 342.0, 341.0, 343.0, 342.0, 342.0, 341.0, 342.0, 345.0, 342.0, 343.0, 342.0, 342.0, 344.0, 342.0, 342.0, 339.0, 342.0, 343.0, 342.0, 342.0, 341.0, 342.0, 343.0, 341.0, 342.0, 342.0, 341.0, 344.0, 341.0, 342.0, 343.0, 342.0, 342.0, 340.0, 342.0, 343.0, 340.0, 342.0, 343.0, 342.0, 342.0, 342.0, 342.0, 343.0, 342.0, 342.0, 342.0, 341.0, 342.0, 342.0, 341.0, 342.0, 342.0, 342.0, 339.0, 341.0, 343.0, 341.0, 342.0, 341.0, 341.0, 343.0, 339.0, 342.0, 342.0, 341.0, 343.0, 339.0, 342.0, 341.0, 341.0, 343.0, 341.0, 342.0, 340.0, 342.0, 343.0, 341.0, 343.0, 342.0, 342.0, 343.0, 342.0, 342.0, 340.0, 342.0, 344.0, 341.0, 343.0, 340.0, 341.0, 341.0, 341.0, 342.0, 341.0, 343.0, 341.0, 343.0, 339.0, 341.0, 341.0, 342.0, 342.0, 341.0, 343.0, 341.0, 342.0, 341.0, 342.0, 339.0, 342.0, 341.0, 342.0, 343.0, 342.0, 343.0, 341.0, 342.0, 343.0, 340.0, 342.0, 342.0, 343.0, 342.0, 342.0, 343.0, 341.0, 342.0, 339.0, 341.0, 343.0, 341.0, 343.0, 340.0, 342.0, 342.0, 342.0, 341.0, 342.0, 341.0, 343.0, 342.0, 342.0, 342.0, 341.0, 343.0, 342.0, 342.0, 341.0, 342.0, 344.0, 342.0, 342.0, 341.0, 342.0, 343.0, 341.0, 342.0, 341.0, 342.0, 344.0, 341.0, 343.0, 343.0, 339.0, 341.0, 342.0, 342.0, 343.0, 339.0, 342.0, 344.0, 341.0, 342.0, 342.0, 342.0, 343.0, 340.0, 342.0, 343.0, 342.0, 342.0, 340.0, 341.0, 343.0, 341.0, 343.0, 340.0, 340.0, 343.0, 340.0, 342.0, 343.0, 339.0, 341.0, 341.0, 340.0, 342.0, 339.0, 342.0, 343.0, 341.0, 342.0, 342.0, 342.0, 343.0, 340.0, 342.0, 343.0, 341.0, 343.0, 341.0, 342.0, 343.0, 340.0, 342.0, 342.0, 341.0, 342.0, 342.0, 341.0, 343.0, 341.0, 342.0],
      "WindowWidth": [738.0, 737.0, 732.0, 735.0, 736.0, 732.0, 734.0, 733.0, 733.0, 735.0, 731.0, 734.0, 735.0, 732.0, 733.0, 733.0, 734.0, 734.0, 730.0, 732.0, 733.0, 731.0, 732.0, 731.0, 731.0, 733.0, 730.0, 732.0, 735.0, 733.0, 733.0, 732.0, 732.0, 733.0, 729.0, 732.0, 732.0, 733.0, 734.0, 730.0, 733.0, 735.0, 732.0, 733.0, 731.0, 732.0, 732.0, 732.0, 732.0, 731.0, 732.0, 732.0, 733.0, 735.0, 733.0, 734.0, 733.0, 731.0, 733.0, 732.0, 732.0, 732.0, 734.0, 737.0, 733.0, 734.0, 733.0, 733.0, 735.0, 732.0, 733.0, 729.0, 733.0, 734.0, 732.0, 733.0, 732.0, 732.0, 733.0, 731.0, 733.0, 732.0, 732.0, 735.0, 731.0, 733.0, 734.0, 732.0, 732.0, 730.0, 732.0, 734.0, 730.0, 732.0, 734.0, 732.0, 732.0, 732.0, 732.0, 733.0, 732.0, 733.0, 732.0, 731.0, 732.0, 731.0, 731.0, 732.0, 732.0, 732.0, 728.0, 731.0, 733.0, 731.0, 732.0, 731.0, 731.0, 734.0, 729.0, 732.0, 733.0, 731.0, 733.0, 729.0, 732.0, 731.0, 731.0, 734.0, 731.0, 733.0, 730.0, 733.0, 734.0, 732.0, 734.0, 733.0, 732.0, 733.0, 732.0, 732.0, 730.0, 733.0, 735.0, 731.0, 733.0, 729.0, 730.0, 731.0, 731.0, 732.0, 730.0, 733.0, 731.0, 733.0, 729.0, 731.0, 730.0, 732.0, 732.0, 731.0, 733.0, 731.0, 732.0, 731.0, 733.0, 728.0, 732.0, 731.0, 733.0, 734.0, 734.0, 734.0, 731.0, 732.0, 734.0, 729.0, 733.0, 732.0, 734.0, 732.0, 732.0, 734.0, 730.0, 732.0, 728.0, 731.0, 734.0, 732.0, 734.0, 730.0, 732.0, 733.0, 732.0, 731.0, 732.0, 730.0, 734.0, 732.0, 732.0, 733.0, 731.0, 733.0, 732.0, 732.0, 731.0, 733.0, 736.0, 733.0, 733.0, 731.0, 733.0, 733.0, 731.0, 732.0, 731.0, 733.0, 736.0, 731.0, 734.0, 734.0, 729.0, 731.0, 732.0, 732.0, 734.0, 729.0, 732.0, 736.0, 731.0, 733.0, 733.0, 732.0, 733.0, 730.0, 731.0, 733.0, 732.0, 732.0, 730.0, 731.0, 734.0, 732.0, 733.0, 730.0, 730.0, 733.0, 730.0, 732.0, 734.0, 728.0, 730.0, 730.0, 729.0, 732.0, 728.0, 732.0, 734.0, 731.0, 733.0, 732.0, 732.0, 733.0, 729.0, 733.0, 733.0, 731.0, 733.0, 731.0, 732.0, 733.0, 730.0, 732.0, 732.0, 731.0, 733.0, 733.0, 730.0, 733.0, 731.0, 732.0]
    },
    "slices": {}
  }
}