{
  "AcquisitionMatrixPE": 96,
  "AcquisitionNumber": 1,
  "AcquisitionTime": "12:09:52.537500",
  "BandwidthPerPixelPhaseEncode": 18.939,
  "BaseResolution": 96,
  "BodyPartExamined": "BRAIN",
  "ConsistencyInfo": "N4_VE11C_LATEST_20160120",
  "ConversionSoftware": "dcm2niix",
  "ConversionSoftwareVersion": "v1.0.20170923 (OpenJPEG build) GCC6.3.0",
  "DerivedVendorReportedEchoSpacing": 0.000550011,
  "DeviceSerialNumber": "66112",
  "DwellTime": 2.3e-06,
  "EchoTime": 0.033,
  "EchoTrainLength": 96,
  "EffectiveEchoSpacing": 0.000550011,
  "FlipAngle": 64,
  "ImageType": [
    "ORIGINAL",
    "PRIMARY",
    "FMRI",
    "NONE",
    "ND",
    "NORM",
    "MOSAIC"
],
  "InstitutionAddress": "Maynard_3_Hanover_NH_US_03755",
  "InstitutionName": "Dartmouth_College_-_PBS",
  "MagneticFieldStrength": 3,
  "Manufacturer": "Siemens",
  "ManufacturersModelName": "Prisma",
  "Modality": "MR",
  "MultibandAccelerationFactor": 4,
  "PartialFourier": 1,
  "PercentPhaseFOV": 100,
  "PhaseEncodingDirection": "j-",
  "PhaseEncodingSteps": 96,
  "PhaseResolution": 1,
  "ProcedureStepDescription": "Gobbini_Matteo_1017_famface-angles",
  "ProtocolName": "func_run-09_task-fam1back",
  "PulseSequenceDetails": "%SiemensSeq%_ep2d_bold",
  "ReceiveCoilActiveElements": "HEA;HEP",
  "ReceiveCoilName": "Head_32",
  "ReconMatrixPE": 96,
  "RepetitionTime": 1.25,
  "ScanOptions": "FS",
  "ScanningSequence": "EP",
  "SequenceName": "_epfid2d1_96",
  "SequenceVariant": "SK",
  "SeriesDescription": "func_run-09_task-fam1back",
  "SliceTiming": [0.8775, 0, 0.615, 0.0875, 0.7025, 0.175, 0.79, 0.35, 0.965, 0.4375, 1.0525, 0.525, 1.14, 0.2625, 0.8775, 0, 0.615, 0.0875, 0.7025, 0.175, 0.79, 0.35, 0.965, 0.4375, 1.0525, 0.525, 1.14, 0.2625, 0.8775, 0, 0.615, 0.0875, 0.7025, 0.175, 0.79, 0.35, 0.965, 0.4375, 1.0525, 0.525, 1.14, 0.2625, 0.8775, 0, 0.615, 0.0875, 0.7025, 0.175, 0.79, 0.35, 0.965, 0.4375, 1.0525, 0.525, 1.14, 0.2625],
  "SoftwareVersions": "syngo_MR_E11",
  "StationName": "AWP66112",
  "TaskName": "fam1back",
  "TotalReadoutTime": 0.0522511,
  "dcmmeta_affine": [
    [-2.498357057571411, -0.08942747116088867, 0.01464470662176609, 124.06893920898438],
    [-0.09003416448831558, 2.4954276084899902, -0.12138944119215012, -93.84109497070312],
    [0.010275701992213726, 0.1218370795249939, 2.4970080852508545, -66.8407974243164],
    [0.0, 0.0, 0.0, 1.0]
],
  "dcmmeta_reorient_transform": [
    [0.0, -1.0, 0.0, 95.0],
    [1.0, 0.0, 0.0, 0.0],
    [0.0, 0.0, 1.0, 0.0],
    [0.0, 0.0, 0.0, 1.0]
],
  "dcmmeta_shape": [96, 96, 56, 280],
  "dcmmeta_slice_dim": 2,
  "dcmmeta_version": 0.6,
  "global": {
    "const": {
      "AccessionNumber": "A000464",
      "AcquisitionMatrix": [96, 0, 0, 96],
      "AngioFlag": "N",
      "BitsAllocated": 16,
      "BitsStored": 12,
      "BodyPartExamined": "BRAIN",
      "Columns": 768,
      "EchoNumbers": 1,
      "EchoTime": 33.0,
      "EchoTrainLength": 96,
      "FlipAngle": 64.0,
      "HighBit": 11,
      "ImageOrientationPatient": [0.9993428448202, 0.03601366545023, 0.00411028071051, -0.0357709898351, 0.99817100358569, -0.0487348323785],
      "ImagePositionPatient": [-924.97368611557, -1011.9396386893, -17.7816538484],
      "ImageType": [
        "ORIGINAL",
        "PRIMARY",
        "FMRI",
        "NONE",
        "ND",
        "NORM",
        "MOSAIC"
],
      "ImagedNucleus": "1H",
      "ImagingFrequency": 123.252368,
      "InPlanePhaseEncodingDirection": "COL",
      "MRAcquisitionType": "2D",
      "MagneticFieldStrength": 3.0,
      "Manufacturer": "SIEMENS",
      "ManufacturerModelName": "Prisma",
      "Modality": "MR",
      "NumberOfAverages": 1.0,
      "NumberOfPhaseEncodingSteps": 96,
      "PercentPhaseFieldOfView": 100.0,
      "PercentSampling": 100.0,
      "PerformedProcedureStepStartTime": "110636.792000",
      "PhotometricInterpretation": "MONOCHROME2",
      "PixelBandwidth": 2265.0,
      "PixelRepresentation": 0,
      "PixelSpacing": [2.5, 2.5],
      "PositionReferenceIndicator": "",
      "ProtocolName": "func_run-09_task-fam1back",
      "RepetitionTime": 1250.0,
      "Rows": 768,
      "SAR": 0.05526851944859,
      "SamplesPerPixel": 1,
      "ScanOptions": "FS",
      "ScanningSequence": "EP",
      "SequenceName": "*epfid2d1_96",
      "SequenceVariant": "SK",
      "SeriesDescription": "func_run-09_task-fam1back",
      "SeriesNumber": 64,
      "SeriesTime": "120954.415000",
      "SliceLocation": -61.477502504174,
      "SliceThickness": 2.5,
      "SmallestImagePixelValue": 0,
      "SoftwareVersions": "syngo MR E11",
      "SpacingBetweenSlices": 2.4999999314296,
      "SpecificCharacterSet": "ISO_IR 100",
      "StudyID": "2",
      "StudyTime": "110636.745000",
      "TransmitCoilName": "Body",
      "VariableFlipAngleFlag": "N",
      "WindowCenterWidthExplanation": "Algo1",
      "dBdt": 0.0},
    "slices": {}
  },
  "time": {
    "samples": {
      "AcquisitionNumber": [1, 2, 3, 4, 5, 6, 7, 8, 9, 10, 11, 12, 13, 14, 15, 16, 17, 18, 19, 20, 21, 22, 23, 24, 25, 26, 27, 28, 29, 30, 31, 32, 33, 34, 35, 36, 37, 38, 39, 40, 41, 42, 43, 44, 45, 46, 47, 48, 49, 50, 51, 52, 53, 54, 55, 56, 57, 58, 59, 60, 61, 62, 63, 64, 65, 66, 67, 68, 69, 70, 71, 72, 73, 74, 75, 76, 77, 78, 79, 80, 81, 82, 83, 84, 85, 86, 87, 88, 89, 90, 91, 92, 93, 94, 95, 96, 97, 98, 99, 100, 101, 102, 103, 104, 105, 106, 107, 108, 109, 110, 111, 112, 113, 114, 115, 116, 117, 118, 119, 120, 121, 122, 123, 124, 125, 126, 127, 128, 129, 130, 131, 132, 133, 134, 135, 136, 137, 138, 139, 140, 141, 142, 143, 144, 145, 146, 147, 148, 149, 150, 151, 152, 153, 154, 155, 156, 157, 158, 159, 160, 161, 162, 163, 164, 165, 166, 167, 168, 169, 170, 171, 172, 173, 174, 175, 176, 177, 178, 179, 180, 181, 182, 183, 184, 185, 186, 187, 188, 189, 190, 191, 192, 193, 194, 195, 196, 197, 198, 199, 200, 201, 202, 203, 204, 205, 206, 207, 208, 209, 210, 211, 212, 213, 214, 215, 216, 217, 218, 219, 220, 221, 222, 223, 224, 225, 226, 227, 228, 229, 230, 231, 232, 233, 234, 235, 236, 237, 238, 239, 240, 241, 242, 243, 244, 245, 246, 247, 248, 249, 250, 251, 252, 253, 254, 255, 256, 257, 258, 259, 260, 261, 262, 263, 264, 265, 266, 267, 268, 269, 270, 271, 272, 273, 274, 275, 276, 277, 278, 279, 280],
      "AcquisitionTime": ["120952.537500", "120953.787500", "120955.037500", "120956.287500", "120957.537500", "120958.787500", "121000.037500", "121001.287500", "121002.537500", "121003.787500", "121005.037500", "121006.287500", "121007.537500", "121008.787500", "121010.037500", "121011.287500", "121012.537500", "121013.787500", "121015.037500", "121016.287500", "121017.537500", "121018.787500", "121020.037500", "121021.287500", "121022.537500", "121023.787500", "121025.037500", "121026.287500", "121027.537500", "121028.787500", "121030.037500", "121031.287500", "121032.537500", "121033.787500", "121035.037500", "121036.287500", "121037.537500", "121038.787500", "121040.037500", "121041.287500", "121042.537500", "121043.787500", "121045.037500", "121046.287500", "121047.537500", "121048.787500", "121050.037500", "121051.287500", "121052.537500", "121053.787500", "121055.037500", "121056.287500", "121057.537500", "121058.787500", "121100.037500", "121101.287500", "121102.537500", "121103.787500", "121105.037500", "121106.287500", "121107.537500", "121108.787500", "121110.037500", "121111.287500", "121112.537500", "121113.787500", "121115.037500", "121116.287500", "121117.537500", "121118.787500", "121120.037500", "121121.287500", "121122.537500", "121123.787500", "121125.037500", "121126.287500", "121127.537500", "121128.787500", "121130.037500", "121131.287500", "121132.537500", "121133.787500", "121135.037500", "121136.287500", "121137.537500", "121138.787500", "121140.037500", "121141.287500", "121142.537500", "121143.787500", "121145.037500", "121146.287500", "121147.537500", "121148.787500", "121150.037500", "121151.287500", "121152.537500", "121153.787500", "121155.037500", "121156.287500", "121157.537500", "121158.787500", "121200.037500", "121201.287500", "121202.537500", "121203.787500", "121205.037500", "121206.287500", "121207.537500", "121208.787500", "121210.037500", "121211.287500", "121212.537500", "121213.787500", "121215.037500", "121216.287500", "121217.537500", "121218.787500", "121220.037500", "121221.287500", "121222.537500", "121223.787500", "121225.037500", "121226.287500", "121227.537500", "121228.787500", "121230.037500", "121231.287500", "121232.537500", "121233.787500", "121235.037500", "121236.287500", "121237.537500", "121238.787500", "121240.037500", "121241.287500", "121242.537500", "121243.787500", "121245.037500", "121246.287500", "121247.537500", "121248.787500", "121250.037500", "121251.287500", "121252.537500", "121253.787500", "121255.037500", "121256.287500", "121257.537500", "121258.787500", "121300.037500", "121301.287500", "121302.537500", "121303.787500", "121305.037500", "121306.287500", "121307.537500", "121308.787500", "121310.037500", "121311.287500", "121312.537500", "121313.787500", "121315.037500", "121316.287500", "121317.537500", "121318.787500", "121320.037500", "121321.287500", "121322.537500", "121323.787500", "121325.037500", "121326.287500", "121327.537500", "121328.787500", "121330.037500", "121331.287500", "121332.537500", "121333.787500", "121335.037500", "121336.287500", "121337.537500", "121338.787500", "121340.037500", "121341.287500", "121342.537500", "121343.787500", "121345.037500", "121346.287500", "121347.537500", "121348.787500", "121350.037500", "121351.287500", "121352.537500", "121353.787500", "121355.037500", "121356.287500", "121357.537500", "121358.787500", "121400.037500", "121401.287500", "121402.537500", "121403.787500", "121405.037500", "121406.287500", "121407.537500", "121408.787500", "121410.037500", "121411.287500", "121412.537500", "121413.787500", "121415.037500", "121416.287500", "121417.537500", "121418.787500", "121420.037500", "121421.287500", "121422.537500", "121423.787500", "121425.037500", "121426.287500", "121427.537500", "121428.787500", "121430.037500", "121431.287500", "121432.537500", "121433.787500", "121435.037500", "121436.287500", "121437.537500", "121438.787500", "121440.037500", "121441.287500", "121442.537500", "121443.787500", "121445.037500", "121446.287500", "121447.537500", "121448.787500", "121450.037500", "121451.287500", "121452.537500", "121453.787500", "121455.037500", "121456.287500", "121457.537500", "121458.787500", "121500.037500", "121501.287500", "121502.537500", "121503.787500", "121505.037500", "121506.287500", "121507.537500", "121508.787500", "121510.037500", "121511.287500", "121512.537500", "121513.787500", "121515.037500", "121516.287500", "121517.537500", "121518.787500", "121520.037500", "121521.287500", "121522.537500", "121523.787500", "121525.037500", "121526.287500", "121527.537500", "121528.787500", "121530.037500", "121531.287500", "121532.537500", "121533.787500", "121535.037500", "121536.287500", "121537.537500", "121538.787500", "121540.037500", "121541.287500"],
      "ContentTime": ["120954.420000", "120955.482000", "120956.729000", "120957.988000", "120959.254000", "121000.457000", "121001.703000", "121002.962000", "121004.215000", "121005.488000", "121006.716000", "121007.967000", "121009.203000", "121010.460000", "121011.707000", "121012.970000", "121014.196000", "121015.471000", "121016.739000", "121017.956000", "121019.233000", "121020.465000", "121021.704000", "121022.942000", "121024.209000", "121025.457000", "121026.722000", "121027.949000", "121029.211000", "121030.455000", "121031.698000", "121032.966000", "121034.210000", "121035.461000", "121036.726000", "121037.951000", "121039.214000", "121040.463000", "121041.695000", "121042.964000", "121044.242000", "121045.471000", "121046.701000", "121047.958000", "121049.212000", "121050.449000", "121051.702000", "121052.957000", "121054.205000", "121055.467000", "121056.721000", "121057.999000", "121059.241000", "121100.451000", "121101.716000", "121102.982000", "121104.184000", "121105.439000", "121106.682000", "121107.954000", "121109.197000", "121110.430000", "121111.702000", "121112.966000", "121114.207000", "121115.469000", "121116.717000", "121117.966000", "121119.229000", "121120.466000", "121121.726000", "121122.965000", "121124.187000", "121125.478000", "121126.708000", "121127.933000", "121129.213000", "121130.470000", "121131.698000", "121132.949000", "121134.213000", "121135.445000", "121136.707000", "121137.969000", "121139.290000", "121140.452000", "121141.700000", "121142.976000", "121144.177000", "121145.437000", "121146.704000", "121148.011000", "121149.219000", "121150.430000", "121151.716000", "121152.973000", "121154.219000", "121155.430000", "121156.742000", "121158.010000", "121159.212000", "121200.483000", "121201.710000", "121202.967000", "121204.235000", "121205.554000", "121206.740000", "121208.005000", "121209.227000", "121210.509000", "121211.734000", "121212.985000", "121214.223000", "121215.437000", "121216.698000", "121217.962000", "121219.212000", "121220.461000", "121221.725000", "121222.979000", "121224.212000", "121225.424000", "121226.729000", "121227.970000", "121229.221000", "121230.527000", "121231.751000", "121232.991000", "121234.228000", "121235.507000", "121236.718000", "121237.963000", "121239.238000", "121240.478000", "121241.708000", "121242.981000", "121244.237000", "121245.454000", "121246.714000", "121247.974000", "121249.203000", "121250.476000", "121251.723000", "121252.962000", "121254.212000", "121255.472000", "121256.735000", "121257.984000", "121259.224000", "121300.496000", "121301.775000", "121303.019000", "121304.225000", "121305.468000", "121306.722000", "121307.978000", "121309.219000", "121310.417000", "121311.800000", "121312.994000", "121314.222000", "121315.490000", "121316.716000", "121317.978000", "121319.217000", "121320.474000", "121321.713000", "121323.002000", "121324.210000", "121325.492000", "121326.743000", "121327.962000", "121329.235000", "121330.459000", "121331.725000", "121332.958000", "121334.235000", "121335.445000", "121336.722000", "121337.968000", "121339.214000", "121340.478000", "121341.740000", "121342.946000", "121344.241000", "121345.474000", "121346.717000", "121347.990000", "121349.202000", "121350.471000", "121351.723000", "121353.005000", "121354.238000", "121355.488000", "121356.699000", "121357.970000", "121359.209000", "121400.459000", "121401.727000", "121402.923000", "121404.218000", "121405.526000", "121406.709000", "121407.958000", "121409.233000", "121410.469000", "121411.764000", "121412.975000", "121414.242000", "121415.484000", "121416.698000", "121417.980000", "121419.213000", "121420.460000", "121421.726000", "121422.965000", "121424.239000", "121425.482000", "121426.709000", "121427.981000", "121429.225000", "121430.471000", "121431.742000", "121432.992000", "121434.237000", "121435.482000", "121436.722000", "121437.963000", "121439.221000", "121440.469000", "121441.702000", "121443.008000", "121444.216000", "121445.491000", "121446.749000", "121447.965000", "121449.211000", "121450.489000", "121451.698000", "121452.961000", "121454.235000", "121455.474000", "121456.712000", "121457.956000", "121459.218000", "121500.455000", "121501.707000", "121502.968000", "121504.202000", "121505.473000", "121506.748000", "121508.003000", "121509.221000", "121510.476000", "121511.725000", "121512.968000", "121514.254000", "121515.447000", "121516.761000", "121518.016000", "121519.235000", "121520.471000", "121521.697000", "121522.971000", "121524.233000", "121525.482000", "121526.710000", "121527.985000", "121529.218000", "121530.442000", "121531.732000", "121532.981000", "121534.196000", "121535.468000", "121536.731000", "121537.981000", "121539.216000", "121540.474000", "121541.735000", "121543.021000"],
      "InstanceCreationTime": ["120954.420000", "120955.482000", "120956.729000", "120957.988000", "120959.254000", "121000.457000", "121001.703000", "121002.962000", "121004.215000", "121005.488000", "121006.716000", "121007.967000", "121009.203000", "121010.460000", "121011.707000", "121012.970000", "121014.196000", "121015.471000", "121016.739000", "121017.956000", "121019.233000", "121020.465000", "121021.704000", "121022.942000", "121024.209000", "121025.457000", "121026.722000", "121027.949000", "121029.211000", "121030.455000", "121031.698000", "121032.966000", "121034.210000", "121035.461000", "121036.726000", "121037.951000", "121039.214000", "121040.463000", "121041.695000", "121042.964000", "121044.242000", "121045.471000", "121046.701000", "121047.958000", "121049.212000", "121050.449000", "121051.702000", "121052.957000", "121054.205000", "121055.467000", "121056.721000", "121057.999000", "121059.241000", "121100.451000", "121101.716000", "121102.982000", "121104.184000", "121105.439000", "121106.682000", "121107.954000", "121109.197000", "121110.430000", "121111.702000", "121112.966000", "121114.207000", "121115.469000", "121116.717000", "121117.966000", "121119.229000", "121120.466000", "121121.726000", "121122.965000", "121124.187000", "121125.478000", "121126.708000", "121127.933000", "121129.213000", "121130.470000", "121131.698000", "121132.949000", "121134.213000", "121135.445000", "121136.707000", "121137.969000", "121139.290000", "121140.452000", "121141.700000", "121142.976000", "121144.177000", "121145.437000", "121146.704000", "121148.011000", "121149.219000", "121150.430000", "121151.716000", "121152.973000", "121154.219000", "121155.430000", "121156.742000", "121158.010000", "121159.212000", "121200.483000", "121201.710000", "121202.967000", "121204.235000", "121205.554000", "121206.740000", "121208.005000", "121209.227000", "121210.509000", "121211.734000", "121212.985000", "121214.223000", "121215.437000", "121216.698000", "121217.962000", "121219.212000", "121220.461000", "121221.725000", "121222.979000", "121224.212000", "121225.424000", "121226.729000", "121227.970000", "121229.221000", "121230.527000", "121231.751000", "121232.991000", "121234.228000", "121235.507000", "121236.718000", "121237.963000", "121239.238000", "121240.478000", "121241.708000", "121242.981000", "121244.237000", "121245.454000", "121246.714000", "121247.974000", "121249.203000", "121250.476000", "121251.723000", "121252.962000", "121254.212000", "121255.472000", "121256.735000", "121257.984000", "121259.224000", "121300.496000", "121301.775000", "121303.019000", "121304.225000", "121305.468000", "121306.722000", "121307.978000", "121309.219000", "121310.417000", "121311.800000", "121312.994000", "121314.222000", "121315.490000", "121316.716000", "121317.978000", "121319.217000", "121320.474000", "121321.713000", "121323.002000", "121324.210000", "121325.492000", "121326.743000", "121327.962000", "121329.235000", "121330.459000", "121331.725000", "121332.958000", "121334.235000", "121335.445000", "121336.722000", "121337.968000", "121339.214000", "121340.478000", "121341.740000", "121342.946000", "121344.241000", "121345.474000", "121346.717000", "121347.990000", "121349.202000", "121350.471000", "121351.723000", "121353.005000", "121354.238000", "121355.488000", "121356.699000", "121357.970000", "121359.209000", "121400.459000", "121401.727000", "121402.923000", "121404.218000", "121405.526000", "121406.709000", "121407.958000", "121409.233000", "121410.469000", "121411.764000", "121412.975000", "121414.242000", "121415.484000", "121416.698000", "121417.980000", "121419.213000", "121420.460000", "121421.726000", "121422.965000", "121424.239000", "121425.482000", "121426.709000", "121427.981000", "121429.225000", "121430.471000", "121431.742000", "121432.992000", "121434.237000", "121435.482000", "121436.722000", "121437.963000", "121439.221000", "121440.469000", "121441.702000", "121443.008000", "121444.216000", "121445.491000", "121446.749000", "121447.965000", "121449.211000", "121450.489000", "121451.698000", "121452.961000", "121454.235000", "121455.474000", "121456.712000", "121457.956000", "121459.218000", "121500.455000", "121501.707000", "121502.968000", "121504.202000", "121505.473000", "121506.748000", "121508.003000", "121509.221000", "121510.476000", "121511.725000", "121512.968000", "121514.254000", "121515.447000", "121516.761000", "121518.016000", "121519.235000", "121520.471000", "121521.697000", "121522.971000", "121524.233000", "121525.482000", "121526.710000", "121527.985000", "121529.218000", "121530.442000", "121531.732000", "121532.981000", "121534.196000", "121535.468000", "121536.731000", "121537.981000", "121539.216000", "121540.474000", "121541.735000", "121543.021000"],
      "InstanceNumber": [1, 2, 3, 4, 5, 6, 7, 8, 9, 10, 11, 12, 13, 14, 15, 16, 17, 18, 19, 20, 21, 22, 23, 24, 25, 26, 27, 28, 29, 30, 31, 32, 33, 34, 35, 36, 37, 38, 39, 40, 41, 42, 43, 44, 45, 46, 47, 48, 49, 50, 51, 52, 53, 54, 55, 56, 57, 58, 59, 60, 61, 62, 63, 64, 65, 66, 67, 68, 69, 70, 71, 72, 73, 74, 75, 76, 77, 78, 79, 80, 81, 82, 83, 84, 85, 86, 87, 88, 89, 90, 91, 92, 93, 94, 95, 96, 97, 98, 99, 100, 101, 102, 103, 104, 105, 106, 107, 108, 109, 110, 111, 112, 113, 114, 115, 116, 117, 118, 119, 120, 121, 122, 123, 124, 125, 126, 127, 128, 129, 130, 131, 132, 133, 134, 135, 136, 137, 138, 139, 140, 141, 142, 143, 144, 145, 146, 147, 148, 149, 150, 151, 152, 153, 154, 155, 156, 157, 158, 159, 160, 161, 162, 163, 164, 165, 166, 167, 168, 169, 170, 171, 172, 173, 174, 175, 176, 177, 178, 179, 180, 181, 182, 183, 184, 185, 186, 187, 188, 189, 190, 191, 192, 193, 194, 195, 196, 197, 198, 199, 200, 201, 202, 203, 204, 205, 206, 207, 208, 209, 210, 211, 212, 213, 214, 215, 216, 217, 218, 219, 220, 221, 222, 223, 224, 225, 226, 227, 228, 229, 230, 231, 232, 233, 234, 235, 236, 237, 238, 239, 240, 241, 242, 243, 244, 245, 246, 247, 248, 249, 250, 251, 252, 253, 254, 255, 256, 257, 258, 259, 260, 261, 262, 263, 264, 265, 266, 267, 268, 269, 270, 271, 272, 273, 274, 275, 276, 277, 278, 279, 280],
      "LargestImagePixelValue": [938, 1002, 1089, 1086, 1139, 1281, 1021, 1278, 1033, 1232, 998, 1054, 1178, 1326, 1051, 847, 1325, 867, 1250, 1011, 1277, 1187, 1074, 1040, 1437, 1067, 879, 1392, 930, 1370, 1029, 911, 1324, 1266, 1296, 890, 1089, 1023, 880, 1347, 1193, 1262, 851, 1259, 1182, 928, 847, 1257, 1027, 1030, 1360, 960, 1318, 1061, 841, 1329, 981, 901, 1398, 983, 1325, 1178, 964, 1374, 954, 892, 1375, 890, 930, 1335, 828, 1321, 1028, 1140, 1341, 1033, 1354, 960, 1217, 1012, 868, 1379, 892, 1219, 1082, 920, 911, 1371, 1113, 1325, 892, 1319, 1033, 1229, 1047, 1131, 1116, 789, 1389, 900, 1315, 1000, 1318, 925, 1305, 991, 1167, 980, 1284, 996, 1313, 980, 1304, 913, 1274, 985, 1306, 1081, 906, 1330, 914, 1354, 983, 1166, 1334, 1132, 902, 850, 1324, 1204, 1261, 1388, 1058, 984, 1275, 857, 1380, 1032, 903, 1262, 865, 1082, 1153, 1230, 1078, 1308, 1052, 1253, 993, 939, 1012, 1327, 1221, 833, 1242, 981, 1382, 1008, 950, 1368, 926, 921, 1176, 1384, 1001, 1073, 1069, 1334, 957, 1077, 1059, 1085, 1339, 916, 1253, 1273, 918, 951, 1336, 1076, 1288, 892, 1271, 979, 1318, 1229, 863, 1334, 906, 1301, 983, 1379, 954, 1063, 1157, 893, 1363, 939, 1284, 891, 1318, 1143, 1303, 932, 1325, 951, 976, 1049, 1360, 993, 1174, 1017, 984, 1186, 1364, 1248, 873, 1363, 920, 871, 1333, 1195, 1327, 895, 1145, 1003, 874, 1375, 1115, 1316, 926, 1467, 1026, 948, 967, 1306, 1417, 966, 1353, 1195, 944, 1287, 1274, 912, 1354, 1127, 1260, 1027, 801, 1363, 898, 1310, 936, 1328, 953, 1048, 1080, 1094, 1328, 973, 1312, 969, 1343, 1036, 1211, 997, 1156, 1301, 924, 1368, 1037, 1334, 956, 1167, 966, 893, 1145, 1339, 1056, 1264],
      "WindowCenter": [384.0, 384.0, 386.0, 387.0, 387.0, 387.0, 385.0, 386.0, 385.0, 386.0, 384.0, 385.0, 386.0, 387.0, 385.0, 383.0, 387.0, 385.0, 389.0, 387.0, 389.0, 387.0, 385.0, 385.0, 387.0, 384.0, 382.0, 387.0, 385.0, 388.0, 386.0, 385.0, 387.0, 387.0, 387.0, 384.0, 386.0, 385.0, 385.0, 388.0, 387.0, 386.0, 383.0, 386.0, 386.0, 384.0, 384.0, 386.0, 384.0, 384.0, 387.0, 384.0, 387.0, 385.0, 383.0, 387.0, 385.0, 384.0, 387.0, 385.0, 386.0, 385.0, 384.0, 386.0, 383.0, 383.0, 387.0, 383.0, 384.0, 387.0, 384.0, 387.0, 385.0, 386.0, 387.0, 385.0, 387.0, 384.0, 386.0, 384.0, 383.0, 387.0, 383.0, 385.0, 385.0, 384.0, 385.0, 388.0, 386.0, 386.0, 383.0, 387.0, 385.0, 386.0, 384.0, 385.0, 384.0, 382.0, 387.0, 384.0, 387.0, 385.0, 386.0, 383.0, 385.0, 384.0, 385.0, 384.0, 386.0, 384.0, 386.0, 384.0, 386.0, 384.0, 387.0, 385.0, 387.0, 385.0, 384.0, 387.0, 384.0, 387.0, 385.0, 386.0, 387.0, 386.0, 384.0, 383.0, 387.0, 386.0, 386.0, 386.0, 384.0, 383.0, 385.0, 382.0, 386.0, 384.0, 384.0, 387.0, 384.0, 387.0, 388.0, 388.0, 386.0, 387.0, 385.0, 386.0, 384.0, 383.0, 385.0, 387.0, 386.0, 384.0, 387.0, 385.0, 387.0, 384.0, 384.0, 387.0, 383.0, 383.0, 385.0, 386.0, 383.0, 384.0, 384.0, 385.0, 383.0, 384.0, 384.0, 385.0, 387.0, 384.0, 387.0, 387.0, 385.0, 386.0, 387.0, 385.0, 386.0, 383.0, 385.0, 384.0, 386.0, 385.0, 383.0, 386.0, 383.0, 386.0, 384.0, 386.0, 383.0, 384.0, 386.0, 383.0, 387.0, 384.0, 386.0, 384.0, 387.0, 385.0, 385.0, 383.0, 386.0, 383.0, 384.0, 385.0, 387.0, 385.0, 386.0, 385.0, 385.0, 386.0, 387.0, 386.0, 383.0, 387.0, 383.0, 383.0, 387.0, 386.0, 386.0, 383.0, 386.0, 385.0, 383.0, 388.0, 385.0, 386.0, 383.0, 387.0, 384.0, 383.0, 384.0, 386.0, 387.0, 384.0, 386.0, 385.0, 383.0, 386.0, 386.0, 384.0, 386.0, 384.0, 385.0, 384.0, 382.0, 386.0, 383.0, 386.0, 383.0, 386.0, 384.0, 384.0, 385.0, 386.0, 387.0, 385.0, 388.0, 385.0, 387.0, 385.0, 386.0, 384.0, 386.0, 386.0, 384.0, 387.0, 385.0, 386.0, 385.0, 386.0, 385.0, 385.0, 386.0, 387.0, 385.0, 387.0],
      "WindowWidth": [817.0, 817.0, 820.0, 821.0, 821.0, 821.0, 818.0, 820.0, 818.0, 820.0, 817.0, 818.0, 819.0, 821.0, 818.0, 815.0, 822.0, 819.0, 824.0, 822.0, 824.0, 821.0, 819.0, 817.0, 820.0, 816.0, 814.0, 821.0, 818.0, 822.0, 820.0, 819.0, 822.0, 821.0, 821.0, 817.0, 820.0, 819.0, 818.0, 822.0, 821.0, 820.0, 815.0, 819.0, 819.0, 817.0, 816.0, 820.0, 817.0, 817.0, 820.0, 817.0, 821.0, 818.0, 816.0, 821.0, 818.0, 817.0, 821.0, 818.0, 820.0, 818.0, 816.0, 819.0, 815.0, 814.0, 820.0, 816.0, 817.0, 821.0, 816.0, 821.0, 819.0, 819.0, 820.0, 818.0, 821.0, 816.0, 820.0, 817.0, 815.0, 820.0, 816.0, 818.0, 818.0, 817.0, 818.0, 823.0, 819.0, 820.0, 816.0, 820.0, 817.0, 819.0, 816.0, 818.0, 817.0, 814.0, 821.0, 817.0, 821.0, 817.0, 820.0, 815.0, 818.0, 816.0, 818.0, 816.0, 819.0, 817.0, 819.0, 816.0, 820.0, 817.0, 821.0, 818.0, 821.0, 819.0, 817.0, 822.0, 817.0, 821.0, 818.0, 819.0, 821.0, 819.0, 817.0, 815.0, 820.0, 819.0, 819.0, 820.0, 816.0, 815.0, 818.0, 813.0, 819.0, 817.0, 817.0, 821.0, 818.0, 821.0, 823.0, 823.0, 820.0, 822.0, 818.0, 819.0, 816.0, 815.0, 817.0, 821.0, 820.0, 817.0, 822.0, 818.0, 820.0, 816.0, 816.0, 820.0, 816.0, 815.0, 818.0, 819.0, 815.0, 816.0, 815.0, 818.0, 814.0, 817.0, 817.0, 818.0, 821.0, 816.0, 821.0, 822.0, 819.0, 821.0, 821.0, 818.0, 819.0, 815.0, 818.0, 816.0, 819.0, 818.0, 814.0, 820.0, 816.0, 819.0, 816.0, 819.0, 815.0, 817.0, 819.0, 816.0, 821.0, 817.0, 820.0, 817.0, 821.0, 818.0, 818.0, 815.0, 819.0, 815.0, 816.0, 817.0, 821.0, 817.0, 819.0, 818.0, 817.0, 819.0, 820.0, 820.0, 816.0, 821.0, 816.0, 816.0, 821.0, 819.0, 819.0, 816.0, 819.0, 818.0, 816.0, 822.0, 819.0, 820.0, 816.0, 820.0, 816.0, 815.0, 816.0, 819.0, 821.0, 817.0, 819.0, 817.0, 815.0, 819.0, 820.0, 817.0, 819.0, 817.0, 818.0, 816.0, 814.0, 819.0, 815.0, 820.0, 815.0, 819.0, 816.0, 817.0, 818.0, 819.0, 821.0, 819.0, 822.0, 818.0, 821.0, 818.0, 819.0, 817.0, 819.0, 820.0, 817.0, 822.0, 818.0, 820.0, 818.0, 819.0, 818.0, 818.0, 820.0, 822.0, 819.0, 821.0]
    },
    "slices": {}
  }
}