{
  "AcquisitionMatrixPE": 96,
  "AcquisitionNumber": 1,
  "AcquisitionTime": "11:30:56.355000",
  "BandwidthPerPixelPhaseEncode": 18.939,
  "BaseResolution": 96,
  "BodyPartExamined": "BRAIN",
  "ConsistencyInfo": "N4_VE11C_LATEST_20160120",
  "ConversionSoftware": "dcm2niix",
  "ConversionSoftwareVersion": "v1.0.20170923 (OpenJPEG build) GCC6.3.0",
  "DerivedVendorReportedEchoSpacing": 0.000550011,
  "DeviceSerialNumber": "66112",
  "DwellTime": 2.3e-06,
  "EchoTime": 0.033,
  "EchoTrainLength": 96,
  "EffectiveEchoSpacing": 0.000550011,
  "FlipAngle": 64,
  "ImageType": [
    "ORIGINAL",
    "PRIMARY",
    "FMRI",
    "NONE",
    "ND",
    "NORM",
    "MOSAIC"
],
  "InstitutionAddress": "Maynard_3_Hanover_NH_US_03755",
  "InstitutionName": "Dartmouth_College_-_PBS",
  "MagneticFieldStrength": 3,
  "Manufacturer": "Siemens",
  "ManufacturersModelName": "Prisma",
  "Modality": "MR",
  "MultibandAccelerationFactor": 4,
  "PartialFourier": 1,
  "PercentPhaseFOV": 100,
  "PhaseEncodingDirection": "j-",
  "PhaseEncodingSteps": 96,
  "PhaseResolution": 1,
  "ProcedureStepDescription": "Gobbini_Matteo_1017_famface-angles",
  "ProtocolName": "func_run-03_task-str1back",
  "PulseSequenceDetails": "%SiemensSeq%_ep2d_bold",
  "ReceiveCoilActiveElements": "HEA;HEP",
  "ReceiveCoilName": "Head_32",
  "ReconMatrixPE": 96,
  "RepetitionTime": 1.25,
  "ScanOptions": "FS",
  "ScanningSequence": "EP",
  "SequenceName": "_epfid2d1_96",
  "SequenceVariant": "SK",
  "SeriesDescription": "func_run-03_task-str1back",
  "SliceTiming": [0.88, 0, 0.615, 0.0875, 0.7025, 0.175, 0.79, 0.3525, 0.9675, 0.44, 1.055, 0.5275, 1.1425, 0.265, 0.88, 0, 0.615, 0.0875, 0.7025, 0.175, 0.79, 0.3525, 0.9675, 0.44, 1.055, 0.5275, 1.1425, 0.265, 0.88, 0, 0.615, 0.0875, 0.7025, 0.175, 0.79, 0.3525, 0.9675, 0.44, 1.055, 0.5275, 1.1425, 0.265, 0.88, 0, 0.615, 0.0875, 0.7025, 0.175, 0.79, 0.3525, 0.9675, 0.44, 1.055, 0.5275, 1.1425, 0.265],
  "SoftwareVersions": "syngo_MR_E11",
  "StationName": "AWP66112",
  "TaskName": "str1back",
  "TotalReadoutTime": 0.0522511,
  "dcmmeta_affine": [
    [-2.498357057571411, -0.08942747116088867, 0.01464470662176609, 124.06893920898438],
    [-0.09003416448831558, 2.4954276084899902, -0.12138944119215012, -93.84109497070312],
    [0.010275701992213726, 0.1218370795249939, 2.4970080852508545, -66.8407974243164],
    [0.0, 0.0, 0.0, 1.0]
],
  "dcmmeta_reorient_transform": [
    [0.0, -1.0, 0.0, 95.0],
    [1.0, 0.0, 0.0, 0.0],
    [0.0, 0.0, 1.0, 0.0],
    [0.0, 0.0, 0.0, 1.0]
],
  "dcmmeta_shape": [96, 96, 56, 280],
  "dcmmeta_slice_dim": 2,
  "dcmmeta_version": 0.6,
  "global": {
    "const": {
      "AccessionNumber": "A000464",
      "AcquisitionMatrix": [96, 0, 0, 96],
      "AngioFlag": "N",
      "BitsAllocated": 16,
      "BitsStored": 12,
      "BodyPartExamined": "BRAIN",
      "Columns": 768,
      "EchoNumbers": 1,
      "EchoTime": 33.0,
      "EchoTrainLength": 96,
      "FlipAngle": 64.0,
      "HighBit": 11,
      "ImageOrientationPatient": [0.9993428448202, 0.03601366545023, 0.00411028071051, -0.0357709898351, 0.99817100358569, -0.0487348323785],
      "ImagePositionPatient": [-924.97368611557, -1011.9396386893, -17.7816538484],
      "ImageType": [
        "ORIGINAL",
        "PRIMARY",
        "FMRI",
        "NONE",
        "ND",
        "NORM",
        "MOSAIC"
],
      "ImagedNucleus": "1H",
      "ImagingFrequency": 123.252365,
      "InPlanePhaseEncodingDirection": "COL",
      "MRAcquisitionType": "2D",
      "MagneticFieldStrength": 3.0,
      "Manufacturer": "SIEMENS",
      "ManufacturerModelName": "Prisma",
      "Modality": "MR",
      "NumberOfAverages": 1.0,
      "NumberOfPhaseEncodingSteps": 96,
      "PercentPhaseFieldOfView": 100.0,
      "PercentSampling": 100.0,
      "PerformedProcedureStepStartTime": "110636.792000",
      "PhotometricInterpretation": "MONOCHROME2",
      "PixelBandwidth": 2265.0,
      "PixelRepresentation": 0,
      "PixelSpacing": [2.5, 2.5],
      "PositionReferenceIndicator": "",
      "ProtocolName": "func_run-03_task-str1back",
      "RepetitionTime": 1250.0,
      "Rows": 768,
      "SAR": 0.05526851944859,
      "SamplesPerPixel": 1,
      "ScanOptions": "FS",
      "ScanningSequence": "EP",
      "SequenceName": "*epfid2d1_96",
      "SequenceVariant": "SK",
      "SeriesDescription": "func_run-03_task-str1back",
      "SeriesNumber": 22,
      "SeriesTime": "113057.591000",
      "SliceLocation": -61.477502504174,
      "SliceThickness": 2.5,
      "SmallestImagePixelValue": 0,
      "SoftwareVersions": "syngo MR E11",
      "SpacingBetweenSlices": 2.4999999314296,
      "SpecificCharacterSet": "ISO_IR 100",
      "StudyID": "2",
      "StudyTime": "110636.745000",
      "TransmitCoilName": "Body",
      "VariableFlipAngleFlag": "N",
      "WindowCenterWidthExplanation": "Algo1",
      "dBdt": 0.0},
    "slices": {}
  },
  "time": {
    "samples": {
      "AcquisitionNumber": [1, 2, 3, 4, 5, 6, 7, 8, 9, 10, 11, 12, 13, 14, 15, 16, 17, 18, 19, 20, 21, 22, 23, 24, 25, 26, 27, 28, 29, 30, 31, 32, 33, 34, 35, 36, 37, 38, 39, 40, 41, 42, 43, 44, 45, 46, 47, 48, 49, 50, 51, 52, 53, 54, 55, 56, 57, 58, 59, 60, 61, 62, 63, 64, 65, 66, 67, 68, 69, 70, 71, 72, 73, 74, 75, 76, 77, 78, 79, 80, 81, 82, 83, 84, 85, 86, 87, 88, 89, 90, 91, 92, 93, 94, 95, 96, 97, 98, 99, 100, 101, 102, 103, 104, 105, 106, 107, 108, 109, 110, 111, 112, 113, 114, 115, 116, 117, 118, 119, 120, 121, 122, 123, 124, 125, 126, 127, 128, 129, 130, 131, 132, 133, 134, 135, 136, 137, 138, 139, 140, 141, 142, 143, 144, 145, 146, 147, 148, 149, 150, 151, 152, 153, 154, 155, 156, 157, 158, 159, 160, 161, 162, 163, 164, 165, 166, 167, 168, 169, 170, 171, 172, 173, 174, 175, 176, 177, 178, 179, 180, 181, 182, 183, 184, 185, 186, 187, 188, 189, 190, 191, 192, 193, 194, 195, 196, 197, 198, 199, 200, 201, 202, 203, 204, 205, 206, 207, 208, 209, 210, 211, 212, 213, 214, 215, 216, 217, 218, 219, 220, 221, 222, 223, 224, 225, 226, 227, 228, 229, 230, 231, 232, 233, 234, 235, 236, 237, 238, 239, 240, 241, 242, 243, 244, 245, 246, 247, 248, 249, 250, 251, 252, 253, 254, 255, 256, 257, 258, 259, 260, 261, 262, 263, 264, 265, 266, 267, 268, 269, 270, 271, 272, 273, 274, 275, 276, 277, 278, 279, 280],
      "AcquisitionTime": ["113056.355000", "113057.605000", "113058.855000", "113100.105000", "113101.355000", "113102.605000", "113103.855000", "113105.105000", "113106.355000", "113107.605000", "113108.855000", "113110.105000", "113111.355000", "113112.605000", "113113.855000", "113115.105000", "113116.355000", "113117.605000", "113118.855000", "113120.105000", "113121.355000", "113122.605000", "113123.855000", "113125.105000", "113126.355000", "113127.605000", "113128.855000", "113130.105000", "113131.355000", "113132.605000", "113133.855000", "113135.105000", "113136.355000", "113137.605000", "113138.855000", "113140.105000", "113141.355000", "113142.605000", "113143.855000", "113145.105000", "113146.355000", "113147.605000", "113148.855000", "113150.105000", "113151.355000", "113152.605000", "113153.855000", "113155.105000", "113156.355000", "113157.605000", "113158.855000", "113200.105000", "113201.355000", "113202.605000", "113203.855000", "113205.105000", "113206.355000", "113207.605000", "113208.855000", "113210.105000", "113211.355000", "113212.605000", "113213.855000", "113215.105000", "113216.355000", "113217.605000", "113218.855000", "113220.105000", "113221.355000", "113222.605000", "113223.855000", "113225.105000", "113226.355000", "113227.605000", "113228.855000", "113230.105000", "113231.355000", "113232.605000", "113233.855000", "113235.105000", "113236.355000", "113237.605000", "113238.855000", "113240.105000", "113241.355000", "113242.605000", "113243.855000", "113245.105000", "113246.355000", "113247.605000", "113248.855000", "113250.105000", "113251.355000", "113252.605000", "113253.855000", "113255.105000", "113256.355000", "113257.605000", "113258.855000", "113300.105000", "113301.355000", "113302.605000", "113303.855000", "113305.105000", "113306.355000", "113307.605000", "113308.855000", "113310.105000", "113311.355000", "113312.605000", "113313.855000", "113315.105000", "113316.355000", "113317.605000", "113318.855000", "113320.105000", "113321.355000", "113322.605000", "113323.855000", "113325.105000", "113326.355000", "113327.605000", "113328.855000", "113330.105000", "113331.355000", "113332.605000", "113333.855000", "113335.105000", "113336.355000", "113337.605000", "113338.855000", "113340.105000", "113341.355000", "113342.605000", "113343.855000", "113345.105000", "113346.355000", "113347.605000", "113348.855000", "113350.105000", "113351.355000", "113352.605000", "113353.855000", "113355.105000", "113356.355000", "113357.605000", "113358.855000", "113400.105000", "113401.355000", "113402.605000", "113403.855000", "113405.105000", "113406.355000", "113407.605000", "113408.855000", "113410.105000", "113411.355000", "113412.605000", "113413.855000", "113415.105000", "113416.355000", "113417.605000", "113418.855000", "113420.105000", "113421.355000", "113422.605000", "113423.855000", "113425.105000", "113426.355000", "113427.605000", "113428.855000", "113430.105000", "113431.355000", "113432.605000", "113433.855000", "113435.105000", "113436.355000", "113437.605000", "113438.855000", "113440.105000", "113441.355000", "113442.605000", "113443.855000", "113445.105000", "113446.355000", "113447.605000", "113448.855000", "113450.105000", "113451.355000", "113452.605000", "113453.855000", "113455.105000", "113456.355000", "113457.605000", "113458.855000", "113500.105000", "113501.355000", "113502.605000", "113503.855000", "113505.105000", "113506.355000", "113507.605000", "113508.855000", "113510.105000", "113511.355000", "113512.605000", "113513.855000", "113515.105000", "113516.355000", "113517.605000", "113518.855000", "113520.105000", "113521.355000", "113522.605000", "113523.855000", "113525.105000", "113526.355000", "113527.605000", "113528.855000", "113530.105000", "113531.355000", "113532.605000", "113533.855000", "113535.105000", "113536.355000", "113537.605000", "113538.855000", "113540.105000", "113541.355000", "113542.605000", "113543.855000", "113545.105000", "113546.355000", "113547.605000", "113548.855000", "113550.105000", "113551.355000", "113552.605000", "113553.855000", "113555.105000", "113556.355000", "113557.605000", "113558.855000", "113600.105000", "113601.355000", "113602.605000", "113603.855000", "113605.105000", "113606.355000", "113607.605000", "113608.855000", "113610.105000", "113611.355000", "113612.605000", "113613.855000", "113615.105000", "113616.355000", "113617.605000", "113618.855000", "113620.105000", "113621.355000", "113622.605000", "113623.855000", "113625.105000", "113626.355000", "113627.605000", "113628.855000", "113630.105000", "113631.355000", "113632.605000", "113633.855000", "113635.105000", "113636.355000", "113637.605000", "113638.855000", "113640.105000", "113641.355000", "113642.605000", "113643.855000", "113645.105000"],
      "ContentTime": ["113057.595000", "113058.644000", "113059.874000", "113101.183000", "113102.420000", "113103.648000", "113104.898000", "113106.167000", "113107.417000", "113108.735000", "113109.938000", "113111.144000", "113112.429000", "113113.629000", "113114.972000", "113116.132000", "113117.422000", "113118.642000", "113119.933000", "113121.167000", "113122.379000", "113123.634000", "113124.916000", "113126.136000", "113127.387000", "113128.646000", "113129.864000", "113131.149000", "113132.415000", "113133.647000", "113134.919000", "113136.166000", "113137.391000", "113138.631000", "113139.900000", "113141.146000", "113142.401000", "113143.661000", "113144.937000", "113146.160000", "113147.381000", "113148.657000", "113149.939000", "113151.129000", "113152.394000", "113153.630000", "113154.914000", "113156.147000", "113157.397000", "113158.674000", "113159.898000", "113201.129000", "113202.374000", "113203.645000", "113204.908000", "113206.120000", "113207.385000", "113208.635000", "113209.882000", "113211.163000", "113212.386000", "113213.642000", "113214.870000", "113216.140000", "113217.393000", "113218.653000", "113219.915000", "113221.154000", "113222.404000", "113223.673000", "113224.927000", "113226.152000", "113227.426000", "113228.632000", "113229.901000", "113231.151000", "113232.434000", "113233.642000", "113234.899000", "113236.130000", "113237.381000", "113238.654000", "113239.902000", "113241.154000", "113242.387000", "113243.625000", "113244.893000", "113246.125000", "113247.370000", "113248.627000", "113249.874000", "113251.137000", "113252.406000", "113253.677000", "113254.883000", "113256.128000", "113257.370000", "113258.638000", "113259.865000", "113301.126000", "113302.390000", "113303.629000", "113304.897000", "113306.159000", "113307.387000", "113308.630000", "113309.888000", "113311.155000", "113312.388000", "113313.647000", "113314.908000", "113316.126000", "113317.426000", "113318.677000", "113319.887000", "113321.152000", "113322.402000", "113323.652000", "113324.903000", "113326.157000", "113327.401000", "113328.599000", "113329.908000", "113331.159000", "113332.387000", "113333.653000", "113334.915000", "113336.157000", "113337.398000", "113338.652000", "113339.882000", "113341.136000", "113342.391000", "113343.658000", "113344.888000", "113346.155000", "113347.398000", "113348.663000", "113349.895000", "113351.155000", "113352.392000", "113353.648000", "113354.909000", "113356.146000", "113357.383000", "113358.628000", "113359.896000", "113401.146000", "113402.397000", "113403.627000", "113404.948000", "113406.141000", "113407.417000", "113408.686000", "113409.884000", "113411.165000", "113412.377000", "113413.651000", "113414.885000", "113416.149000", "113417.408000", "113418.657000", "113419.878000", "113421.131000", "113422.373000", "113423.640000", "113424.898000", "113426.117000", "113427.382000", "113428.659000", "113429.862000", "113431.150000", "113432.416000", "113433.633000", "113434.884000", "113436.157000", "113437.405000", "113438.664000", "113439.923000", "113441.189000", "113442.401000", "113443.712000", "113444.904000", "113446.153000", "113447.388000", "113448.625000", "113449.870000", "113451.126000", "113452.381000", "113453.643000", "113454.883000", "113456.133000", "113457.373000", "113458.643000", "113459.894000", "113501.140000", "113502.390000", "113503.624000", "113504.895000", "113506.124000", "113507.375000", "113508.651000", "113509.885000", "113511.177000", "113512.402000", "113513.671000", "113514.875000", "113516.125000", "113517.397000", "113518.644000", "113519.909000", "113521.204000", "113522.412000", "113523.642000", "113524.886000", "113526.125000", "113527.382000", "113528.623000", "113529.900000", "113531.108000", "113532.409000", "113533.655000", "113534.917000", "113536.133000", "113537.396000", "113538.675000", "113539.932000", "113541.140000", "113542.429000", "113543.665000", "113544.924000", "113546.133000", "113547.404000", "113548.637000", "113549.914000", "113551.131000", "113552.367000", "113553.629000", "113554.909000", "113556.151000", "113557.406000", "113558.646000", "113559.881000", "113601.133000", "113602.394000", "113603.688000", "113604.934000", "113606.129000", "113607.381000", "113608.654000", "113609.914000", "113611.126000", "113612.400000", "113613.659000", "113614.874000", "113616.156000", "113617.418000", "113618.639000", "113619.875000", "113621.159000", "113622.383000", "113623.650000", "113624.895000", "113626.142000", "113627.411000", "113628.661000", "113629.897000", "113631.177000", "113632.398000", "113633.654000", "113634.908000", "113636.150000", "113637.399000", "113638.668000", "113639.903000", "113641.136000", "113642.406000", "113643.700000", "113644.889000", "113646.191000"],
      "InstanceCreationTime": ["113057.595000", "113058.644000", "113059.874000", "113101.183000", "113102.420000", "113103.648000", "113104.898000", "113106.167000", "113107.417000", "113108.735000", "113109.938000", "113111.144000", "113112.429000", "113113.629000", "113114.972000", "113116.132000", "113117.422000", "113118.642000", "113119.933000", "113121.167000", "113122.379000", "113123.634000", "113124.916000", "113126.136000", "113127.387000", "113128.646000", "113129.864000", "113131.149000", "113132.415000", "113133.647000", "113134.919000", "113136.166000", "113137.391000", "113138.631000", "113139.900000", "113141.146000", "113142.401000", "113143.661000", "113144.937000", "113146.160000", "113147.381000", "113148.657000", "113149.939000", "113151.129000", "113152.394000", "113153.630000", "113154.914000", "113156.147000", "113157.397000", "113158.674000", "113159.898000", "113201.129000", "113202.374000", "113203.645000", "113204.908000", "113206.120000", "113207.385000", "113208.635000", "113209.882000", "113211.163000", "113212.386000", "113213.642000", "113214.870000", "113216.140000", "113217.393000", "113218.653000", "113219.915000", "113221.154000", "113222.404000", "113223.673000", "113224.927000", "113226.152000", "113227.426000", "113228.632000", "113229.901000", "113231.151000", "113232.434000", "113233.642000", "113234.899000", "113236.130000", "113237.381000", "113238.654000", "113239.902000", "113241.154000", "113242.387000", "113243.625000", "113244.893000", "113246.125000", "113247.370000", "113248.627000", "113249.874000", "113251.137000", "113252.406000", "113253.677000", "113254.883000", "113256.128000", "113257.370000", "113258.638000", "113259.865000", "113301.126000", "113302.390000", "113303.629000", "113304.897000", "113306.159000", "113307.387000", "113308.630000", "113309.888000", "113311.155000", "113312.388000", "113313.647000", "113314.908000", "113316.126000", "113317.426000", "113318.677000", "113319.887000", "113321.152000", "113322.402000", "113323.652000", "113324.903000", "113326.157000", "113327.401000", "113328.599000", "113329.908000", "113331.159000", "113332.387000", "113333.653000", "113334.915000", "113336.157000", "113337.398000", "113338.652000", "113339.882000", "113341.136000", "113342.391000", "113343.658000", "113344.888000", "113346.155000", "113347.398000", "113348.663000", "113349.895000", "113351.155000", "113352.392000", "113353.648000", "113354.909000", "113356.146000", "113357.383000", "113358.628000", "113359.896000", "113401.146000", "113402.397000", "113403.627000", "113404.948000", "113406.141000", "113407.417000", "113408.686000", "113409.884000", "113411.165000", "113412.377000", "113413.651000", "113414.885000", "113416.149000", "113417.408000", "113418.657000", "113419.878000", "113421.131000", "113422.373000", "113423.640000", "113424.898000", "113426.117000", "113427.382000", "113428.659000", "113429.862000", "113431.150000", "113432.416000", "113433.633000", "113434.884000", "113436.157000", "113437.405000", "113438.664000", "113439.923000", "113441.189000", "113442.401000", "113443.712000", "113444.904000", "113446.153000", "113447.388000", "113448.625000", "113449.870000", "113451.126000", "113452.381000", "113453.643000", "113454.883000", "113456.133000", "113457.373000", "113458.643000", "113459.894000", "113501.140000", "113502.390000", "113503.624000", "113504.895000", "113506.124000", "113507.375000", "113508.651000", "113509.885000", "113511.177000", "113512.402000", "113513.671000", "113514.875000", "113516.125000", "113517.397000", "113518.644000", "113519.909000", "113521.204000", "113522.412000", "113523.642000", "113524.886000", "113526.125000", "113527.382000", "113528.623000", "113529.900000", "113531.108000", "113532.409000", "113533.655000", "113534.917000", "113536.133000", "113537.396000", "113538.675000", "113539.932000", "113541.140000", "113542.429000", "113543.665000", "113544.924000", "113546.133000", "113547.404000", "113548.637000", "113549.914000", "113551.131000", "113552.367000", "113553.629000", "113554.909000", "113556.151000", "113557.406000", "113558.646000", "113559.881000", "113601.133000", "113602.394000", "113603.688000", "113604.934000", "113606.129000", "113607.381000", "113608.654000", "113609.914000", "113611.126000", "113612.400000", "113613.659000", "113614.874000", "113616.156000", "113617.418000", "113618.639000", "113619.875000", "113621.159000", "113622.383000", "113623.650000", "113624.895000", "113626.142000", "113627.411000", "113628.661000", "113629.897000", "113631.177000", "113632.398000", "113633.654000", "113634.908000", "113636.150000", "113637.399000", "113638.668000", "113639.903000", "113641.136000", "113642.406000", "113643.700000", "113644.889000", "113646.191000"],
      "InstanceNumber": [1, 2, 3, 4, 5, 6, 7, 8, 9, 10, 11, 12, 13, 14, 15, 16, 17, 18, 19, 20, 21, 22, 23, 24, 25, 26, 27, 28, 29, 30, 31, 32, 33, 34, 35, 36, 37, 38, 39, 40, 41, 42, 43, 44, 45, 46, 47, 48, 49, 50, 51, 52, 53, 54, 55, 56, 57, 58, 59, 60, 61, 62, 63, 64, 65, 66, 67, 68, 69, 70, 71, 72, 73, 74, 75, 76, 77, 78, 79, 80, 81, 82, 83, 84, 85, 86, 87, 88, 89, 90, 91, 92, 93, 94, 95, 96, 97, 98, 99, 100, 101, 102, 103, 104, 105, 106, 107, 108, 109, 110, 111, 112, 113, 114, 115, 116, 117, 118, 119, 120, 121, 122, 123, 124, 125, 126, 127, 128, 129, 130, 131, 132, 133, 134, 135, 136, 137, 138, 139, 140, 141, 142, 143, 144, 145, 146, 147, 148, 149, 150, 151, 152, 153, 154, 155, 156, 157, 158, 159, 160, 161, 162, 163, 164, 165, 166, 167, 168, 169, 170, 171, 172, 173, 174, 175, 176, 177, 178, 179, 180, 181, 182, 183, 184, 185, 186, 187, 188, 189, 190, 191, 192, 193, 194, 195, 196, 197, 198, 199, 200, 201, 202, 203, 204, 205, 206, 207, 208, 209, 210, 211, 212, 213, 214, 215, 216, 217, 218, 219, 220, 221, 222, 223, 224, 225, 226, 227, 228, 229, 230, 231, 232, 233, 234, 235, 236, 237, 238, 239, 240, 241, 242, 243, 244, 245, 246, 247, 248, 249, 250, 251, 252, 253, 254, 255, 256, 257, 258, 259, 260, 261, 262, 263, 264, 265, 266, 267, 268, 269, 270, 271, 272, 273, 274, 275, 276, 277, 278, 279, 280],
      "LargestImagePixelValue": [1371, 982, 1400, 1080, 978, 1341, 1293, 1254, 891, 1500, 1049, 1120, 1201, 891, 1464, 975, 1024, 1448, 898, 1463, 1078, 1328, 1317, 1072, 1477, 898, 1326, 1088, 811, 1458, 1266, 1326, 998, 1464, 1240, 1359, 982, 1382, 1024, 911, 1441, 854, 1493, 1021, 1350, 1046, 924, 1441, 910, 1423, 1104, 830, 1483, 1029, 1243, 1279, 967, 928, 1317, 903, 1439, 1221, 1434, 1025, 1412, 1106, 885, 1378, 1070, 1103, 1243, 852, 1436, 1248, 971, 1067, 1458, 952, 978, 1358, 850, 1488, 1018, 1199, 1332, 874, 1401, 970, 850, 1473, 970, 1135, 1139, 1262, 1308, 909, 1411, 1095, 821, 1448, 1045, 1202, 1151, 1271, 1407, 970, 1463, 1086, 820, 1347, 1053, 1327, 1082, 1093, 1270, 877, 1353, 1267, 934, 1013, 1386, 932, 923, 1350, 1154, 821, 1480, 1131, 1056, 1188, 1238, 1227, 908, 1462, 1103, 1099, 1338, 813, 1347, 1175, 867, 1467, 1154, 1166, 1269, 955, 1370, 1055, 1006, 1439, 969, 1153, 1350, 836, 1475, 1268, 1119, 1078, 1110, 1318, 924, 1427, 1086, 1157, 1303, 967, 1430, 1017, 1176, 1137, 968, 1443, 953, 1340, 1005, 1019, 1461, 1026, 1344, 1126, 852, 1421, 1022, 1359, 1006, 1274, 1326, 877, 1461, 974, 1387, 1043, 1020, 1212, 1247, 1333, 932, 1284, 1398, 881, 1203, 1330, 893, 1253, 1411, 906, 1073, 1464, 937, 942, 1484, 946, 859, 1442, 1050, 1137, 1174, 1067, 1427, 923, 1280, 1252, 1236, 1059, 1253, 1299, 1103, 1010, 832, 1339, 986, 1236, 1206, 886, 1454, 953, 1082, 1405, 928, 1385, 1054, 802, 1467, 1124, 871, 1299, 1049, 1401, 980, 1425, 1094, 1050, 1214, 963, 1410, 1016, 1356, 973, 1394, 1003, 1218, 1193, 866, 1446, 975, 1374, 1133, 835, 1446, 940, 1406, 997, 1334, 999, 828, 1455, 1008, 939, 1312, 1165],
      "WindowCenter": [388.0, 385.0, 387.0, 384.0, 384.0, 385.0, 384.0, 384.0, 382.0, 386.0, 383.0, 384.0, 384.0, 382.0, 386.0, 384.0, 384.0, 387.0, 384.0, 387.0, 385.0, 386.0, 386.0, 383.0, 386.0, 382.0, 386.0, 385.0, 384.0, 388.0, 386.0, 386.0, 384.0, 386.0, 384.0, 385.0, 383.0, 385.0, 383.0, 382.0, 386.0, 382.0, 386.0, 383.0, 385.0, 383.0, 382.0, 386.0, 383.0, 386.0, 384.0, 383.0, 387.0, 384.0, 385.0, 385.0, 384.0, 384.0, 387.0, 384.0, 387.0, 385.0, 385.0, 382.0, 384.0, 382.0, 381.0, 386.0, 384.0, 384.0, 385.0, 382.0, 386.0, 385.0, 383.0, 384.0, 386.0, 383.0, 383.0, 386.0, 382.0, 386.0, 384.0, 384.0, 385.0, 382.0, 386.0, 384.0, 383.0, 387.0, 384.0, 385.0, 385.0, 385.0, 385.0, 382.0, 386.0, 383.0, 382.0, 386.0, 384.0, 385.0, 385.0, 385.0, 386.0, 384.0, 386.0, 384.0, 383.0, 387.0, 385.0, 387.0, 386.0, 386.0, 386.0, 382.0, 386.0, 386.0, 383.0, 383.0, 386.0, 383.0, 384.0, 386.0, 385.0, 383.0, 386.0, 384.0, 384.0, 385.0, 385.0, 385.0, 383.0, 386.0, 384.0, 385.0, 386.0, 382.0, 386.0, 385.0, 383.0, 387.0, 385.0, 385.0, 385.0, 383.0, 386.0, 384.0, 384.0, 387.0, 384.0, 386.0, 387.0, 383.0, 386.0, 385.0, 383.0, 384.0, 384.0, 386.0, 384.0, 387.0, 385.0, 385.0, 385.0, 383.0, 386.0, 383.0, 385.0, 385.0, 383.0, 387.0, 384.0, 387.0, 384.0, 384.0, 387.0, 384.0, 386.0, 384.0, 382.0, 386.0, 384.0, 386.0, 384.0, 386.0, 386.0, 383.0, 387.0, 384.0, 387.0, 385.0, 385.0, 386.0, 386.0, 387.0, 384.0, 386.0, 386.0, 383.0, 385.0, 387.0, 384.0, 386.0, 387.0, 383.0, 385.0, 386.0, 384.0, 384.0, 387.0, 384.0, 383.0, 387.0, 385.0, 385.0, 386.0, 385.0, 386.0, 384.0, 385.0, 385.0, 386.0, 384.0, 385.0, 385.0, 383.0, 383.0, 382.0, 386.0, 384.0, 385.0, 385.0, 382.0, 386.0, 383.0, 384.0, 386.0, 383.0, 386.0, 384.0, 382.0, 386.0, 384.0, 382.0, 386.0, 384.0, 387.0, 385.0, 387.0, 384.0, 383.0, 385.0, 383.0, 386.0, 384.0, 387.0, 384.0, 386.0, 384.0, 384.0, 385.0, 383.0, 387.0, 384.0, 386.0, 384.0, 382.0, 386.0, 383.0, 386.0, 384.0, 385.0, 383.0, 382.0, 387.0, 384.0, 385.0, 387.0, 385.0],
      "WindowWidth": [824.0, 818.0, 821.0, 817.0, 816.0, 818.0, 817.0, 816.0, 813.0, 819.0, 815.0, 816.0, 816.0, 813.0, 818.0, 815.0, 817.0, 821.0, 816.0, 821.0, 818.0, 819.0, 818.0, 815.0, 818.0, 814.0, 819.0, 818.0, 817.0, 822.0, 820.0, 819.0, 816.0, 819.0, 817.0, 817.0, 815.0, 818.0, 814.0, 813.0, 818.0, 813.0, 819.0, 815.0, 818.0, 815.0, 814.0, 818.0, 815.0, 819.0, 816.0, 815.0, 821.0, 817.0, 818.0, 818.0, 816.0, 816.0, 822.0, 817.0, 820.0, 817.0, 817.0, 813.0, 816.0, 813.0, 812.0, 818.0, 816.0, 816.0, 818.0, 814.0, 819.0, 817.0, 815.0, 817.0, 819.0, 815.0, 815.0, 818.0, 814.0, 819.0, 816.0, 816.0, 817.0, 814.0, 819.0, 816.0, 815.0, 820.0, 816.0, 817.0, 817.0, 818.0, 817.0, 813.0, 818.0, 815.0, 813.0, 819.0, 815.0, 818.0, 817.0, 817.0, 819.0, 816.0, 820.0, 817.0, 814.0, 820.0, 818.0, 822.0, 819.0, 819.0, 819.0, 814.0, 819.0, 819.0, 815.0, 815.0, 819.0, 815.0, 816.0, 820.0, 818.0, 814.0, 819.0, 817.0, 816.0, 817.0, 817.0, 818.0, 815.0, 819.0, 817.0, 817.0, 819.0, 813.0, 819.0, 818.0, 814.0, 820.0, 817.0, 817.0, 817.0, 814.0, 819.0, 816.0, 816.0, 820.0, 816.0, 819.0, 820.0, 815.0, 820.0, 817.0, 815.0, 815.0, 816.0, 819.0, 816.0, 820.0, 817.0, 817.0, 818.0, 814.0, 818.0, 815.0, 817.0, 817.0, 815.0, 820.0, 816.0, 820.0, 817.0, 817.0, 820.0, 816.0, 819.0, 816.0, 814.0, 819.0, 817.0, 819.0, 816.0, 819.0, 819.0, 814.0, 820.0, 817.0, 820.0, 818.0, 818.0, 819.0, 819.0, 820.0, 817.0, 819.0, 820.0, 815.0, 818.0, 820.0, 816.0, 819.0, 820.0, 816.0, 817.0, 820.0, 816.0, 816.0, 821.0, 816.0, 815.0, 820.0, 818.0, 818.0, 819.0, 818.0, 820.0, 816.0, 818.0, 818.0, 819.0, 817.0, 817.0, 817.0, 815.0, 815.0, 814.0, 818.0, 816.0, 818.0, 817.0, 814.0, 819.0, 814.0, 816.0, 818.0, 815.0, 819.0, 816.0, 813.0, 820.0, 816.0, 814.0, 819.0, 817.0, 821.0, 817.0, 820.0, 816.0, 815.0, 817.0, 814.0, 819.0, 817.0, 820.0, 816.0, 820.0, 815.0, 817.0, 818.0, 814.0, 820.0, 815.0, 819.0, 816.0, 813.0, 819.0, 815.0, 819.0, 815.0, 818.0, 814.0, 813.0, 821.0, 817.0, 817.0, 820.0, 819.0]
    },
    "slices": {}
  }
}