{
  "AcquisitionMatrixPE": 96,
  "AcquisitionNumber": 1,
  "AcquisitionTime": "11:37:12.827500",
  "BandwidthPerPixelPhaseEncode": 18.939,
  "BaseResolution": 96,
  "BodyPartExamined": "BRAIN",
  "ConsistencyInfo": "N4_VE11C_LATEST_20160120",
  "ConversionSoftware": "dcm2niix",
  "ConversionSoftwareVersion": "v1.0.20170923 (OpenJPEG build) GCC6.3.0",
  "DerivedVendorReportedEchoSpacing": 0.000550011,
  "DeviceSerialNumber": "66112",
  "DwellTime": 2.3e-06,
  "EchoTime": 0.033,
  "EchoTrainLength": 96,
  "EffectiveEchoSpacing": 0.000550011,
  "FlipAngle": 64,
  "ImageType": [
    "ORIGINAL",
    "PRIMARY",
    "FMRI",
    "NONE",
    "ND",
    "NORM",
    "MOSAIC"
],
  "InstitutionAddress": "Maynard_3_Hanover_NH_US_03755",
  "InstitutionName": "Dartmouth_College_-_PBS",
  "MagneticFieldStrength": 3,
  "Manufacturer": "Siemens",
  "ManufacturersModelName": "Prisma",
  "Modality": "MR",
  "MultibandAccelerationFactor": 4,
  "PartialFourier": 1,
  "PercentPhaseFOV": 100,
  "PhaseEncodingDirection": "j-",
  "PhaseEncodingSteps": 96,
  "PhaseResolution": 1,
  "ProcedureStepDescription": "Gobbini_Matteo_1017_famface-angles",
  "ProtocolName": "func_run-04_task-fam1back",
  "PulseSequenceDetails": "%SiemensSeq%_ep2d_bold",
  "ReceiveCoilActiveElements": "HEA;HEP",
  "ReceiveCoilName": "Head_32",
  "ReconMatrixPE": 96,
  "RepetitionTime": 1.25,
  "ScanOptions": "FS",
  "ScanningSequence": "EP",
  "SequenceName": "_epfid2d1_96",
  "SequenceVariant": "SK",
  "SeriesDescription": "func_run-04_task-fam1back",
  "SliceTiming": [0.8775, 0, 0.615, 0.0875, 0.7025, 0.175, 0.79, 0.35, 0.965, 0.4375, 1.0525, 0.5275, 1.1425, 0.2625, 0.8775, 0, 0.615, 0.0875, 0.7025, 0.175, 0.79, 0.35, 0.965, 0.4375, 1.0525, 0.5275, 1.1425, 0.2625, 0.8775, 0, 0.615, 0.0875, 0.7025, 0.175, 0.79, 0.35, 0.965, 0.4375, 1.0525, 0.5275, 1.1425, 0.2625, 0.8775, 0, 0.615, 0.0875, 0.7025, 0.175, 0.79, 0.35, 0.965, 0.4375, 1.0525, 0.5275, 1.1425, 0.2625],
  "SoftwareVersions": "syngo_MR_E11",
  "StationName": "AWP66112",
  "TaskName": "fam1back",
  "TotalReadoutTime": 0.0522511,
  "dcmmeta_affine": [
    [-2.498357057571411, -0.08942747116088867, 0.01464470662176609, 124.06893920898438],
    [-0.09003416448831558, 2.4954276084899902, -0.12138944119215012, -93.84109497070312],
    [0.010275701992213726, 0.1218370795249939, 2.4970080852508545, -66.8407974243164],
    [0.0, 0.0, 0.0, 1.0]
],
  "dcmmeta_reorient_transform": [
    [0.0, -1.0, 0.0, 95.0],
    [1.0, 0.0, 0.0, 0.0],
    [0.0, 0.0, 1.0, 0.0],
    [0.0, 0.0, 0.0, 1.0]
],
  "dcmmeta_shape": [96, 96, 56, 280],
  "dcmmeta_slice_dim": 2,
  "dcmmeta_version": 0.6,
  "global": {
    "const": {
      "AccessionNumber": "A000464",
      "AcquisitionMatrix": [96, 0, 0, 96],
      "AngioFlag": "N",
      "BitsAllocated": 16,
      "BitsStored": 12,
      "BodyPartExamined": "BRAIN",
      "Columns": 768,
      "EchoNumbers": 1,
      "EchoTime": 33.0,
      "EchoTrainLength": 96,
      "FlipAngle": 64.0,
      "HighBit": 11,
      "ImageOrientationPatient": [0.9993428448202, 0.03601366545023, 0.00411028071051, -0.0357709898351, 0.99817100358569, -0.0487348323785],
      "ImagePositionPatient": [-924.97368611557, -1011.9396386893, -17.7816538484],
      "ImageType": [
        "ORIGINAL",
        "PRIMARY",
        "FMRI",
        "NONE",
        "ND",
        "NORM",
        "MOSAIC"
],
      "ImagedNucleus": "1H",
      "ImagingFrequency": 123.252366,
      "InPlanePhaseEncodingDirection": "COL",
      "MRAcquisitionType": "2D",
      "MagneticFieldStrength": 3.0,
      "Manufacturer": "SIEMENS",
      "ManufacturerModelName": "Prisma",
      "Modality": "MR",
      "NumberOfAverages": 1.0,
      "NumberOfPhaseEncodingSteps": 96,
      "PercentPhaseFieldOfView": 100.0,
      "PercentSampling": 100.0,
      "PerformedProcedureStepStartTime": "110636.792000",
      "PhotometricInterpretation": "MONOCHROME2",
      "PixelBandwidth": 2265.0,
      "PixelRepresentation": 0,
      "PixelSpacing": [2.5, 2.5],
      "PositionReferenceIndicator": "",
      "ProtocolName": "func_run-04_task-fam1back",
      "RepetitionTime": 1250.0,
      "Rows": 768,
      "SAR": 0.05526851944859,
      "SamplesPerPixel": 1,
      "ScanOptions": "FS",
      "ScanningSequence": "EP",
      "SequenceName": "*epfid2d1_96",
      "SequenceVariant": "SK",
      "SeriesDescription": "func_run-04_task-fam1back",
      "SeriesNumber": 29,
      "SeriesTime": "113714.385000",
      "SliceLocation": -61.477502504174,
      "SliceThickness": 2.5,
      "SmallestImagePixelValue": 0,
      "SoftwareVersions": "syngo MR E11",
      "SpacingBetweenSlices": 2.4999999314296,
      "SpecificCharacterSet": "ISO_IR 100",
      "StudyID": "2",
      "StudyTime": "110636.745000",
      "TransmitCoilName": "Body",
      "VariableFlipAngleFlag": "N",
      "WindowCenterWidthExplanation": "Algo1",
      "dBdt": 0.0},
    "slices": {}
  },
  "time": {
    "samples": {
      "AcquisitionNumber": [1, 2, 3, 4, 5, 6, 7, 8, 9, 10, 11, 12, 13, 14, 15, 16, 17, 18, 19, 20, 21, 22, 23, 24, 25, 26, 27, 28, 29, 30, 31, 32, 33, 34, 35, 36, 37, 38, 39, 40, 41, 42, 43, 44, 45, 46, 47, 48, 49, 50, 51, 52, 53, 54, 55, 56, 57, 58, 59, 60, 61, 62, 63, 64, 65, 66, 67, 68, 69, 70, 71, 72, 73, 74, 75, 76, 77, 78, 79, 80, 81, 82, 83, 84, 85, 86, 87, 88, 89, 90, 91, 92, 93, 94, 95, 96, 97, 98, 99, 100, 101, 102, 103, 104, 105, 106, 107, 108, 109, 110, 111, 112, 113, 114, 115, 116, 117, 118, 119, 120, 121, 122, 123, 124, 125, 126, 127, 128, 129, 130, 131, 132, 133, 134, 135, 136, 137, 138, 139, 140, 141, 142, 143, 144, 145, 146, 147, 148, 149, 150, 151, 152, 153, 154, 155, 156, 157, 158, 159, 160, 161, 162, 163, 164, 165, 166, 167, 168, 169, 170, 171, 172, 173, 174, 175, 176, 177, 178, 179, 180, 181, 182, 183, 184, 185, 186, 187, 188, 189, 190, 191, 192, 193, 194, 195, 196, 197, 198, 199, 200, 201, 202, 203, 204, 205, 206, 207, 208, 209, 210, 211, 212, 213, 214, 215, 216, 217, 218, 219, 220, 221, 222, 223, 224, 225, 226, 227, 228, 229, 230, 231, 232, 233, 234, 235, 236, 237, 238, 239, 240, 241, 242, 243, 244, 245, 246, 247, 248, 249, 250, 251, 252, 253, 254, 255, 256, 257, 258, 259, 260, 261, 262, 263, 264, 265, 266, 267, 268, 269, 270, 271, 272, 273, 274, 275, 276, 277, 278, 279, 280],
      "AcquisitionTime": ["113712.827500", "113714.077500", "113715.327500", "113716.577500", "113717.827500", "113719.077500", "113720.327500", "113721.577500", "113722.827500", "113724.077500", "113725.327500", "113726.577500", "113727.827500", "113729.077500", "113730.327500", "113731.577500", "113732.827500", "113734.077500", "113735.327500", "113736.577500", "113737.827500", "113739.077500", "113740.327500", "113741.577500", "113742.827500", "113744.077500", "113745.327500", "113746.577500", "113747.827500", "113749.077500", "113750.327500", "113751.577500", "113752.827500", "113754.077500", "113755.327500", "113756.577500", "113757.827500", "113759.077500", "113800.327500", "113801.577500", "113802.827500", "113804.077500", "113805.327500", "113806.577500", "113807.827500", "113809.077500", "113810.327500", "113811.577500", "113812.827500", "113814.077500", "113815.327500", "113816.577500", "113817.827500", "113819.077500", "113820.327500", "113821.577500", "113822.827500", "113824.077500", "113825.327500", "113826.577500", "113827.827500", "113829.077500", "113830.327500", "113831.577500", "113832.827500", "113834.077500", "113835.327500", "113836.577500", "113837.827500", "113839.077500", "113840.327500", "113841.577500", "113842.827500", "113844.077500", "113845.327500", "113846.577500", "113847.827500", "113849.077500", "113850.327500", "113851.577500", "113852.827500", "113854.077500", "113855.327500", "113856.577500", "113857.827500", "113859.077500", "113900.327500", "113901.577500", "113902.827500", "113904.077500", "113905.327500", "113906.577500", "113907.827500", "113909.077500", "113910.327500", "113911.577500", "113912.827500", "113914.077500", "113915.327500", "113916.577500", "113917.827500", "113919.077500", "113920.327500", "113921.577500", "113922.827500", "113924.077500", "113925.327500", "113926.577500", "113927.827500", "113929.077500", "113930.327500", "113931.577500", "113932.827500", "113934.077500", "113935.327500", "113936.577500", "113937.827500", "113939.077500", "113940.327500", "113941.577500", "113942.827500", "113944.077500", "113945.327500", "113946.577500", "113947.827500", "113949.077500", "113950.327500", "113951.577500", "113952.827500", "113954.077500", "113955.327500", "113956.577500", "113957.827500", "113959.077500", "114000.327500", "114001.577500", "114002.827500", "114004.077500", "114005.327500", "114006.577500", "114007.827500", "114009.077500", "114010.327500", "114011.577500", "114012.827500", "114014.077500", "114015.327500", "114016.577500", "114017.827500", "114019.077500", "114020.327500", "114021.577500", "114022.827500", "114024.077500", "114025.327500", "114026.577500", "114027.827500", "114029.077500", "114030.327500", "114031.577500", "114032.827500", "114034.077500", "114035.327500", "114036.577500", "114037.827500", "114039.077500", "114040.327500", "114041.577500", "114042.827500", "114044.077500", "114045.327500", "114046.577500", "114047.827500", "114049.077500", "114050.327500", "114051.577500", "114052.827500", "114054.077500", "114055.327500", "114056.577500", "114057.827500", "114059.077500", "114100.327500", "114101.577500", "114102.827500", "114104.077500", "114105.327500", "114106.577500", "114107.827500", "114109.077500", "114110.327500", "114111.577500", "114112.827500", "114114.077500", "114115.327500", "114116.577500", "114117.827500", "114119.077500", "114120.327500", "114121.577500", "114122.827500", "114124.077500", "114125.327500", "114126.577500", "114127.827500", "114129.077500", "114130.327500", "114131.577500", "114132.827500", "114134.077500", "114135.327500", "114136.577500", "114137.827500", "114139.077500", "114140.327500", "114141.577500", "114142.827500", "114144.077500", "114145.327500", "114146.577500", "114147.827500", "114149.077500", "114150.327500", "114151.577500", "114152.827500", "114154.077500", "114155.327500", "114156.577500", "114157.827500", "114159.077500", "114200.327500", "114201.577500", "114202.827500", "114204.077500", "114205.327500", "114206.577500", "114207.827500", "114209.077500", "114210.327500", "114211.577500", "114212.827500", "114214.077500", "114215.327500", "114216.577500", "114217.827500", "114219.077500", "114220.327500", "114221.577500", "114222.827500", "114224.077500", "114225.327500", "114226.577500", "114227.827500", "114229.077500", "114230.327500", "114231.577500", "114232.827500", "114234.077500", "114235.327500", "114236.577500", "114237.827500", "114239.077500", "114240.327500", "114241.577500", "114242.827500", "114244.077500", "114245.327500", "114246.577500", "114247.827500", "114249.077500", "114250.327500", "114251.577500", "114252.827500", "114254.077500", "114255.327500", "114256.577500", "114257.827500", "114259.077500", "114300.327500", "114301.577500"],
      "ContentTime": ["113714.389000", "113715.562000", "113716.717000", "113717.971000", "113719.219000", "113720.471000", "113721.707000", "113722.971000", "113724.204000", "113725.441000", "113726.724000", "113727.964000", "113729.239000", "113730.486000", "113731.714000", "113732.990000", "113734.245000", "113735.459000", "113736.705000", "113738.020000", "113739.208000", "113740.446000", "113741.705000", "113742.969000", "113744.247000", "113745.468000", "113746.684000", "113747.966000", "113749.227000", "113750.453000", "113751.732000", "113752.961000", "113754.210000", "113755.463000", "113756.720000", "113757.968000", "113759.187000", "113800.465000", "113801.735000", "113802.997000", "113804.209000", "113805.446000", "113806.721000", "113807.967000", "113809.224000", "113810.459000", "113811.705000", "113812.971000", "113814.232000", "113815.494000", "113816.744000", "113817.949000", "113819.213000", "113820.463000", "113821.728000", "113822.967000", "113824.213000", "113825.492000", "113826.702000", "113827.986000", "113829.215000", "113830.457000", "113831.725000", "113832.941000", "113834.191000", "113835.449000", "113836.716000", "113837.971000", "113839.185000", "113840.466000", "113841.744000", "113842.949000", "113844.204000", "113845.466000", "113846.701000", "113847.933000", "113849.206000", "113850.458000", "113851.722000", "113852.961000", "113854.210000", "113855.476000", "113856.719000", "113857.937000", "113859.205000", "113900.447000", "113901.751000", "113902.990000", "113904.220000", "113905.457000", "113906.717000", "113907.965000", "113909.236000", "113910.478000", "113911.720000", "113912.970000", "113914.226000", "113915.503000", "113916.679000", "113917.958000", "113919.218000", "113920.468000", "113921.747000", "113922.963000", "113924.287000", "113925.494000", "113926.715000", "113927.983000", "113929.241000", "113930.469000", "113931.727000", "113932.993000", "113934.261000", "113935.463000", "113936.726000", "113937.976000", "113939.239000", "113940.481000", "113941.748000", "113942.969000", "113944.227000", "113945.477000", "113946.771000", "113947.955000", "113949.227000", "113950.471000", "113951.745000", "113952.992000", "113954.204000", "113955.478000", "113956.714000", "113958.251000", "113959.236000", "114000.481000", "114001.947000", "114002.966000", "114004.242000", "114005.450000", "114006.714000", "114008.055000", "114009.240000", "114010.488000", "114011.726000", "114012.973000", "114014.223000", "114015.478000", "114016.716000", "114017.949000", "114019.218000", "114020.508000", "114021.748000", "114023.004000", "114024.233000", "114025.470000", "114026.718000", "114027.972000", "114029.191000", "114030.476000", "114031.719000", "114032.979000", "114034.227000", "114035.478000", "114036.748000", "114038.011000", "114039.221000", "114040.441000", "114041.741000", "114043.015000", "114044.217000", "114045.447000", "114046.729000", "114047.966000", "114049.222000", "114050.470000", "114051.736000", "114052.965000", "114054.250000", "114055.474000", "114056.729000", "114057.973000", "114059.203000", "114100.531000", "114101.746000", "114102.975000", "114104.241000", "114105.457000", "114106.721000", "114107.944000", "114109.214000", "114110.467000", "114111.710000", "114112.971000", "114114.239000", "114115.478000", "114116.721000", "114117.988000", "114119.239000", "114120.488000", "114121.721000", "114122.963000", "114124.246000", "114125.472000", "114126.709000", "114127.980000", "114129.212000", "114130.450000", "114131.712000", "114132.941000", "114134.229000", "114135.460000", "114136.705000", "114137.977000", "114139.237000", "114140.468000", "114141.754000", "114142.995000", "114144.264000", "114145.475000", "114146.715000", "114147.970000", "114149.219000", "114150.478000", "114151.727000", "114152.963000", "114154.229000", "114155.465000", "114156.738000", "114157.975000", "114159.235000", "114200.493000", "114201.692000", "114202.969000", "114204.209000", "114205.494000", "114206.732000", "114207.979000", "114209.228000", "114210.482000", "114211.701000", "114212.966000", "114214.219000", "114215.479000", "114216.698000", "114218.010000", "114219.208000", "114220.466000", "114221.718000", "114222.961000", "114224.217000", "114225.466000", "114226.718000", "114227.947000", "114229.225000", "114230.451000", "114231.693000", "114232.997000", "114234.227000", "114235.462000", "114236.688000", "114237.965000", "114239.233000", "114240.487000", "114241.713000", "114242.990000", "114244.217000", "114245.475000", "114246.724000", "114247.981000", "114249.232000", "114250.465000", "114251.799000", "114252.970000", "114254.208000", "114255.459000", "114256.714000", "114257.973000", "114259.222000", "114300.471000", "114301.748000", "114303.013000"],
      "InstanceCreationTime": ["113714.389000", "113715.562000", "113716.717000", "113717.971000", "113719.219000", "113720.471000", "113721.707000", "113722.971000", "113724.204000", "113725.441000", "113726.724000", "113727.964000", "113729.239000", "113730.486000", "113731.714000", "113732.990000", "113734.245000", "113735.459000", "113736.705000", "113738.020000", "113739.208000", "113740.446000", "113741.705000", "113742.969000", "113744.247000", "113745.468000", "113746.684000", "113747.966000", "113749.227000", "113750.453000", "113751.732000", "113752.961000", "113754.210000", "113755.463000", "113756.720000", "113757.968000", "113759.187000", "113800.465000", "113801.735000", "113802.997000", "113804.209000", "113805.446000", "113806.721000", "113807.967000", "113809.224000", "113810.459000", "113811.705000", "113812.971000", "113814.232000", "113815.494000", "113816.744000", "113817.949000", "113819.213000", "113820.463000", "113821.728000", "113822.967000", "113824.213000", "113825.492000", "113826.702000", "113827.986000", "113829.215000", "113830.457000", "113831.725000", "113832.941000", "113834.191000", "113835.449000", "113836.716000", "113837.971000", "113839.185000", "113840.466000", "113841.744000", "113842.949000", "113844.204000", "113845.466000", "113846.701000", "113847.933000", "113849.206000", "113850.458000", "113851.722000", "113852.961000", "113854.210000", "113855.476000", "113856.719000", "113857.937000", "113859.205000", "113900.447000", "113901.751000", "113902.990000", "113904.220000", "113905.457000", "113906.717000", "113907.965000", "113909.236000", "113910.478000", "113911.720000", "113912.970000", "113914.226000", "113915.503000", "113916.679000", "113917.958000", "113919.218000", "113920.468000", "113921.747000", "113922.963000", "113924.287000", "113925.494000", "113926.715000", "113927.983000", "113929.241000", "113930.469000", "113931.727000", "113932.993000", "113934.261000", "113935.463000", "113936.726000", "113937.976000", "113939.239000", "113940.481000", "113941.748000", "113942.969000", "113944.227000", "113945.477000", "113946.771000", "113947.955000", "113949.227000", "113950.471000", "113951.745000", "113952.992000", "113954.204000", "113955.478000", "113956.714000", "113958.251000", "113959.236000", "114000.481000", "114001.947000", "114002.966000", "114004.242000", "114005.450000", "114006.714000", "114008.055000", "114009.240000", "114010.488000", "114011.726000", "114012.973000", "114014.223000", "114015.478000", "114016.716000", "114017.949000", "114019.218000", "114020.508000", "114021.748000", "114023.004000", "114024.233000", "114025.470000", "114026.718000", "114027.972000", "114029.191000", "114030.476000", "114031.719000", "114032.979000", "114034.227000", "114035.478000", "114036.748000", "114038.011000", "114039.221000", "114040.441000", "114041.741000", "114043.015000", "114044.217000", "114045.447000", "114046.729000", "114047.966000", "114049.222000", "114050.470000", "114051.736000", "114052.965000", "114054.250000", "114055.474000", "114056.729000", "114057.973000", "114059.203000", "114100.531000", "114101.746000", "114102.975000", "114104.241000", "114105.457000", "114106.721000", "114107.944000", "114109.214000", "114110.467000", "114111.710000", "114112.971000", "114114.239000", "114115.478000", "114116.721000", "114117.988000", "114119.239000", "114120.488000", "114121.721000", "114122.963000", "114124.246000", "114125.472000", "114126.709000", "114127.980000", "114129.212000", "114130.450000", "114131.712000", "114132.941000", "114134.229000", "114135.460000", "114136.705000", "114137.977000", "114139.237000", "114140.468000", "114141.754000", "114142.995000", "114144.264000", "114145.475000", "114146.715000", "114147.970000", "114149.219000", "114150.478000", "114151.727000", "114152.963000", "114154.229000", "114155.465000", "114156.738000", "114157.975000", "114159.235000", "114200.493000", "114201.692000", "114202.969000", "114204.209000", "114205.494000", "114206.732000", "114207.979000", "114209.228000", "114210.482000", "114211.701000", "114212.966000", "114214.219000", "114215.479000", "114216.698000", "114218.010000", "114219.208000", "114220.466000", "114221.718000", "114222.961000", "114224.217000", "114225.466000", "114226.718000", "114227.947000", "114229.225000", "114230.451000", "114231.693000", "114232.997000", "114234.227000", "114235.462000", "114236.688000", "114237.965000", "114239.233000", "114240.487000", "114241.713000", "114242.990000", "114244.217000", "114245.475000", "114246.724000", "114247.981000", "114249.232000", "114250.465000", "114251.799000", "114252.970000", "114254.208000", "114255.459000", "114256.714000", "114257.973000", "114259.222000", "114300.471000", "114301.748000", "114303.013000"],
      "InstanceNumber": [1, 2, 3, 4, 5, 6, 7, 8, 9, 10, 11, 12, 13, 14, 15, 16, 17, 18, 19, 20, 21, 22, 23, 24, 25, 26, 27, 28, 29, 30, 31, 32, 33, 34, 35, 36, 37, 38, 39, 40, 41, 42, 43, 44, 45, 46, 47, 48, 49, 50, 51, 52, 53, 54, 55, 56, 57, 58, 59, 60, 61, 62, 63, 64, 65, 66, 67, 68, 69, 70, 71, 72, 73, 74, 75, 76, 77, 78, 79, 80, 81, 82, 83, 84, 85, 86, 87, 88, 89, 90, 91, 92, 93, 94, 95, 96, 97, 98, 99, 100, 101, 102, 103, 104, 105, 106, 107, 108, 109, 110, 111, 112, 113, 114, 115, 116, 117, 118, 119, 120, 121, 122, 123, 124, 125, 126, 127, 128, 129, 130, 131, 132, 133, 134, 135, 136, 137, 138, 139, 140, 141, 142, 143, 144, 145, 146, 147, 148, 149, 150, 151, 152, 153, 154, 155, 156, 157, 158, 159, 160, 161, 162, 163, 164, 165, 166, 167, 168, 169, 170, 171, 172, 173, 174, 175, 176, 177, 178, 179, 180, 181, 182, 183, 184, 185, 186, 187, 188, 189, 190, 191, 192, 193, 194, 195, 196, 197, 198, 199, 200, 201, 202, 203, 204, 205, 206, 207, 208, 209, 210, 211, 212, 213, 214, 215, 216, 217, 218, 219, 220, 221, 222, 223, 224, 225, 226, 227, 228, 229, 230, 231, 232, 233, 234, 235, 236, 237, 238, 239, 240, 241, 242, 243, 244, 245, 246, 247, 248, 249, 250, 251, 252, 253, 254, 255, 256, 257, 258, 259, 260, 261, 262, 263, 264, 265, 266, 267, 268, 269, 270, 271, 272, 273, 274, 275, 276, 277, 278, 279, 280],
      "LargestImagePixelValue": [1165, 1432, 1263, 1134, 904, 1092, 1402, 1127, 1432, 996, 1462, 998, 1318, 1086, 1049, 1404, 820, 1454, 945, 1386, 1065, 1294, 1280, 878, 1458, 938, 1387, 1058, 965, 906, 1332, 1348, 1092, 1238, 1430, 1141, 801, 1376, 1294, 1083, 1218, 1000, 1487, 957, 1464, 978, 1432, 945, 1389, 988, 910, 1437, 868, 1469, 1014, 1256, 1218, 863, 1455, 1086, 1415, 1017, 1286, 1261, 907, 1432, 921, 1452, 1075, 787, 1419, 1063, 1416, 946, 1483, 965, 1432, 999, 1365, 1022, 1344, 1264, 859, 1387, 1104, 1393, 933, 1405, 1009, 904, 1490, 968, 1301, 1022, 1319, 1251, 853, 1470, 954, 1311, 1117, 880, 1486, 999, 1299, 1112, 1419, 1126, 1199, 1280, 907, 1399, 1009, 994, 1394, 1250, 1425, 911, 1144, 1144, 1366, 1161, 1018, 1442, 962, 1454, 1014, 1112, 1260, 1017, 960, 922, 1389, 1170, 1424, 933, 1473, 1055, 921, 1359, 1065, 1341, 1024, 1197, 1314, 813, 1491, 992, 848, 1350, 993, 1439, 959, 1357, 1128, 929, 1482, 963, 836, 1408, 1257, 1326, 958, 1369, 1024, 840, 1429, 892, 1473, 1015, 1044, 1274, 1200, 1167, 842, 1441, 871, 1485, 982, 1126, 1318, 992, 989, 1157, 1438, 1062, 1459, 969, 932, 1330, 1046, 935, 1425, 1021, 821, 870, 1075, 1241, 1249, 1332, 911, 1480, 1067, 1034, 1244, 802, 1437, 958, 1421, 1116, 1115, 1316, 810, 1468, 985, 1315, 1020, 1038, 1440, 1137, 1473, 991, 1265, 1101, 1000, 1347, 950, 1394, 997, 840, 1474, 1163, 1450, 955, 1412, 1031, 1015, 1241, 1180, 1172, 1037, 1409, 1067, 1447, 1015, 826, 1469, 1054, 1291, 1056, 1289, 1302, 910, 1481, 1126, 920, 1300, 823, 1453, 1030, 1184, 1226, 1047, 1475, 975, 1496, 989, 976, 1284, 873, 1469, 986, 1341, 1033, 1050, 1383, 897, 1097, 1232, 1238],
      "WindowCenter": [385.0, 385.0, 384.0, 385.0, 383.0, 385.0, 387.0, 385.0, 386.0, 383.0, 386.0, 383.0, 385.0, 383.0, 384.0, 387.0, 383.0, 387.0, 384.0, 386.0, 385.0, 386.0, 386.0, 383.0, 387.0, 384.0, 386.0, 384.0, 384.0, 384.0, 387.0, 387.0, 385.0, 385.0, 386.0, 384.0, 382.0, 386.0, 386.0, 385.0, 385.0, 384.0, 386.0, 383.0, 386.0, 383.0, 386.0, 382.0, 386.0, 383.0, 383.0, 386.0, 383.0, 387.0, 385.0, 386.0, 386.0, 383.0, 387.0, 384.0, 387.0, 384.0, 385.0, 385.0, 382.0, 386.0, 383.0, 386.0, 385.0, 383.0, 387.0, 385.0, 387.0, 383.0, 386.0, 383.0, 386.0, 384.0, 386.0, 384.0, 386.0, 385.0, 382.0, 386.0, 384.0, 386.0, 383.0, 387.0, 384.0, 383.0, 387.0, 384.0, 386.0, 384.0, 385.0, 384.0, 382.0, 386.0, 383.0, 385.0, 385.0, 383.0, 387.0, 385.0, 386.0, 384.0, 386.0, 383.0, 384.0, 384.0, 382.0, 386.0, 384.0, 384.0, 387.0, 386.0, 387.0, 384.0, 386.0, 385.0, 386.0, 385.0, 383.0, 385.0, 382.0, 385.0, 383.0, 385.0, 385.0, 384.0, 385.0, 385.0, 387.0, 386.0, 387.0, 383.0, 386.0, 383.0, 383.0, 386.0, 384.0, 386.0, 384.0, 385.0, 386.0, 382.0, 386.0, 384.0, 383.0, 387.0, 384.0, 387.0, 384.0, 386.0, 384.0, 383.0, 386.0, 384.0, 383.0, 387.0, 386.0, 385.0, 383.0, 386.0, 384.0, 382.0, 386.0, 382.0, 386.0, 383.0, 384.0, 385.0, 385.0, 385.0, 382.0, 386.0, 383.0, 386.0, 384.0, 385.0, 387.0, 385.0, 385.0, 386.0, 388.0, 385.0, 386.0, 383.0, 382.0, 386.0, 384.0, 384.0, 386.0, 384.0, 383.0, 383.0, 386.0, 387.0, 386.0, 386.0, 383.0, 387.0, 384.0, 383.0, 385.0, 382.0, 387.0, 384.0, 386.0, 385.0, 385.0, 386.0, 382.0, 387.0, 384.0, 386.0, 385.0, 385.0, 387.0, 385.0, 386.0, 384.0, 385.0, 384.0, 383.0, 386.0, 384.0, 387.0, 384.0, 383.0, 387.0, 385.0, 386.0, 384.0, 386.0, 384.0, 384.0, 385.0, 385.0, 385.0, 384.0, 387.0, 384.0, 387.0, 384.0, 383.0, 387.0, 385.0, 386.0, 384.0, 385.0, 385.0, 383.0, 386.0, 384.0, 382.0, 386.0, 382.0, 387.0, 385.0, 385.0, 386.0, 385.0, 386.0, 384.0, 387.0, 384.0, 384.0, 386.0, 383.0, 387.0, 384.0, 386.0, 384.0, 384.0, 387.0, 384.0, 386.0, 387.0, 386.0],
      "WindowWidth": [819.0, 817.0, 816.0, 817.0, 815.0, 818.0, 821.0, 818.0, 819.0, 815.0, 819.0, 815.0, 818.0, 815.0, 816.0, 820.0, 814.0, 820.0, 816.0, 820.0, 818.0, 819.0, 819.0, 816.0, 820.0, 816.0, 820.0, 817.0, 816.0, 816.0, 821.0, 821.0, 818.0, 817.0, 818.0, 815.0, 813.0, 820.0, 819.0, 817.0, 818.0, 816.0, 819.0, 815.0, 818.0, 814.0, 818.0, 813.0, 819.0, 815.0, 815.0, 820.0, 815.0, 820.0, 817.0, 819.0, 820.0, 815.0, 820.0, 817.0, 820.0, 816.0, 818.0, 816.0, 814.0, 819.0, 815.0, 820.0, 818.0, 815.0, 821.0, 818.0, 821.0, 815.0, 819.0, 814.0, 818.0, 816.0, 818.0, 815.0, 819.0, 818.0, 814.0, 819.0, 816.0, 820.0, 815.0, 820.0, 817.0, 815.0, 820.0, 816.0, 819.0, 816.0, 818.0, 816.0, 813.0, 818.0, 814.0, 817.0, 817.0, 815.0, 821.0, 817.0, 819.0, 816.0, 819.0, 815.0, 815.0, 816.0, 814.0, 819.0, 817.0, 817.0, 820.0, 818.0, 820.0, 816.0, 819.0, 818.0, 819.0, 817.0, 814.0, 817.0, 813.0, 817.0, 815.0, 817.0, 818.0, 817.0, 818.0, 818.0, 821.0, 819.0, 820.0, 815.0, 820.0, 815.0, 815.0, 819.0, 817.0, 819.0, 816.0, 817.0, 819.0, 813.0, 819.0, 816.0, 814.0, 820.0, 817.0, 821.0, 816.0, 820.0, 816.0, 814.0, 819.0, 816.0, 815.0, 820.0, 819.0, 818.0, 815.0, 819.0, 816.0, 813.0, 818.0, 814.0, 819.0, 815.0, 816.0, 818.0, 818.0, 817.0, 813.0, 820.0, 815.0, 819.0, 816.0, 818.0, 820.0, 817.0, 819.0, 820.0, 823.0, 817.0, 819.0, 815.0, 814.0, 819.0, 817.0, 816.0, 820.0, 816.0, 815.0, 816.0, 819.0, 821.0, 819.0, 819.0, 815.0, 820.0, 816.0, 815.0, 818.0, 813.0, 820.0, 817.0, 820.0, 817.0, 817.0, 818.0, 813.0, 820.0, 816.0, 820.0, 817.0, 818.0, 820.0, 817.0, 819.0, 816.0, 817.0, 816.0, 815.0, 819.0, 816.0, 820.0, 817.0, 815.0, 821.0, 818.0, 820.0, 816.0, 820.0, 816.0, 816.0, 818.0, 818.0, 818.0, 817.0, 820.0, 817.0, 820.0, 817.0, 814.0, 821.0, 818.0, 819.0, 817.0, 818.0, 818.0, 815.0, 820.0, 816.0, 814.0, 819.0, 813.0, 820.0, 817.0, 818.0, 820.0, 817.0, 820.0, 816.0, 820.0, 816.0, 816.0, 819.0, 815.0, 820.0, 816.0, 819.0, 817.0, 817.0, 820.0, 817.0, 819.0, 821.0, 820.0]
    },
    "slices": {}
  }
}