{
  "AcquisitionMatrixPE": 96,
  "AcquisitionNumber": 1,
  "AcquisitionTime": "18:25:41.042500",
  "BandwidthPerPixelPhaseEncode": 18.939,
  "BaseResolution": 96,
  "BodyPartExamined": "BRAIN",
  "ConsistencyInfo": "N4_VE11C_LATEST_20160120",
  "ConversionSoftware": "dcm2niix",
  "ConversionSoftwareVersion": "v1.0.20170923 (OpenJPEG build) GCC6.3.0",
  "DerivedVendorReportedEchoSpacing": 0.000550011,
  "DeviceSerialNumber": "66112",
  "DwellTime": 2.3e-06,
  "EchoTime": 0.033,
  "EchoTrainLength": 96,
  "EffectiveEchoSpacing": 0.000550011,
  "FlipAngle": 64,
  "ImageType": [
    "ORIGINAL",
    "PRIMARY",
    "FMRI",
    "NONE",
    "ND",
    "NORM",
    "MOSAIC"
],
  "InstitutionAddress": "Maynard_3_Hanover_NH_US_03755",
  "InstitutionName": "Dartmouth_College_-_PBS",
  "MagneticFieldStrength": 3,
  "Manufacturer": "Siemens",
  "ManufacturersModelName": "Prisma",
  "Modality": "MR",
  "MultibandAccelerationFactor": 4,
  "PartialFourier": 1,
  "PercentPhaseFOV": 100,
  "PhaseEncodingDirection": "j-",
  "PhaseEncodingSteps": 96,
  "PhaseResolution": 1,
  "ProcedureStepDescription": "Gobbini_Matteo_1017_famface-angles",
  "ProtocolName": "func_run-11_task-fam1back",
  "PulseSequenceDetails": "%SiemensSeq%_ep2d_bold",
  "ReceiveCoilActiveElements": "HEA;HEP",
  "ReceiveCoilName": "Head_32",
  "ReconMatrixPE": 96,
  "RepetitionTime": 1.25,
  "ScanOptions": "FS",
  "ScanningSequence": "EP",
  "SequenceName": "_epfid2d1_96",
  "SequenceVariant": "SK",
  "SeriesDescription": "func_run-11_task-fam1back",
  "SliceTiming": [0.8775, 0, 0.615, 0.0875, 0.7025, 0.175, 0.79, 0.35, 0.965, 0.4375, 1.0525, 0.5275, 1.1425, 0.2625, 0.8775, 0, 0.615, 0.0875, 0.7025, 0.175, 0.79, 0.35, 0.965, 0.4375, 1.0525, 0.5275, 1.1425, 0.2625, 0.8775, 0, 0.615, 0.0875, 0.7025, 0.175, 0.79, 0.35, 0.965, 0.4375, 1.0525, 0.5275, 1.1425, 0.2625, 0.8775, 0, 0.615, 0.0875, 0.7025, 0.175, 0.79, 0.35, 0.965, 0.4375, 1.0525, 0.5275, 1.1425, 0.2625],
  "SoftwareVersions": "syngo_MR_E11",
  "StationName": "AWP66112",
  "TaskName": "fam1back",
  "TotalReadoutTime": 0.0522511,
  "dcmmeta_affine": [
    [-2.4963953495025635, -0.10681237280368805, 0.0812472403049469, 129.85928344726562],
    [-0.10800638049840927, 2.497415781021118, -0.03534572571516037, -94.96044921875],
    [0.07965310662984848, 0.03880485147237778, 2.498429298400879, -97.97564697265625],
    [0.0, 0.0, 0.0, 1.0]
],
  "dcmmeta_reorient_transform": [
    [0.0, -1.0, 0.0, 95.0],
    [1.0, 0.0, 0.0, 0.0],
    [0.0, 0.0, 1.0, 0.0],
    [0.0, 0.0, 0.0, 1.0]
],
  "dcmmeta_shape": [96, 96, 56, 280],
  "dcmmeta_slice_dim": 2,
  "dcmmeta_version": 0.6,
  "global": {
    "const": {
      "AccessionNumber": "A000288",
      "AcquisitionMatrix": [96, 0, 0, 96],
      "AngioFlag": "N",
      "BitsAllocated": 16,
      "BitsStored": 12,
      "BodyPartExamined": "BRAIN",
      "Columns": 768,
      "EchoNumbers": 1,
      "EchoTime": 33.0,
      "EchoTrainLength": 96,
      "FlipAngle": 64.0,
      "HighBit": 11,
      "ImageOrientationPatient": [0.99855816080821, 0.0432025534305, 0.03186124386161, -0.0427249486984, 0.99896628978956, -0.0155219400461],
      "ImagePositionPatient": [-922.61200387232, -1017.7158751205, -108.01419998561],
      "ImageType": [
        "ORIGINAL",
        "PRIMARY",
        "FMRI",
        "NONE",
        "ND",
        "NORM",
        "MOSAIC"
],
      "ImagedNucleus": "1H",
      "ImagingFrequency": 123.252407,
      "InPlanePhaseEncodingDirection": "COL",
      "MRAcquisitionType": "2D",
      "MagneticFieldStrength": 3.0,
      "Manufacturer": "SIEMENS",
      "ManufacturerModelName": "Prisma",
      "Modality": "MR",
      "NumberOfAverages": 1.0,
      "NumberOfPhaseEncodingSteps": 96,
      "PercentPhaseFieldOfView": 100.0,
      "PercentSampling": 100.0,
      "PerformedProcedureStepStartTime": "165832.023000",
      "PhotometricInterpretation": "MONOCHROME2",
      "PixelBandwidth": 2265.0,
      "PixelRepresentation": 0,
      "PixelSpacing": [2.5, 2.5],
      "PositionReferenceIndicator": "",
      "ProtocolName": "func_run-11_task-fam1back",
      "RepetitionTime": 1250.0,
      "Rows": 768,
      "SAR": 0.0521049680728,
      "SamplesPerPixel": 1,
      "ScanOptions": "FS",
      "ScanningSequence": "EP",
      "SequenceName": "*epfid2d1_96",
      "SequenceVariant": "SK",
      "SeriesDescription": "func_run-11_task-fam1back",
      "SeriesNumber": 81,
      "SeriesTime": "182542.888000",
      "SliceLocation": -92.351232499625,
      "SliceThickness": 2.5,
      "SmallestImagePixelValue": 0,
      "SoftwareVersions": "syngo MR E11",
      "SpacingBetweenSlices": 2.4999999647722,
      "SpecificCharacterSet": "ISO_IR 100",
      "StudyID": "1",
      "StudyTime": "165831.981000",
      "TransmitCoilName": "Body",
      "VariableFlipAngleFlag": "N",
      "WindowCenterWidthExplanation": "Algo1",
      "dBdt": 0.0},
    "slices": {}
  },
  "time": {
    "samples": {
      "AcquisitionNumber": [1, 2, 3, 4, 5, 6, 7, 8, 9, 10, 11, 12, 13, 14, 15, 16, 17, 18, 19, 20, 21, 22, 23, 24, 25, 26, 27, 28, 29, 30, 31, 32, 33, 34, 35, 36, 37, 38, 39, 40, 41, 42, 43, 44, 45, 46, 47, 48, 49, 50, 51, 52, 53, 54, 55, 56, 57, 58, 59, 60, 61, 62, 63, 64, 65, 66, 67, 68, 69, 70, 71, 72, 73, 74, 75, 76, 77, 78, 79, 80, 81, 82, 83, 84, 85, 86, 87, 88, 89, 90, 91, 92, 93, 94, 95, 96, 97, 98, 99, 100, 101, 102, 103, 104, 105, 106, 107, 108, 109, 110, 111, 112, 113, 114, 115, 116, 117, 118, 119, 120, 121, 122, 123, 124, 125, 126, 127, 128, 129, 130, 131, 132, 133, 134, 135, 136, 137, 138, 139, 140, 141, 142, 143, 144, 145, 146, 147, 148, 149, 150, 151, 152, 153, 154, 155, 156, 157, 158, 159, 160, 161, 162, 163, 164, 165, 166, 167, 168, 169, 170, 171, 172, 173, 174, 175, 176, 177, 178, 179, 180, 181, 182, 183, 184, 185, 186, 187, 188, 189, 190, 191, 192, 193, 194, 195, 196, 197, 198, 199, 200, 201, 202, 203, 204, 205, 206, 207, 208, 209, 210, 211, 212, 213, 214, 215, 216, 217, 218, 219, 220, 221, 222, 223, 224, 225, 226, 227, 228, 229, 230, 231, 232, 233, 234, 235, 236, 237, 238, 239, 240, 241, 242, 243, 244, 245, 246, 247, 248, 249, 250, 251, 252, 253, 254, 255, 256, 257, 258, 259, 260, 261, 262, 263, 264, 265, 266, 267, 268, 269, 270, 271, 272, 273, 274, 275, 276, 277, 278, 279, 280],
      "AcquisitionTime": ["182541.042500", "182542.292500", "182543.542500", "182544.792500", "182546.042500", "182547.292500", "182548.542500", "182549.792500", "182551.042500", "182552.292500", "182553.542500", "182554.792500", "182556.042500", "182557.292500", "182558.542500", "182559.792500", "182601.042500", "182602.292500", "182603.542500", "182604.792500", "182606.042500", "182607.292500", "182608.542500", "182609.792500", "182611.042500", "182612.292500", "182613.542500", "182614.792500", "182616.042500", "182617.292500", "182618.542500", "182619.792500", "182621.042500", "182622.292500", "182623.542500", "182624.792500", "182626.042500", "182627.292500", "182628.542500", "182629.792500", "182631.042500", "182632.292500", "182633.542500", "182634.792500", "182636.042500", "182637.292500", "182638.542500", "182639.792500", "182641.042500", "182642.292500", "182643.542500", "182644.792500", "182646.042500", "182647.292500", "182648.542500", "182649.792500", "182651.042500", "182652.292500", "182653.542500", "182654.792500", "182656.042500", "182657.292500", "182658.542500", "182659.792500", "182701.042500", "182702.292500", "182703.542500", "182704.792500", "182706.042500", "182707.292500", "182708.542500", "182709.792500", "182711.042500", "182712.292500", "182713.542500", "182714.792500", "182716.042500", "182717.292500", "182718.542500", "182719.792500", "182721.042500", "182722.292500", "182723.542500", "182724.792500", "182726.042500", "182727.292500", "182728.542500", "182729.792500", "182731.042500", "182732.292500", "182733.542500", "182734.792500", "182736.042500", "182737.292500", "182738.542500", "182739.792500", "182741.042500", "182742.292500", "182743.542500", "182744.792500", "182746.042500", "182747.292500", "182748.542500", "182749.792500", "182751.042500", "182752.292500", "182753.542500", "182754.792500", "182756.042500", "182757.292500", "182758.542500", "182759.792500", "182801.042500", "182802.292500", "182803.542500", "182804.792500", "182806.042500", "182807.292500", "182808.542500", "182809.792500", "182811.042500", "182812.292500", "182813.542500", "182814.792500", "182816.042500", "182817.292500", "182818.542500", "182819.792500", "182821.042500", "182822.292500", "182823.542500", "182824.792500", "182826.042500", "182827.292500", "182828.542500", "182829.792500", "182831.042500", "182832.292500", "182833.542500", "182834.792500", "182836.042500", "182837.292500", "182838.542500", "182839.792500", "182841.042500", "182842.292500", "182843.542500", "182844.792500", "182846.042500", "182847.292500", "182848.542500", "182849.792500", "182851.042500", "182852.292500", "182853.542500", "182854.792500", "182856.042500", "182857.292500", "182858.542500", "182859.792500", "182901.042500", "182902.292500", "182903.542500", "182904.792500", "182906.042500", "182907.292500", "182908.542500", "182909.792500", "182911.042500", "182912.292500", "182913.542500", "182914.792500", "182916.042500", "182917.292500", "182918.542500", "182919.792500", "182921.042500", "182922.292500", "182923.542500", "182924.792500", "182926.042500", "182927.292500", "182928.542500", "182929.792500", "182931.042500", "182932.292500", "182933.542500", "182934.792500", "182936.042500", "182937.292500", "182938.542500", "182939.792500", "182941.042500", "182942.292500", "182943.542500", "182944.792500", "182946.042500", "182947.292500", "182948.542500", "182949.792500", "182951.042500", "182952.292500", "182953.542500", "182954.792500", "182956.042500", "182957.292500", "182958.542500", "182959.792500", "183001.042500", "183002.292500", "183003.542500", "183004.792500", "183006.042500", "183007.292500", "183008.542500", "183009.792500", "183011.042500", "183012.292500", "183013.542500", "183014.792500", "183016.042500", "183017.292500", "183018.542500", "183019.792500", "183021.042500", "183022.292500", "183023.542500", "183024.792500", "183026.042500", "183027.292500", "183028.542500", "183029.792500", "183031.042500", "183032.292500", "183033.542500", "183034.792500", "183036.042500", "183037.292500", "183038.542500", "183039.792500", "183041.042500", "183042.292500", "183043.542500", "183044.792500", "183046.042500", "183047.292500", "183048.542500", "183049.792500", "183051.042500", "183052.292500", "183053.542500", "183054.792500", "183056.042500", "183057.292500", "183058.542500", "183059.792500", "183101.042500", "183102.292500", "183103.542500", "183104.792500", "183106.042500", "183107.292500", "183108.542500", "183109.792500", "183111.042500", "183112.292500", "183113.542500", "183114.792500", "183116.042500", "183117.292500", "183118.542500", "183119.792500", "183121.042500", "183122.292500", "183123.542500", "183124.792500", "183126.042500", "183127.292500", "183128.542500", "183129.792500"],
      "ContentTime": ["182542.892000", "182544.037000", "182545.286000", "182546.483000", "182547.726000", "182548.968000", "182550.224000", "182551.482000", "182552.728000", "182553.966000", "182555.234000", "182556.453000", "182557.711000", "182558.966000", "182600.225000", "182601.503000", "182602.764000", "182603.996000", "182605.236000", "182606.460000", "182607.725000", "182608.980000", "182610.218000", "182611.460000", "182612.722000", "182613.983000", "182615.197000", "182616.493000", "182617.713000", "182618.966000", "182620.225000", "182621.493000", "182622.732000", "182623.987000", "182625.239000", "182626.482000", "182627.727000", "182628.952000", "182630.240000", "182631.469000", "182632.732000", "182633.960000", "182635.221000", "182636.477000", "182637.754000", "182638.971000", "182640.225000", "182641.474000", "182642.730000", "182643.974000", "182645.229000", "182646.490000", "182647.723000", "182649.003000", "182650.224000", "182651.496000", "182652.716000", "182653.966000", "182655.228000", "182656.486000", "182657.725000", "182658.963000", "182700.283000", "182701.487000", "182702.721000", "182703.986000", "182705.223000", "182706.477000", "182707.754000", "182708.944000", "182710.217000", "182711.461000", "182712.710000", "182713.963000", "182715.243000", "182716.468000", "182717.725000", "182718.971000", "182720.256000", "182721.475000", "182722.735000", "182723.958000", "182725.212000", "182726.450000", "182727.739000", "182728.983000", "182730.222000", "182731.518000", "182732.725000", "182733.984000", "182735.256000", "182736.482000", "182737.727000", "182738.980000", "182740.252000", "182741.454000", "182742.730000", "182744.000000", "182745.226000", "182746.450000", "182747.728000", "182748.971000", "182750.242000", "182751.489000", "182752.757000", "182753.991000", "182755.245000", "182756.494000", "182757.730000", "182758.980000", "182800.234000", "182801.485000", "182802.710000", "182803.979000", "182805.243000", "182806.532000", "182807.726000", "182808.984000", "182810.228000", "182811.487000", "182812.727000", "182813.985000", "182815.226000", "182816.478000", "182817.757000", "182818.980000", "182820.235000", "182821.461000", "182822.746000", "182823.998000", "182825.222000", "182826.557000", "182827.741000", "182828.982000", "182830.239000", "182831.518000", "182832.785000", "182833.995000", "182835.271000", "182836.495000", "182837.740000", "182839.004000", "182840.239000", "182841.485000", "182842.773000", "182843.975000", "182845.231000", "182846.501000", "182847.756000", "182848.984000", "182850.243000", "182851.493000", "182852.732000", "182854.000000", "182855.237000", "182856.479000", "182857.744000", "182858.992000", "182900.222000", "182901.482000", "182902.744000", "182903.996000", "182905.224000", "182906.474000", "182907.759000", "182908.991000", "182910.229000", "182911.484000", "182912.768000", "182913.988000", "182915.248000", "182916.470000", "182917.737000", "182918.973000", "182920.235000", "182921.483000", "182922.753000", "182923.995000", "182925.236000", "182926.484000", "182927.745000", "182928.978000", "182930.236000", "182931.470000", "182932.726000", "182934.011000", "182935.247000", "182936.493000", "182937.731000", "182938.997000", "182940.242000", "182941.489000", "182942.753000", "182943.986000", "182945.224000", "182946.470000", "182947.741000", "182948.991000", "182950.241000", "182951.459000", "182952.730000", "182953.972000", "182955.232000", "182956.493000", "182957.744000", "182958.980000", "183000.241000", "183001.497000", "183002.760000", "183003.987000", "183005.215000", "183006.528000", "183007.733000", "183008.979000", "183010.248000", "183011.482000", "183012.734000", "183013.955000", "183015.239000", "183016.462000", "183017.732000", "183019.037000", "183020.237000", "183021.493000", "183022.719000", "183024.025000", "183025.248000", "183026.474000", "183027.722000", "183028.993000", "183030.217000", "183031.485000", "183032.729000", "183033.991000", "183035.234000", "183036.473000", "183037.740000", "183038.971000", "183040.223000", "183041.474000", "183042.725000", "183043.978000", "183045.216000", "183046.502000", "183047.731000", "183048.986000", "183050.234000", "183051.476000", "183052.718000", "183053.983000", "183055.221000", "183056.464000", "183057.745000", "183059.020000", "183100.251000", "183101.477000", "183102.744000", "183103.984000", "183105.214000", "183106.575000", "183107.743000", "183108.975000", "183110.225000", "183111.472000", "183112.733000", "183113.980000", "183115.215000", "183116.479000", "183117.746000", "183118.986000", "183120.222000", "183121.493000", "183122.711000", "183123.997000", "183125.262000", "183126.495000", "183127.743000", "183128.960000", "183130.227000", "183131.552000"],
      "InstanceCreationTime": ["182542.892000", "182544.037000", "182545.286000", "182546.483000", "182547.726000", "182548.968000", "182550.224000", "182551.482000", "182552.728000", "182553.966000", "182555.234000", "182556.453000", "182557.711000", "182558.966000", "182600.225000", "182601.503000", "182602.764000", "182603.996000", "182605.236000", "182606.460000", "182607.725000", "182608.980000", "182610.218000", "182611.460000", "182612.722000", "182613.983000", "182615.197000", "182616.493000", "182617.713000", "182618.966000", "182620.225000", "182621.493000", "182622.732000", "182623.987000", "182625.239000", "182626.482000", "182627.727000", "182628.952000", "182630.240000", "182631.469000", "182632.732000", "182633.960000", "182635.221000", "182636.477000", "182637.754000", "182638.971000", "182640.225000", "182641.474000", "182642.730000", "182643.974000", "182645.229000", "182646.490000", "182647.723000", "182649.003000", "182650.224000", "182651.496000", "182652.716000", "182653.966000", "182655.228000", "182656.486000", "182657.725000", "182658.963000", "182700.283000", "182701.487000", "182702.721000", "182703.986000", "182705.223000", "182706.477000", "182707.754000", "182708.944000", "182710.217000", "182711.461000", "182712.710000", "182713.963000", "182715.243000", "182716.468000", "182717.725000", "182718.971000", "182720.256000", "182721.475000", "182722.735000", "182723.958000", "182725.212000", "182726.450000", "182727.739000", "182728.983000", "182730.222000", "182731.518000", "182732.725000", "182733.984000", "182735.256000", "182736.482000", "182737.727000", "182738.980000", "182740.252000", "182741.454000", "182742.730000", "182744.000000", "182745.226000", "182746.450000", "182747.728000", "182748.971000", "182750.242000", "182751.489000", "182752.757000", "182753.991000", "182755.245000", "182756.494000", "182757.730000", "182758.980000", "182800.234000", "182801.485000", "182802.710000", "182803.979000", "182805.243000", "182806.532000", "182807.726000", "182808.984000", "182810.228000", "182811.487000", "182812.727000", "182813.985000", "182815.226000", "182816.478000", "182817.757000", "182818.980000", "182820.235000", "182821.461000", "182822.746000", "182823.998000", "182825.222000", "182826.557000", "182827.741000", "182828.982000", "182830.239000", "182831.518000", "182832.785000", "182833.995000", "182835.271000", "182836.495000", "182837.740000", "182839.004000", "182840.239000", "182841.485000", "182842.773000", "182843.975000", "182845.231000", "182846.501000", "182847.756000", "182848.984000", "182850.243000", "182851.493000", "182852.732000", "182854.000000", "182855.237000", "182856.479000", "182857.744000", "182858.992000", "182900.222000", "182901.482000", "182902.744000", "182903.996000", "182905.224000", "182906.474000", "182907.759000", "182908.991000", "182910.229000", "182911.484000", "182912.768000", "182913.988000", "182915.248000", "182916.470000", "182917.737000", "182918.973000", "182920.235000", "182921.483000", "182922.753000", "182923.995000", "182925.236000", "182926.484000", "182927.745000", "182928.978000", "182930.236000", "182931.470000", "182932.726000", "182934.011000", "182935.247000", "182936.493000", "182937.731000", "182938.997000", "182940.242000", "182941.489000", "182942.753000", "182943.986000", "182945.224000", "182946.470000", "182947.741000", "182948.991000", "182950.241000", "182951.459000", "182952.730000", "182953.972000", "182955.232000", "182956.493000", "182957.744000", "182958.980000", "183000.241000", "183001.497000", "183002.760000", "183003.987000", "183005.215000", "183006.528000", "183007.733000", "183008.979000", "183010.248000", "183011.482000", "183012.734000", "183013.955000", "183015.239000", "183016.462000", "183017.732000", "183019.037000", "183020.237000", "183021.493000", "183022.719000", "183024.025000", "183025.248000", "183026.474000", "183027.722000", "183028.993000", "183030.217000", "183031.485000", "183032.729000", "183033.991000", "183035.234000", "183036.473000", "183037.740000", "183038.971000", "183040.223000", "183041.474000", "183042.725000", "183043.978000", "183045.216000", "183046.502000", "183047.731000", "183048.986000", "183050.234000", "183051.476000", "183052.718000", "183053.983000", "183055.221000", "183056.464000", "183057.745000", "183059.020000", "183100.251000", "183101.477000", "183102.744000", "183103.984000", "183105.214000", "183106.575000", "183107.743000", "183108.975000", "183110.225000", "183111.472000", "183112.733000", "183113.980000", "183115.215000", "183116.479000", "183117.746000", "183118.986000", "183120.222000", "183121.493000", "183122.711000", "183123.997000", "183125.262000", "183126.495000", "183127.743000", "183128.960000", "183130.227000", "183131.552000"],
      "InstanceNumber": [1, 2, 3, 4, 5, 6, 7, 8, 9, 10, 11, 12, 13, 14, 15, 16, 17, 18, 19, 20, 21, 22, 23, 24, 25, 26, 27, 28, 29, 30, 31, 32, 33, 34, 35, 36, 37, 38, 39, 40, 41, 42, 43, 44, 45, 46, 47, 48, 49, 50, 51, 52, 53, 54, 55, 56, 57, 58, 59, 60, 61, 62, 63, 64, 65, 66, 67, 68, 69, 70, 71, 72, 73, 74, 75, 76, 77, 78, 79, 80, 81, 82, 83, 84, 85, 86, 87, 88, 89, 90, 91, 92, 93, 94, 95, 96, 97, 98, 99, 100, 101, 102, 103, 104, 105, 106, 107, 108, 109, 110, 111, 112, 113, 114, 115, 116, 117, 118, 119, 120, 121, 122, 123, 124, 125, 126, 127, 128, 129, 130, 131, 132, 133, 134, 135, 136, 137, 138, 139, 140, 141, 142, 143, 144, 145, 146, 147, 148, 149, 150, 151, 152, 153, 154, 155, 156, 157, 158, 159, 160, 161, 162, 163, 164, 165, 166, 167, 168, 169, 170, 171, 172, 173, 174, 175, 176, 177, 178, 179, 180, 181, 182, 183, 184, 185, 186, 187, 188, 189, 190, 191, 192, 193, 194, 195, 196, 197, 198, 199, 200, 201, 202, 203, 204, 205, 206, 207, 208, 209, 210, 211, 212, 213, 214, 215, 216, 217, 218, 219, 220, 221, 222, 223, 224, 225, 226, 227, 228, 229, 230, 231, 232, 233, 234, 235, 236, 237, 238, 239, 240, 241, 242, 243, 244, 245, 246, 247, 248, 249, 250, 251, 252, 253, 254, 255, 256, 257, 258, 259, 260, 261, 262, 263, 264, 265, 266, 267, 268, 269, 270, 271, 272, 273, 274, 275, 276, 277, 278, 279, 280],
      "LargestImagePixelValue": [1439, 1287, 934, 1002, 1052, 982, 1083, 806, 823, 913, 1010, 1085, 860, 917, 961, 1077, 900, 868, 1010, 1137, 1223, 879, 1015, 1120, 1284, 877, 966, 1054, 1140, 943, 1060, 1134, 934, 921, 989, 1000, 844, 955, 1082, 1074, 1031, 853, 981, 955, 892, 987, 982, 1164, 1318, 771, 898, 1034, 1003, 908, 746, 959, 1051, 922, 1032, 1063, 1029, 1033, 998, 885, 1086, 1057, 907, 904, 1017, 1111, 919, 901, 1041, 1158, 956, 972, 1094, 976, 1077, 920, 1015, 1114, 1189, 824, 885, 1051, 888, 904, 1007, 1195, 804, 923, 1039, 1296, 784, 915, 1077, 1346, 769, 857, 1101, 786, 885, 1178, 1126, 819, 1015, 1153, 910, 941, 1156, 1032, 1071, 881, 880, 920, 929, 804, 786, 898, 1083, 1017, 882, 1005, 1277, 1096, 843, 1023, 960, 1131, 835, 901, 1010, 1109, 784, 916, 1019, 1167, 793, 928, 1195, 1020, 835, 954, 1283, 794, 910, 996, 1099, 919, 781, 969, 858, 922, 1161, 1114, 1155, 906, 1188, 896, 992, 964, 788, 847, 1088, 1158, 1015, 1006, 915, 1029, 1134, 787, 856, 936, 1020, 823, 890, 1011, 1184, 1079, 876, 933, 1097, 857, 868, 966, 1176, 782, 919, 1181, 907, 868, 1093, 922, 1227, 937, 881, 1213, 1100, 839, 926, 948, 927, 872, 985, 972, 816, 1025, 1104, 1193, 1003, 830, 910, 975, 1048, 823, 901, 1212, 1230, 751, 896, 1020, 790, 898, 929, 913, 935, 832, 926, 954, 900, 885, 974, 819, 1184, 979, 1112, 812, 938, 1214, 771, 929, 1363, 787, 898, 965, 941, 776, 767, 830, 973, 818, 851, 1205, 1242, 959, 861, 1095, 846, 804, 1006, 863, 870, 1245, 845, 870, 1123, 824, 985, 1295, 977, 876, 925, 1000, 929, 945, 955, 778, 925, 1209],
      "WindowCenter": [381.0, 378.0, 374.0, 374.0, 374.0, 374.0, 375.0, 374.0, 374.0, 376.0, 377.0, 379.0, 376.0, 377.0, 378.0, 379.0, 378.0, 377.0, 379.0, 379.0, 380.0, 377.0, 378.0, 379.0, 380.0, 376.0, 377.0, 379.0, 379.0, 377.0, 378.0, 379.0, 377.0, 377.0, 378.0, 379.0, 377.0, 379.0, 379.0, 379.0, 379.0, 377.0, 379.0, 378.0, 378.0, 380.0, 379.0, 380.0, 382.0, 376.0, 377.0, 377.0, 377.0, 376.0, 375.0, 378.0, 379.0, 378.0, 378.0, 378.0, 378.0, 378.0, 377.0, 376.0, 378.0, 378.0, 376.0, 376.0, 377.0, 378.0, 377.0, 377.0, 379.0, 380.0, 378.0, 378.0, 379.0, 378.0, 379.0, 377.0, 379.0, 379.0, 379.0, 375.0, 376.0, 377.0, 376.0, 376.0, 377.0, 379.0, 376.0, 377.0, 378.0, 380.0, 375.0, 376.0, 378.0, 379.0, 375.0, 376.0, 379.0, 376.0, 377.0, 380.0, 379.0, 376.0, 378.0, 379.0, 377.0, 377.0, 379.0, 377.0, 378.0, 377.0, 376.0, 377.0, 377.0, 377.0, 377.0, 379.0, 381.0, 379.0, 377.0, 378.0, 380.0, 378.0, 375.0, 377.0, 377.0, 378.0, 375.0, 376.0, 377.0, 378.0, 376.0, 377.0, 379.0, 380.0, 376.0, 377.0, 380.0, 378.0, 376.0, 377.0, 380.0, 376.0, 376.0, 377.0, 378.0, 376.0, 376.0, 378.0, 378.0, 379.0, 380.0, 380.0, 379.0, 377.0, 379.0, 376.0, 377.0, 378.0, 376.0, 377.0, 379.0, 379.0, 378.0, 378.0, 377.0, 377.0, 378.0, 375.0, 376.0, 377.0, 378.0, 377.0, 377.0, 378.0, 379.0, 378.0, 375.0, 377.0, 378.0, 376.0, 377.0, 378.0, 380.0, 376.0, 378.0, 380.0, 378.0, 377.0, 379.0, 378.0, 380.0, 377.0, 377.0, 380.0, 379.0, 376.0, 378.0, 377.0, 378.0, 378.0, 378.0, 378.0, 377.0, 379.0, 379.0, 379.0, 377.0, 376.0, 377.0, 378.0, 379.0, 376.0, 377.0, 379.0, 379.0, 374.0, 376.0, 377.0, 376.0, 377.0, 377.0, 377.0, 377.0, 376.0, 377.0, 378.0, 378.0, 378.0, 378.0, 377.0, 379.0, 377.0, 378.0, 375.0, 376.0, 379.0, 375.0, 377.0, 380.0, 375.0, 376.0, 377.0, 377.0, 376.0, 376.0, 378.0, 380.0, 378.0, 378.0, 380.0, 379.0, 377.0, 376.0, 378.0, 376.0, 376.0, 378.0, 377.0, 377.0, 380.0, 376.0, 377.0, 379.0, 377.0, 378.0, 380.0, 378.0, 375.0, 377.0, 378.0, 377.0, 377.0, 378.0, 376.0, 378.0, 381.0],
      "WindowWidth": [810.0, 804.0, 797.0, 797.0, 797.0, 797.0, 800.0, 798.0, 799.0, 801.0, 804.0, 806.0, 803.0, 803.0, 805.0, 807.0, 806.0, 804.0, 806.0, 807.0, 808.0, 803.0, 805.0, 807.0, 808.0, 802.0, 804.0, 806.0, 807.0, 804.0, 806.0, 806.0, 804.0, 804.0, 805.0, 806.0, 804.0, 807.0, 807.0, 806.0, 806.0, 804.0, 806.0, 806.0, 806.0, 808.0, 807.0, 809.0, 811.0, 802.0, 803.0, 804.0, 803.0, 802.0, 801.0, 805.0, 807.0, 805.0, 806.0, 805.0, 804.0, 804.0, 803.0, 801.0, 804.0, 804.0, 802.0, 802.0, 803.0, 805.0, 804.0, 804.0, 806.0, 808.0, 805.0, 805.0, 806.0, 805.0, 807.0, 804.0, 806.0, 807.0, 806.0, 801.0, 802.0, 803.0, 802.0, 802.0, 803.0, 806.0, 803.0, 804.0, 806.0, 808.0, 801.0, 802.0, 804.0, 807.0, 800.0, 802.0, 807.0, 803.0, 805.0, 809.0, 807.0, 803.0, 805.0, 806.0, 803.0, 803.0, 806.0, 803.0, 804.0, 803.0, 802.0, 804.0, 804.0, 805.0, 805.0, 807.0, 810.0, 807.0, 804.0, 805.0, 807.0, 804.0, 801.0, 803.0, 803.0, 805.0, 801.0, 802.0, 803.0, 805.0, 802.0, 804.0, 806.0, 808.0, 803.0, 805.0, 808.0, 805.0, 803.0, 804.0, 808.0, 802.0, 802.0, 803.0, 804.0, 801.0, 802.0, 805.0, 805.0, 807.0, 809.0, 808.0, 806.0, 804.0, 806.0, 802.0, 804.0, 805.0, 802.0, 804.0, 807.0, 807.0, 805.0, 805.0, 803.0, 803.0, 805.0, 800.0, 802.0, 804.0, 806.0, 804.0, 804.0, 805.0, 807.0, 804.0, 800.0, 803.0, 805.0, 802.0, 803.0, 805.0, 808.0, 802.0, 806.0, 809.0, 806.0, 804.0, 807.0, 806.0, 808.0, 804.0, 804.0, 809.0, 806.0, 803.0, 804.0, 804.0, 805.0, 805.0, 806.0, 806.0, 805.0, 807.0, 807.0, 807.0, 804.0, 801.0, 803.0, 805.0, 806.0, 803.0, 803.0, 806.0, 806.0, 798.0, 802.0, 804.0, 801.0, 803.0, 803.0, 803.0, 804.0, 803.0, 803.0, 805.0, 805.0, 805.0, 805.0, 803.0, 807.0, 803.0, 804.0, 800.0, 801.0, 806.0, 801.0, 804.0, 808.0, 801.0, 802.0, 804.0, 803.0, 802.0, 802.0, 805.0, 808.0, 806.0, 806.0, 808.0, 807.0, 804.0, 802.0, 805.0, 803.0, 802.0, 805.0, 804.0, 804.0, 807.0, 802.0, 803.0, 807.0, 803.0, 805.0, 808.0, 805.0, 800.0, 803.0, 805.0, 803.0, 804.0, 805.0, 803.0, 806.0, 809.0]
    },
    "slices": {}
  }
}