{
  "AcquisitionMatrixPE": 96,
  "AcquisitionNumber": 1,
  "AcquisitionTime": "17:24:21.805000",
  "BandwidthPerPixelPhaseEncode": 18.939,
  "BaseResolution": 96,
  "BodyPartExamined": "BRAIN",
  "ConsistencyInfo": "N4_VE11C_LATEST_20160120",
  "ConversionSoftware": "dcm2niix",
  "ConversionSoftwareVersion": "v1.0.20170923 (OpenJPEG build) GCC6.3.0",
  "DerivedVendorReportedEchoSpacing": 0.000550011,
  "DeviceSerialNumber": "66112",
  "DwellTime": 2.3e-06,
  "EchoTime": 0.033,
  "EchoTrainLength": 96,
  "EffectiveEchoSpacing": 0.000550011,
  "FlipAngle": 64,
  "ImageType": [
    "ORIGINAL",
    "PRIMARY",
    "FMRI",
    "NONE",
    "ND",
    "NORM",
    "MOSAIC"
],
  "InstitutionAddress": "Maynard_3_Hanover_NH_US_03755",
  "InstitutionName": "Dartmouth_College_-_PBS",
  "MagneticFieldStrength": 3,
  "Manufacturer": "Siemens",
  "ManufacturersModelName": "Prisma",
  "Modality": "MR",
  "MultibandAccelerationFactor": 4,
  "PartialFourier": 1,
  "PercentPhaseFOV": 100,
  "PhaseEncodingDirection": "j-",
  "PhaseEncodingSteps": 96,
  "PhaseResolution": 1,
  "ProcedureStepDescription": "Gobbini_Matteo_1017_famface-angles",
  "ProtocolName": "func_run-02_task-str1back",
  "PulseSequenceDetails": "%SiemensSeq%_ep2d_bold",
  "ReceiveCoilActiveElements": "HEA;HEP",
  "ReceiveCoilName": "Head_32",
  "ReconMatrixPE": 96,
  "RepetitionTime": 1.25,
  "ScanOptions": "FS",
  "ScanningSequence": "EP",
  "SequenceName": "_epfid2d1_96",
  "SequenceVariant": "SK",
  "SeriesDescription": "func_run-02_task-str1back",
  "SliceTiming": [0.88, 0, 0.615, 0.0875, 0.7025, 0.175, 0.79, 0.3525, 0.9675, 0.44, 1.055, 0.5275, 1.1425, 0.265, 0.88, 0, 0.615, 0.0875, 0.7025, 0.175, 0.79, 0.3525, 0.9675, 0.44, 1.055, 0.5275, 1.1425, 0.265, 0.88, 0, 0.615, 0.0875, 0.7025, 0.175, 0.79, 0.3525, 0.9675, 0.44, 1.055, 0.5275, 1.1425, 0.265, 0.88, 0, 0.615, 0.0875, 0.7025, 0.175, 0.79, 0.3525, 0.9675, 0.44, 1.055, 0.5275, 1.1425, 0.265],
  "SoftwareVersions": "syngo_MR_E11",
  "StationName": "AWP66112",
  "TaskName": "str1back",
  "TotalReadoutTime": 0.0522511,
  "dcmmeta_affine": [
    [-2.4963953495025635, -0.10681237280368805, 0.0812472403049469, 129.85928344726562],
    [-0.10800638049840927, 2.497415781021118, -0.03534572571516037, -94.96044921875],
    [0.07965310662984848, 0.03880485147237778, 2.498429298400879, -97.97564697265625],
    [0.0, 0.0, 0.0, 1.0]
],
  "dcmmeta_reorient_transform": [
    [0.0, -1.0, 0.0, 95.0],
    [1.0, 0.0, 0.0, 0.0],
    [0.0, 0.0, 1.0, 0.0],
    [0.0, 0.0, 0.0, 1.0]
],
  "dcmmeta_shape": [96, 96, 56, 280],
  "dcmmeta_slice_dim": 2,
  "dcmmeta_version": 0.6,
  "global": {
    "const": {
      "AccessionNumber": "A000288",
      "AcquisitionMatrix": [96, 0, 0, 96],
      "AngioFlag": "N",
      "BitsAllocated": 16,
      "BitsStored": 12,
      "BodyPartExamined": "BRAIN",
      "Columns": 768,
      "EchoNumbers": 1,
      "EchoTime": 33.0,
      "EchoTrainLength": 96,
      "FlipAngle": 64.0,
      "HighBit": 11,
      "ImageOrientationPatient": [0.99855816080821, 0.0432025534305, 0.03186124386161, -0.0427249486984, 0.99896628978956, -0.0155219400461],
      "ImagePositionPatient": [-922.61200387232, -1017.7158751205, -108.01419998561],
      "ImageType": [
        "ORIGINAL",
        "PRIMARY",
        "FMRI",
        "NONE",
        "ND",
        "NORM",
        "MOSAIC"
],
      "ImagedNucleus": "1H",
      "ImagingFrequency": 123.252406,
      "InPlanePhaseEncodingDirection": "COL",
      "MRAcquisitionType": "2D",
      "MagneticFieldStrength": 3.0,
      "Manufacturer": "SIEMENS",
      "ManufacturerModelName": "Prisma",
      "Modality": "MR",
      "NumberOfAverages": 1.0,
      "NumberOfPhaseEncodingSteps": 96,
      "PercentPhaseFieldOfView": 100.0,
      "PercentSampling": 100.0,
      "PerformedProcedureStepStartTime": "165832.023000",
      "PhotometricInterpretation": "MONOCHROME2",
      "PixelBandwidth": 2265.0,
      "PixelRepresentation": 0,
      "PixelSpacing": [2.5, 2.5],
      "PositionReferenceIndicator": "",
      "ProtocolName": "func_run-02_task-str1back",
      "RepetitionTime": 1250.0,
      "Rows": 768,
      "SAR": 0.0521049680728,
      "SamplesPerPixel": 1,
      "ScanOptions": "FS",
      "ScanningSequence": "EP",
      "SequenceName": "*epfid2d1_96",
      "SequenceVariant": "SK",
      "SeriesDescription": "func_run-02_task-str1back",
      "SeriesNumber": 18,
      "SeriesTime": "172423.123000",
      "SliceLocation": -92.351232499625,
      "SliceThickness": 2.5,
      "SmallestImagePixelValue": 0,
      "SoftwareVersions": "syngo MR E11",
      "SpacingBetweenSlices": 2.4999999647722,
      "SpecificCharacterSet": "ISO_IR 100",
      "StudyID": "1",
      "StudyTime": "165831.981000",
      "TransmitCoilName": "Body",
      "VariableFlipAngleFlag": "N",
      "WindowCenterWidthExplanation": "Algo1",
      "dBdt": 0.0},
    "slices": {}
  },
  "time": {
    "samples": {
      "AcquisitionNumber": [1, 2, 3, 4, 5, 6, 7, 8, 9, 10, 11, 12, 13, 14, 15, 16, 17, 18, 19, 20, 21, 22, 23, 24, 25, 26, 27, 28, 29, 30, 31, 32, 33, 34, 35, 36, 37, 38, 39, 40, 41, 42, 43, 44, 45, 46, 47, 48, 49, 50, 51, 52, 53, 54, 55, 56, 57, 58, 59, 60, 61, 62, 63, 64, 65, 66, 67, 68, 69, 70, 71, 72, 73, 74, 75, 76, 77, 78, 79, 80, 81, 82, 83, 84, 85, 86, 87, 88, 89, 90, 91, 92, 93, 94, 95, 96, 97, 98, 99, 100, 101, 102, 103, 104, 105, 106, 107, 108, 109, 110, 111, 112, 113, 114, 115, 116, 117, 118, 119, 120, 121, 122, 123, 124, 125, 126, 127, 128, 129, 130, 131, 132, 133, 134, 135, 136, 137, 138, 139, 140, 141, 142, 143, 144, 145, 146, 147, 148, 149, 150, 151, 152, 153, 154, 155, 156, 157, 158, 159, 160, 161, 162, 163, 164, 165, 166, 167, 168, 169, 170, 171, 172, 173, 174, 175, 176, 177, 178, 179, 180, 181, 182, 183, 184, 185, 186, 187, 188, 189, 190, 191, 192, 193, 194, 195, 196, 197, 198, 199, 200, 201, 202, 203, 204, 205, 206, 207, 208, 209, 210, 211, 212, 213, 214, 215, 216, 217, 218, 219, 220, 221, 222, 223, 224, 225, 226, 227, 228, 229, 230, 231, 232, 233, 234, 235, 236, 237, 238, 239, 240, 241, 242, 243, 244, 245, 246, 247, 248, 249, 250, 251, 252, 253, 254, 255, 256, 257, 258, 259, 260, 261, 262, 263, 264, 265, 266, 267, 268, 269, 270, 271, 272, 273, 274, 275, 276, 277, 278, 279, 280],
      "AcquisitionTime": ["172421.805000", "172423.055000", "172424.305000", "172425.555000", "172426.805000", "172428.055000", "172429.305000", "172430.555000", "172431.805000", "172433.055000", "172434.305000", "172435.555000", "172436.805000", "172438.055000", "172439.305000", "172440.555000", "172441.805000", "172443.055000", "172444.305000", "172445.555000", "172446.805000", "172448.055000", "172449.305000", "172450.555000", "172451.805000", "172453.055000", "172454.305000", "172455.555000", "172456.805000", "172458.055000", "172459.305000", "172500.555000", "172501.805000", "172503.055000", "172504.305000", "172505.555000", "172506.805000", "172508.055000", "172509.305000", "172510.555000", "172511.805000", "172513.055000", "172514.305000", "172515.555000", "172516.805000", "172518.055000", "172519.305000", "172520.555000", "172521.805000", "172523.055000", "172524.305000", "172525.555000", "172526.805000", "172528.055000", "172529.305000", "172530.555000", "172531.805000", "172533.055000", "172534.305000", "172535.555000", "172536.805000", "172538.055000", "172539.305000", "172540.555000", "172541.805000", "172543.055000", "172544.305000", "172545.555000", "172546.805000", "172548.055000", "172549.305000", "172550.555000", "172551.805000", "172553.055000", "172554.305000", "172555.555000", "172556.805000", "172558.055000", "172559.305000", "172600.555000", "172601.805000", "172603.055000", "172604.305000", "172605.555000", "172606.805000", "172608.055000", "172609.305000", "172610.555000", "172611.805000", "172613.055000", "172614.305000", "172615.555000", "172616.805000", "172618.055000", "172619.305000", "172620.555000", "172621.805000", "172623.055000", "172624.305000", "172625.555000", "172626.805000", "172628.055000", "172629.305000", "172630.555000", "172631.805000", "172633.055000", "172634.305000", "172635.555000", "172636.805000", "172638.055000", "172639.305000", "172640.555000", "172641.805000", "172643.055000", "172644.305000", "172645.555000", "172646.805000", "172648.055000", "172649.305000", "172650.555000", "172651.805000", "172653.055000", "172654.305000", "172655.555000", "172656.805000", "172658.055000", "172659.305000", "172700.555000", "172701.805000", "172703.055000", "172704.305000", "172705.555000", "172706.805000", "172708.055000", "172709.305000", "172710.555000", "172711.805000", "172713.055000", "172714.305000", "172715.555000", "172716.805000", "172718.055000", "172719.305000", "172720.555000", "172721.805000", "172723.055000", "172724.305000", "172725.555000", "172726.805000", "172728.055000", "172729.305000", "172730.555000", "172731.805000", "172733.055000", "172734.305000", "172735.555000", "172736.805000", "172738.055000", "172739.305000", "172740.555000", "172741.805000", "172743.055000", "172744.305000", "172745.555000", "172746.805000", "172748.055000", "172749.305000", "172750.555000", "172751.805000", "172753.055000", "172754.305000", "172755.555000", "172756.805000", "172758.055000", "172759.305000", "172800.555000", "172801.805000", "172803.055000", "172804.305000", "172805.555000", "172806.805000", "172808.055000", "172809.305000", "172810.555000", "172811.805000", "172813.055000", "172814.305000", "172815.555000", "172816.805000", "172818.055000", "172819.305000", "172820.555000", "172821.805000", "172823.055000", "172824.305000", "172825.555000", "172826.805000", "172828.055000", "172829.305000", "172830.555000", "172831.805000", "172833.055000", "172834.305000", "172835.555000", "172836.805000", "172838.055000", "172839.305000", "172840.555000", "172841.805000", "172843.055000", "172844.305000", "172845.555000", "172846.805000", "172848.055000", "172849.305000", "172850.555000", "172851.805000", "172853.055000", "172854.305000", "172855.555000", "172856.805000", "172858.055000", "172859.305000", "172900.555000", "172901.805000", "172903.055000", "172904.305000", "172905.555000", "172906.805000", "172908.055000", "172909.305000", "172910.555000", "172911.805000", "172913.055000", "172914.305000", "172915.555000", "172916.805000", "172918.055000", "172919.305000", "172920.555000", "172921.805000", "172923.055000", "172924.305000", "172925.555000", "172926.805000", "172928.055000", "172929.305000", "172930.555000", "172931.805000", "172933.055000", "172934.305000", "172935.555000", "172936.805000", "172938.055000", "172939.305000", "172940.555000", "172941.805000", "172943.055000", "172944.305000", "172945.555000", "172946.805000", "172948.055000", "172949.305000", "172950.555000", "172951.805000", "172953.055000", "172954.305000", "172955.555000", "172956.805000", "172958.055000", "172959.305000", "173000.555000", "173001.805000", "173003.055000", "173004.305000", "173005.555000", "173006.805000", "173008.055000", "173009.305000", "173010.555000"],
      "ContentTime": ["172423.127000", "172424.165000", "172425.411000", "172426.656000", "172427.907000", "172429.158000", "172430.464000", "172431.657000", "172432.922000", "172434.197000", "172435.407000", "172436.653000", "172437.891000", "172439.168000", "172440.406000", "172441.664000", "172442.915000", "172444.162000", "172445.408000", "172446.688000", "172447.895000", "172449.155000", "172450.448000", "172451.648000", "172452.891000", "172454.193000", "172455.400000", "172456.667000", "172457.932000", "172459.155000", "172500.412000", "172501.636000", "172502.905000", "172504.154000", "172505.442000", "172506.649000", "172507.890000", "172509.164000", "172510.437000", "172511.643000", "172512.901000", "172514.147000", "172515.399000", "172516.641000", "172517.906000", "172519.161000", "172520.377000", "172521.653000", "172522.928000", "172524.137000", "172525.394000", "172526.661000", "172527.914000", "172529.154000", "172530.393000", "172531.652000", "172532.895000", "172534.146000", "172535.406000", "172536.716000", "172537.909000", "172539.147000", "172540.402000", "172541.675000", "172542.898000", "172544.146000", "172545.391000", "172546.658000", "172547.931000", "172549.160000", "172550.392000", "172551.680000", "172552.915000", "172554.148000", "172555.420000", "172556.652000", "172557.894000", "172559.169000", "172600.402000", "172601.647000", "172602.899000", "172604.157000", "172605.385000", "172606.656000", "172607.908000", "172609.142000", "172610.406000", "172611.645000", "172612.891000", "172614.160000", "172615.414000", "172616.641000", "172617.898000", "172619.159000", "172620.413000", "172621.651000", "172622.954000", "172624.156000", "172625.394000", "172626.638000", "172627.916000", "172629.172000", "172630.402000", "172631.650000", "172632.913000", "172634.188000", "172635.447000", "172636.662000", "172637.919000", "172639.151000", "172640.394000", "172641.678000", "172642.898000", "172644.169000", "172645.403000", "172646.698000", "172647.915000", "172649.158000", "172650.406000", "172651.670000", "172652.930000", "172654.157000", "172655.402000", "172656.687000", "172657.940000", "172659.190000", "172700.420000", "172701.658000", "172702.913000", "172704.189000", "172705.397000", "172706.677000", "172707.908000", "172709.175000", "172710.416000", "172711.648000", "172712.911000", "172714.165000", "172715.400000", "172716.691000", "172717.968000", "172719.177000", "172720.400000", "172721.651000", "172722.918000", "172724.160000", "172725.428000", "172726.643000", "172727.947000", "172729.162000", "172730.407000", "172731.641000", "172732.934000", "172734.166000", "172735.414000", "172736.652000", "172737.925000", "172739.164000", "172740.413000", "172741.714000", "172742.905000", "172744.171000", "172745.412000", "172746.632000", "172747.892000", "172749.172000", "172750.385000", "172751.655000", "172752.895000", "172754.147000", "172755.406000", "172756.661000", "172757.896000", "172759.185000", "172800.394000", "172801.664000", "172802.911000", "172804.152000", "172805.436000", "172806.665000", "172807.911000", "172809.148000", "172810.424000", "172811.715000", "172812.897000", "172814.151000", "172815.425000", "172816.665000", "172817.907000", "172819.152000", "172820.456000", "172821.665000", "172822.924000", "172824.145000", "172825.391000", "172826.668000", "172827.900000", "172829.145000", "172830.426000", "172831.655000", "172832.941000", "172834.166000", "172835.418000", "172836.657000", "172837.890000", "172839.218000", "172840.401000", "172841.647000", "172842.922000", "172844.146000", "172845.429000", "172846.647000", "172847.902000", "172849.181000", "172850.395000", "172851.683000", "172852.944000", "172854.136000", "172855.428000", "172856.666000", "172857.906000", "172859.165000", "172900.413000", "172901.654000", "172902.930000", "172904.166000", "172905.418000", "172906.653000", "172907.914000", "172909.156000", "172910.419000", "172911.661000", "172912.921000", "172914.161000", "172915.420000", "172916.681000", "172917.909000", "172919.219000", "172920.397000", "172921.692000", "172922.913000", "172924.165000", "172925.389000", "172926.663000", "172927.917000", "172929.156000", "172930.396000", "172931.657000", "172932.908000", "172934.206000", "172935.428000", "172936.684000", "172937.903000", "172939.175000", "172940.396000", "172941.648000", "172942.911000", "172944.149000", "172945.390000", "172946.656000", "172947.909000", "172949.174000", "172950.394000", "172951.650000", "172952.914000", "172954.175000", "172955.410000", "172956.658000", "172957.902000", "172959.163000", "173000.413000", "173001.663000", "173002.914000", "173004.159000", "173005.407000", "173006.717000", "173007.930000", "173009.175000", "173010.417000", "173011.708000"],
      "InstanceCreationTime": ["172423.127000", "172424.165000", "172425.411000", "172426.656000", "172427.907000", "172429.158000", "172430.464000", "172431.657000", "172432.922000", "172434.197000", "172435.407000", "172436.653000", "172437.891000", "172439.168000", "172440.406000", "172441.664000", "172442.915000", "172444.162000", "172445.408000", "172446.688000", "172447.895000", "172449.155000", "172450.448000", "172451.648000", "172452.891000", "172454.193000", "172455.400000", "172456.667000", "172457.932000", "172459.155000", "172500.412000", "172501.636000", "172502.905000", "172504.154000", "172505.442000", "172506.649000", "172507.890000", "172509.164000", "172510.437000", "172511.643000", "172512.901000", "172514.147000", "172515.399000", "172516.641000", "172517.906000", "172519.161000", "172520.377000", "172521.653000", "172522.928000", "172524.137000", "172525.394000", "172526.661000", "172527.914000", "172529.154000", "172530.393000", "172531.652000", "172532.895000", "172534.146000", "172535.406000", "172536.716000", "172537.909000", "172539.147000", "172540.402000", "172541.675000", "172542.898000", "172544.146000", "172545.391000", "172546.658000", "172547.931000", "172549.160000", "172550.392000", "172551.680000", "172552.915000", "172554.148000", "172555.420000", "172556.652000", "172557.894000", "172559.169000", "172600.402000", "172601.647000", "172602.899000", "172604.157000", "172605.385000", "172606.656000", "172607.908000", "172609.142000", "172610.406000", "172611.645000", "172612.891000", "172614.160000", "172615.414000", "172616.641000", "172617.898000", "172619.159000", "172620.413000", "172621.651000", "172622.954000", "172624.156000", "172625.394000", "172626.638000", "172627.916000", "172629.172000", "172630.402000", "172631.650000", "172632.913000", "172634.188000", "172635.447000", "172636.662000", "172637.919000", "172639.151000", "172640.394000", "172641.678000", "172642.898000", "172644.169000", "172645.403000", "172646.698000", "172647.915000", "172649.158000", "172650.406000", "172651.670000", "172652.930000", "172654.157000", "172655.402000", "172656.687000", "172657.940000", "172659.190000", "172700.420000", "172701.658000", "172702.913000", "172704.189000", "172705.397000", "172706.677000", "172707.908000", "172709.175000", "172710.416000", "172711.648000", "172712.911000", "172714.165000", "172715.400000", "172716.691000", "172717.968000", "172719.177000", "172720.400000", "172721.651000", "172722.918000", "172724.160000", "172725.428000", "172726.643000", "172727.947000", "172729.162000", "172730.407000", "172731.641000", "172732.934000", "172734.166000", "172735.414000", "172736.652000", "172737.925000", "172739.164000", "172740.413000", "172741.714000", "172742.905000", "172744.171000", "172745.412000", "172746.632000", "172747.892000", "172749.172000", "172750.385000", "172751.655000", "172752.895000", "172754.147000", "172755.406000", "172756.661000", "172757.896000", "172759.185000", "172800.394000", "172801.664000", "172802.911000", "172804.152000", "172805.436000", "172806.665000", "172807.911000", "172809.148000", "172810.424000", "172811.715000", "172812.897000", "172814.151000", "172815.425000", "172816.665000", "172817.907000", "172819.152000", "172820.456000", "172821.665000", "172822.924000", "172824.145000", "172825.391000", "172826.668000", "172827.900000", "172829.145000", "172830.426000", "172831.655000", "172832.941000", "172834.166000", "172835.418000", "172836.657000", "172837.890000", "172839.218000", "172840.401000", "172841.647000", "172842.922000", "172844.146000", "172845.429000", "172846.647000", "172847.902000", "172849.181000", "172850.395000", "172851.683000", "172852.944000", "172854.136000", "172855.428000", "172856.666000", "172857.906000", "172859.165000", "172900.413000", "172901.654000", "172902.930000", "172904.166000", "172905.418000", "172906.653000", "172907.914000", "172909.156000", "172910.419000", "172911.661000", "172912.921000", "172914.161000", "172915.420000", "172916.681000", "172917.909000", "172919.219000", "172920.397000", "172921.692000", "172922.913000", "172924.165000", "172925.389000", "172926.663000", "172927.917000", "172929.156000", "172930.396000", "172931.657000", "172932.908000", "172934.206000", "172935.428000", "172936.684000", "172937.903000", "172939.175000", "172940.396000", "172941.648000", "172942.911000", "172944.149000", "172945.390000", "172946.656000", "172947.909000", "172949.174000", "172950.394000", "172951.650000", "172952.914000", "172954.175000", "172955.410000", "172956.658000", "172957.902000", "172959.163000", "173000.413000", "173001.663000", "173002.914000", "173004.159000", "173005.407000", "173006.717000", "173007.930000", "173009.175000", "173010.417000", "173011.708000"],
      "InstanceNumber": [1, 2, 3, 4, 5, 6, 7, 8, 9, 10, 11, 12, 13, 14, 15, 16, 17, 18, 19, 20, 21, 22, 23, 24, 25, 26, 27, 28, 29, 30, 31, 32, 33, 34, 35, 36, 37, 38, 39, 40, 41, 42, 43, 44, 45, 46, 47, 48, 49, 50, 51, 52, 53, 54, 55, 56, 57, 58, 59, 60, 61, 62, 63, 64, 65, 66, 67, 68, 69, 70, 71, 72, 73, 74, 75, 76, 77, 78, 79, 80, 81, 82, 83, 84, 85, 86, 87, 88, 89, 90, 91, 92, 93, 94, 95, 96, 97, 98, 99, 100, 101, 102, 103, 104, 105, 106, 107, 108, 109, 110, 111, 112, 113, 114, 115, 116, 117, 118, 119, 120, 121, 122, 123, 124, 125, 126, 127, 128, 129, 130, 131, 132, 133, 134, 135, 136, 137, 138, 139, 140, 141, 142, 143, 144, 145, 146, 147, 148, 149, 150, 151, 152, 153, 154, 155, 156, 157, 158, 159, 160, 161, 162, 163, 164, 165, 166, 167, 168, 169, 170, 171, 172, 173, 174, 175, 176, 177, 178, 179, 180, 181, 182, 183, 184, 185, 186, 187, 188, 189, 190, 191, 192, 193, 194, 195, 196, 197, 198, 199, 200, 201, 202, 203, 204, 205, 206, 207, 208, 209, 210, 211, 212, 213, 214, 215, 216, 217, 218, 219, 220, 221, 222, 223, 224, 225, 226, 227, 228, 229, 230, 231, 232, 233, 234, 235, 236, 237, 238, 239, 240, 241, 242, 243, 244, 245, 246, 247, 248, 249, 250, 251, 252, 253, 254, 255, 256, 257, 258, 259, 260, 261, 262, 263, 264, 265, 266, 267, 268, 269, 270, 271, 272, 273, 274, 275, 276, 277, 278, 279, 280],
      "LargestImagePixelValue": [1042, 762, 951, 943, 786, 959, 930, 883, 1116, 1431, 1109, 865, 1058, 963, 779, 995, 1503, 799, 841, 1190, 972, 759, 953, 1249, 860, 870, 1209, 1007, 1045, 934, 957, 995, 1004, 863, 964, 1169, 829, 960, 1162, 775, 897, 1179, 770, 837, 1181, 919, 906, 1184, 991, 928, 1211, 1180, 966, 1015, 1233, 864, 1121, 1337, 846, 1052, 1109, 1002, 935, 969, 805, 1050, 919, 872, 1037, 1084, 1323, 1260, 1032, 1142, 997, 777, 833, 991, 869, 753, 961, 1000, 898, 950, 1059, 931, 846, 898, 1306, 841, 850, 1045, 1096, 851, 923, 1077, 1090, 850, 1204, 940, 1169, 1016, 941, 784, 1052, 897, 865, 949, 1495, 1035, 807, 884, 1087, 809, 863, 1016, 1333, 1059, 772, 887, 1082, 896, 906, 1205, 881, 841, 980, 1035, 973, 801, 839, 943, 890, 897, 948, 1012, 884, 989, 1025, 931, 1102, 885, 1145, 865, 818, 1062, 1131, 812, 909, 1028, 1104, 850, 840, 893, 1261, 812, 794, 1034, 1041, 901, 936, 822, 1120, 915, 797, 978, 1057, 852, 1007, 1284, 918, 1038, 1250, 787, 1037, 884, 823, 1084, 1022, 808, 1041, 1076, 852, 1007, 842, 1025, 940, 1477, 840, 876, 1032, 821, 865, 943, 1086, 978, 845, 1120, 908, 801, 972, 1022, 937, 931, 1189, 1093, 962, 1189, 833, 788, 1079, 834, 874, 1086, 888, 825, 1483, 830, 792, 1099, 862, 866, 1089, 878, 840, 1093, 952, 789, 1080, 886, 795, 1012, 1311, 880, 793, 1016, 1258, 844, 889, 1170, 855, 836, 964, 941, 819, 884, 1110, 1120, 879, 889, 992, 1221, 953, 958, 1193, 841, 878, 1035, 1434, 809, 894, 946, 1206, 863, 948, 1168, 938, 777, 1041, 1135, 925, 808, 962, 1047, 953, 991, 933, 1116, 1081, 923],
      "WindowCenter": [380.0, 376.0, 378.0, 379.0, 377.0, 379.0, 379.0, 379.0, 380.0, 383.0, 380.0, 377.0, 379.0, 378.0, 376.0, 378.0, 382.0, 376.0, 377.0, 381.0, 378.0, 375.0, 378.0, 380.0, 377.0, 377.0, 380.0, 378.0, 378.0, 377.0, 378.0, 379.0, 377.0, 377.0, 378.0, 379.0, 376.0, 378.0, 380.0, 376.0, 378.0, 380.0, 377.0, 377.0, 381.0, 378.0, 378.0, 380.0, 378.0, 378.0, 381.0, 380.0, 378.0, 379.0, 380.0, 377.0, 380.0, 381.0, 377.0, 380.0, 379.0, 377.0, 378.0, 378.0, 377.0, 380.0, 379.0, 378.0, 380.0, 380.0, 381.0, 380.0, 377.0, 377.0, 376.0, 374.0, 374.0, 377.0, 376.0, 376.0, 379.0, 379.0, 377.0, 378.0, 379.0, 378.0, 377.0, 378.0, 382.0, 378.0, 378.0, 380.0, 380.0, 378.0, 379.0, 380.0, 379.0, 377.0, 380.0, 377.0, 379.0, 378.0, 377.0, 375.0, 379.0, 378.0, 377.0, 378.0, 382.0, 378.0, 376.0, 377.0, 379.0, 376.0, 377.0, 379.0, 381.0, 378.0, 375.0, 376.0, 379.0, 377.0, 377.0, 381.0, 377.0, 376.0, 378.0, 379.0, 378.0, 377.0, 377.0, 378.0, 378.0, 379.0, 379.0, 379.0, 378.0, 379.0, 379.0, 379.0, 380.0, 377.0, 380.0, 377.0, 377.0, 380.0, 380.0, 377.0, 378.0, 379.0, 380.0, 378.0, 378.0, 378.0, 381.0, 377.0, 376.0, 378.0, 378.0, 377.0, 377.0, 376.0, 379.0, 378.0, 376.0, 378.0, 379.0, 377.0, 378.0, 381.0, 377.0, 378.0, 380.0, 375.0, 378.0, 377.0, 376.0, 379.0, 378.0, 376.0, 378.0, 379.0, 377.0, 378.0, 378.0, 379.0, 377.0, 381.0, 376.0, 377.0, 378.0, 377.0, 378.0, 378.0, 379.0, 378.0, 377.0, 380.0, 377.0, 376.0, 378.0, 379.0, 378.0, 378.0, 380.0, 380.0, 378.0, 380.0, 376.0, 375.0, 378.0, 377.0, 377.0, 379.0, 378.0, 377.0, 382.0, 377.0, 376.0, 379.0, 377.0, 377.0, 380.0, 378.0, 377.0, 379.0, 378.0, 376.0, 379.0, 377.0, 376.0, 378.0, 381.0, 377.0, 376.0, 378.0, 381.0, 377.0, 377.0, 380.0, 377.0, 377.0, 378.0, 378.0, 378.0, 380.0, 381.0, 381.0, 378.0, 377.0, 378.0, 380.0, 378.0, 378.0, 380.0, 376.0, 377.0, 378.0, 381.0, 376.0, 377.0, 378.0, 381.0, 378.0, 379.0, 380.0, 378.0, 376.0, 378.0, 379.0, 377.0, 376.0, 378.0, 378.0, 379.0, 378.0, 378.0, 379.0, 379.0, 377.0],
      "WindowWidth": [809.0, 803.0, 806.0, 807.0, 804.0, 807.0, 808.0, 807.0, 809.0, 812.0, 808.0, 803.0, 807.0, 805.0, 803.0, 806.0, 811.0, 803.0, 804.0, 809.0, 805.0, 801.0, 805.0, 809.0, 804.0, 805.0, 808.0, 805.0, 805.0, 803.0, 804.0, 808.0, 804.0, 803.0, 806.0, 807.0, 803.0, 806.0, 808.0, 803.0, 806.0, 808.0, 804.0, 805.0, 810.0, 805.0, 805.0, 808.0, 806.0, 805.0, 809.0, 808.0, 806.0, 807.0, 809.0, 805.0, 808.0, 810.0, 804.0, 808.0, 807.0, 804.0, 805.0, 805.0, 805.0, 809.0, 807.0, 806.0, 808.0, 809.0, 810.0, 807.0, 803.0, 803.0, 802.0, 798.0, 799.0, 804.0, 803.0, 803.0, 807.0, 807.0, 805.0, 805.0, 807.0, 805.0, 805.0, 806.0, 812.0, 805.0, 806.0, 808.0, 808.0, 805.0, 807.0, 808.0, 807.0, 804.0, 808.0, 804.0, 807.0, 804.0, 803.0, 801.0, 807.0, 806.0, 805.0, 805.0, 811.0, 806.0, 803.0, 803.0, 806.0, 802.0, 804.0, 807.0, 810.0, 806.0, 801.0, 803.0, 806.0, 804.0, 804.0, 810.0, 804.0, 803.0, 805.0, 807.0, 806.0, 804.0, 804.0, 806.0, 807.0, 807.0, 807.0, 807.0, 806.0, 808.0, 807.0, 807.0, 809.0, 805.0, 808.0, 805.0, 804.0, 808.0, 809.0, 804.0, 806.0, 806.0, 808.0, 805.0, 806.0, 806.0, 811.0, 804.0, 803.0, 806.0, 806.0, 804.0, 804.0, 802.0, 806.0, 805.0, 802.0, 804.0, 807.0, 804.0, 806.0, 810.0, 805.0, 806.0, 807.0, 802.0, 805.0, 805.0, 803.0, 806.0, 806.0, 802.0, 805.0, 807.0, 805.0, 806.0, 805.0, 807.0, 804.0, 810.0, 803.0, 804.0, 806.0, 804.0, 805.0, 805.0, 807.0, 806.0, 804.0, 808.0, 805.0, 802.0, 805.0, 807.0, 806.0, 806.0, 809.0, 808.0, 805.0, 808.0, 803.0, 801.0, 805.0, 804.0, 804.0, 807.0, 805.0, 804.0, 811.0, 804.0, 803.0, 807.0, 803.0, 804.0, 808.0, 806.0, 805.0, 807.0, 805.0, 803.0, 806.0, 805.0, 803.0, 806.0, 810.0, 805.0, 803.0, 806.0, 809.0, 804.0, 803.0, 808.0, 803.0, 803.0, 806.0, 806.0, 807.0, 809.0, 811.0, 810.0, 806.0, 804.0, 805.0, 807.0, 805.0, 805.0, 808.0, 803.0, 803.0, 805.0, 810.0, 802.0, 804.0, 805.0, 810.0, 806.0, 807.0, 809.0, 805.0, 803.0, 806.0, 806.0, 805.0, 802.0, 805.0, 806.0, 806.0, 806.0, 805.0, 807.0, 807.0, 804.0]
    },
    "slices": {}
  }
}