{
  "AcquisitionMatrixPE": 96,
  "AcquisitionNumber": 1,
  "AcquisitionTime": "17:17:43.560000",
  "BandwidthPerPixelPhaseEncode": 18.939,
  "BaseResolution": 96,
  "BodyPartExamined": "BRAIN",
  "ConsistencyInfo": "N4_VE11C_LATEST_20160120",
  "ConversionSoftware": "dcm2niix",
  "ConversionSoftwareVersion": "v1.0.20170923 (OpenJPEG build) GCC6.3.0",
  "DerivedVendorReportedEchoSpacing": 0.000550011,
  "DeviceSerialNumber": "66112",
  "DwellTime": 2.3e-06,
  "EchoTime": 0.033,
  "EchoTrainLength": 96,
  "EffectiveEchoSpacing": 0.000550011,
  "FlipAngle": 64,
  "ImageType": [
    "ORIGINAL",
    "PRIMARY",
    "FMRI",
    "NONE",
    "ND",
    "NORM",
    "MOSAIC"
],
  "InstitutionAddress": "Maynard_3_Hanover_NH_US_03755",
  "InstitutionName": "Dartmouth_College_-_PBS",
  "MagneticFieldStrength": 3,
  "Manufacturer": "Siemens",
  "ManufacturersModelName": "Prisma",
  "Modality": "MR",
  "MultibandAccelerationFactor": 4,
  "PartialFourier": 1,
  "PercentPhaseFOV": 100,
  "PhaseEncodingDirection": "j-",
  "PhaseEncodingSteps": 96,
  "PhaseResolution": 1,
  "ProcedureStepDescription": "Gobbini_Matteo_1017_famface-angles",
  "ProtocolName": "func_run-02_task-str1back",
  "PulseSequenceDetails": "%SiemensSeq%_ep2d_bold",
  "ReceiveCoilActiveElements": "HEA;HEP",
  "ReceiveCoilName": "Head_32",
  "ReconMatrixPE": 96,
  "RepetitionTime": 1.25,
  "ScanOptions": "FS",
  "ScanningSequence": "EP",
  "SequenceName": "_epfid2d1_96",
  "SequenceVariant": "SK",
  "SeriesDescription": "func_run-02_task-str1back",
  "SliceTiming": [0.8775, 0, 0.615, 0.0875, 0.7025, 0.175, 0.79, 0.35, 0.965, 0.44, 1.055, 0.5275, 1.1425, 0.2625, 0.8775, 0, 0.615, 0.0875, 0.7025, 0.175, 0.79, 0.35, 0.965, 0.44, 1.055, 0.5275, 1.1425, 0.2625, 0.8775, 0, 0.615, 0.0875, 0.7025, 0.175, 0.79, 0.35, 0.965, 0.44, 1.055, 0.5275, 1.1425, 0.2625, 0.8775, 0, 0.615, 0.0875, 0.7025, 0.175, 0.79, 0.35, 0.965, 0.44, 1.055, 0.5275, 1.1425, 0.2625],
  "SoftwareVersions": "syngo_MR_E11",
  "StationName": "AWP66112",
  "TaskName": "str1back",
  "TotalReadoutTime": 0.0522511,
  "dcmmeta_affine": [
    [-2.49977445602417, 0.02094259299337864, 0.02624274417757988, 122.822021484375],
    [0.022297531366348267, 2.496427059173584, 0.13173717260360718, -109.03822326660156],
    [0.0251016728579998, -0.13195934891700745, 2.4963886737823486, -65.21914672851562],
    [0.0, 0.0, 0.0, 1.0]
],
  "dcmmeta_reorient_transform": [
    [0.0, -1.0, 0.0, 95.0],
    [1.0, 0.0, 0.0, 0.0],
    [0.0, 0.0, 1.0, 0.0],
    [0.0, 0.0, 0.0, 1.0]
],
  "dcmmeta_shape": [96, 96, 56, 280],
  "dcmmeta_slice_dim": 2,
  "dcmmeta_version": 0.6,
  "global": {
    "const": {
      "AccessionNumber": "A000458",
      "AcquisitionMatrix": [96, 0, 0, 96],
      "AngioFlag": "N",
      "BitsAllocated": 16,
      "BitsStored": 12,
      "BodyPartExamined": "BRAIN",
      "Columns": 768,
      "EchoNumbers": 1,
      "EchoTime": 33.0,
      "EchoTrainLength": 96,
      "FlipAngle": 64.0,
      "HighBit": 11,
      "ImageOrientationPatient": [0.99990981402231, -0.0089190128367, 0.0100406688962, 0.00837703746787, 0.99857082967368, 0.05278374151277],
      "ImagePositionPatient": [-971.77252540078, -959.42987513734, -130.52778836273],
      "ImageType": [
        "ORIGINAL",
        "PRIMARY",
        "FMRI",
        "NONE",
        "ND",
        "NORM",
        "MOSAIC"
],
      "ImagedNucleus": "1H",
      "ImagingFrequency": 123.252372,
      "InPlanePhaseEncodingDirection": "COL",
      "MRAcquisitionType": "2D",
      "MagneticFieldStrength": 3.0,
      "Manufacturer": "SIEMENS",
      "ManufacturerModelName": "Prisma",
      "Modality": "MR",
      "NumberOfAverages": 1.0,
      "NumberOfPhaseEncodingSteps": 96,
      "PercentPhaseFieldOfView": 100.0,
      "PercentSampling": 100.0,
      "PerformedProcedureStepStartTime": "165342.841000",
      "PhotometricInterpretation": "MONOCHROME2",
      "PixelBandwidth": 2265.0,
      "PixelRepresentation": 0,
      "PixelSpacing": [2.5, 2.5],
      "PositionReferenceIndicator": "",
      "ProtocolName": "func_run-02_task-str1back",
      "RepetitionTime": 1250.0,
      "Rows": 768,
      "SAR": 0.04389106029407,
      "SamplesPerPixel": 1,
      "ScanOptions": "FS",
      "ScanningSequence": "EP",
      "SequenceName": "*epfid2d1_96",
      "SequenceVariant": "SK",
      "SeriesDescription": "func_run-02_task-str1back",
      "SeriesNumber": 15,
      "SeriesTime": "171744.705000",
      "SliceLocation": -69.581415326599,
      "SliceThickness": 2.5,
      "SmallestImagePixelValue": 0,
      "SoftwareVersions": "syngo MR E11",
      "SpacingBetweenSlices": 2.4999999428612,
      "SpecificCharacterSet": "ISO_IR 100",
      "StudyID": "2",
      "StudyTime": "165342.781000",
      "TransmitCoilName": "Body",
      "VariableFlipAngleFlag": "N",
      "WindowCenterWidthExplanation": "Algo1",
      "dBdt": 0.0},
    "slices": {}
  },
  "time": {
    "samples": {
      "AcquisitionNumber": [1, 2, 3, 4, 5, 6, 7, 8, 9, 10, 11, 12, 13, 14, 15, 16, 17, 18, 19, 20, 21, 22, 23, 24, 25, 26, 27, 28, 29, 30, 31, 32, 33, 34, 35, 36, 37, 38, 39, 40, 41, 42, 43, 44, 45, 46, 47, 48, 49, 50, 51, 52, 53, 54, 55, 56, 57, 58, 59, 60, 61, 62, 63, 64, 65, 66, 67, 68, 69, 70, 71, 72, 73, 74, 75, 76, 77, 78, 79, 80, 81, 82, 83, 84, 85, 86, 87, 88, 89, 90, 91, 92, 93, 94, 95, 96, 97, 98, 99, 100, 101, 102, 103, 104, 105, 106, 107, 108, 109, 110, 111, 112, 113, 114, 115, 116, 117, 118, 119, 120, 121, 122, 123, 124, 125, 126, 127, 128, 129, 130, 131, 132, 133, 134, 135, 136, 137, 138, 139, 140, 141, 142, 143, 144, 145, 146, 147, 148, 149, 150, 151, 152, 153, 154, 155, 156, 157, 158, 159, 160, 161, 162, 163, 164, 165, 166, 167, 168, 169, 170, 171, 172, 173, 174, 175, 176, 177, 178, 179, 180, 181, 182, 183, 184, 185, 186, 187, 188, 189, 190, 191, 192, 193, 194, 195, 196, 197, 198, 199, 200, 201, 202, 203, 204, 205, 206, 207, 208, 209, 210, 211, 212, 213, 214, 215, 216, 217, 218, 219, 220, 221, 222, 223, 224, 225, 226, 227, 228, 229, 230, 231, 232, 233, 234, 235, 236, 237, 238, 239, 240, 241, 242, 243, 244, 245, 246, 247, 248, 249, 250, 251, 252, 253, 254, 255, 256, 257, 258, 259, 260, 261, 262, 263, 264, 265, 266, 267, 268, 269, 270, 271, 272, 273, 274, 275, 276, 277, 278, 279, 280],
      "AcquisitionTime": ["171743.560000", "171744.810000", "171746.060000", "171747.310000", "171748.560000", "171749.810000", "171751.060000", "171752.310000", "171753.560000", "171754.810000", "171756.060000", "171757.310000", "171758.560000", "171759.810000", "171801.060000", "171802.310000", "171803.560000", "171804.810000", "171806.060000", "171807.310000", "171808.560000", "171809.810000", "171811.060000", "171812.310000", "171813.560000", "171814.810000", "171816.060000", "171817.310000", "171818.560000", "171819.810000", "171821.060000", "171822.310000", "171823.560000", "171824.810000", "171826.060000", "171827.310000", "171828.560000", "171829.810000", "171831.060000", "171832.310000", "171833.560000", "171834.810000", "171836.060000", "171837.310000", "171838.560000", "171839.810000", "171841.060000", "171842.310000", "171843.560000", "171844.810000", "171846.060000", "171847.310000", "171848.560000", "171849.810000", "171851.060000", "171852.310000", "171853.560000", "171854.810000", "171856.060000", "171857.310000", "171858.560000", "171859.810000", "171901.060000", "171902.310000", "171903.560000", "171904.810000", "171906.060000", "171907.310000", "171908.560000", "171909.810000", "171911.060000", "171912.310000", "171913.560000", "171914.810000", "171916.060000", "171917.310000", "171918.560000", "171919.810000", "171921.060000", "171922.310000", "171923.560000", "171924.810000", "171926.060000", "171927.310000", "171928.560000", "171929.810000", "171931.060000", "171932.310000", "171933.560000", "171934.810000", "171936.060000", "171937.310000", "171938.560000", "171939.810000", "171941.060000", "171942.310000", "171943.560000", "171944.810000", "171946.060000", "171947.310000", "171948.560000", "171949.810000", "171951.060000", "171952.310000", "171953.560000", "171954.810000", "171956.060000", "171957.310000", "171958.560000", "171959.810000", "172001.060000", "172002.310000", "172003.560000", "172004.810000", "172006.060000", "172007.310000", "172008.560000", "172009.810000", "172011.060000", "172012.310000", "172013.560000", "172014.810000", "172016.060000", "172017.310000", "172018.560000", "172019.810000", "172021.060000", "172022.310000", "172023.560000", "172024.810000", "172026.060000", "172027.310000", "172028.560000", "172029.810000", "172031.060000", "172032.310000", "172033.560000", "172034.810000", "172036.060000", "172037.310000", "172038.560000", "172039.810000", "172041.060000", "172042.310000", "172043.560000", "172044.810000", "172046.060000", "172047.310000", "172048.560000", "172049.810000", "172051.060000", "172052.310000", "172053.560000", "172054.810000", "172056.060000", "172057.310000", "172058.560000", "172059.810000", "172101.060000", "172102.310000", "172103.560000", "172104.810000", "172106.060000", "172107.310000", "172108.560000", "172109.810000", "172111.060000", "172112.310000", "172113.560000", "172114.810000", "172116.060000", "172117.310000", "172118.560000", "172119.810000", "172121.060000", "172122.310000", "172123.560000", "172124.810000", "172126.060000", "172127.310000", "172128.560000", "172129.810000", "172131.060000", "172132.310000", "172133.560000", "172134.810000", "172136.060000", "172137.310000", "172138.560000", "172139.810000", "172141.060000", "172142.310000", "172143.560000", "172144.810000", "172146.060000", "172147.310000", "172148.560000", "172149.810000", "172151.060000", "172152.310000", "172153.560000", "172154.810000", "172156.060000", "172157.310000", "172158.560000", "172159.810000", "172201.060000", "172202.310000", "172203.560000", "172204.810000", "172206.060000", "172207.310000", "172208.560000", "172209.810000", "172211.060000", "172212.310000", "172213.560000", "172214.810000", "172216.060000", "172217.310000", "172218.560000", "172219.810000", "172221.060000", "172222.310000", "172223.560000", "172224.810000", "172226.060000", "172227.310000", "172228.560000", "172229.810000", "172231.060000", "172232.310000", "172233.560000", "172234.810000", "172236.060000", "172237.310000", "172238.560000", "172239.810000", "172241.060000", "172242.310000", "172243.560000", "172244.810000", "172246.060000", "172247.310000", "172248.560000", "172249.810000", "172251.060000", "172252.310000", "172253.560000", "172254.810000", "172256.060000", "172257.310000", "172258.560000", "172259.810000", "172301.060000", "172302.310000", "172303.560000", "172304.810000", "172306.060000", "172307.310000", "172308.560000", "172309.810000", "172311.060000", "172312.310000", "172313.560000", "172314.810000", "172316.060000", "172317.310000", "172318.560000", "172319.810000", "172321.060000", "172322.310000", "172323.560000", "172324.810000", "172326.060000", "172327.310000", "172328.560000", "172329.810000", "172331.060000", "172332.310000"],
      "ContentTime": ["171744.709000", "171745.772000", "171747.063000", "171748.272000", "171749.542000", "171750.837000", "171752.032000", "171753.278000", "171754.578000", "171755.778000", "171757.019000", "171758.270000", "171759.524000", "171800.791000", "171802.029000", "171803.251000", "171804.554000", "171805.759000", "171807.051000", "171808.280000", "171809.530000", "171810.786000", "171812.031000", "171813.291000", "171814.566000", "171815.812000", "171817.078000", "171818.282000", "171819.557000", "171820.819000", "171822.024000", "171823.270000", "171824.577000", "171825.820000", "171827.060000", "171828.293000", "171829.519000", "171830.763000", "171832.069000", "171833.276000", "171834.547000", "171835.854000", "171837.037000", "171838.301000", "171839.559000", "171840.752000", "171842.061000", "171843.360000", "171844.597000", "171845.779000", "171847.064000", "171848.294000", "171849.537000", "171850.779000", "171852.042000", "171853.255000", "171854.516000", "171855.796000", "171857.056000", "171858.350000", "171859.532000", "171900.805000", "171902.105000", "171903.274000", "171904.555000", "171905.780000", "171907.059000", "171908.290000", "171909.558000", "171910.820000", "171912.036000", "171913.268000", "171914.524000", "171915.770000", "171917.057000", "171918.249000", "171919.539000", "171920.843000", "171922.020000", "171923.268000", "171924.522000", "171925.764000", "171926.993000", "171928.286000", "171929.512000", "171930.837000", "171932.033000", "171933.288000", "171934.531000", "171935.781000", "171937.025000", "171938.334000", "171939.516000", "171940.765000", "171942.015000", "171943.298000", "171944.537000", "171945.806000", "171947.025000", "171948.282000", "171949.553000", "171950.790000", "171952.023000", "171953.267000", "171954.562000", "171955.781000", "171957.035000", "171958.331000", "171959.561000", "172000.790000", "172002.051000", "172003.295000", "172004.548000", "172005.796000", "172007.026000", "172008.281000", "172009.592000", "172010.785000", "172012.046000", "172013.269000", "172014.542000", "172015.855000", "172017.040000", "172018.289000", "172019.540000", "172020.809000", "172022.079000", "172023.322000", "172024.558000", "172025.809000", "172027.044000", "172028.292000", "172029.531000", "172030.822000", "172032.037000", "172033.292000", "172034.561000", "172035.782000", "172037.026000", "172038.297000", "172039.530000", "172040.801000", "172042.087000", "172043.286000", "172044.546000", "172045.789000", "172047.030000", "172048.333000", "172049.535000", "172050.790000", "172052.042000", "172053.284000", "172054.551000", "172055.799000", "172057.021000", "172058.284000", "172059.550000", "172100.760000", "172102.030000", "172103.326000", "172104.569000", "172105.786000", "172107.044000", "172108.281000", "172109.525000", "172110.784000", "172112.045000", "172113.273000", "172114.571000", "172115.806000", "172117.068000", "172118.303000", "172119.549000", "172120.833000", "172122.056000", "172123.305000", "172124.523000", "172125.846000", "172127.074000", "172128.286000", "172129.518000", "172130.799000", "172132.044000", "172133.289000", "172134.539000", "172135.771000", "172137.021000", "172138.301000", "172139.548000", "172140.805000", "172142.055000", "172143.333000", "172144.562000", "172145.805000", "172147.041000", "172148.282000", "172149.564000", "172150.789000", "172152.015000", "172153.305000", "172154.533000", "172155.795000", "172157.045000", "172158.306000", "172159.528000", "172200.806000", "172202.038000", "172203.300000", "172204.530000", "172205.767000", "172207.042000", "172208.288000", "172209.530000", "172210.828000", "172212.046000", "172213.316000", "172214.562000", "172215.814000", "172217.033000", "172218.349000", "172219.513000", "172220.803000", "172222.037000", "172223.284000", "172224.578000", "172225.823000", "172227.058000", "172228.309000", "172229.521000", "172230.796000", "172232.049000", "172233.296000", "172234.596000", "172235.788000", "172237.055000", "172238.286000", "172239.586000", "172240.776000", "172242.039000", "172243.285000", "172244.543000", "172245.789000", "172247.068000", "172248.279000", "172249.582000", "172250.790000", "172252.042000", "172253.299000", "172254.540000", "172255.793000", "172257.073000", "172258.309000", "172259.580000", "172300.797000", "172302.043000", "172303.281000", "172304.569000", "172305.881000", "172307.064000", "172308.310000", "172309.544000", "172310.792000", "172312.094000", "172313.298000", "172314.562000", "172315.797000", "172317.011000", "172318.281000", "172319.594000", "172320.787000", "172322.051000", "172323.332000", "172324.548000", "172325.795000", "172327.048000", "172328.302000", "172329.537000", "172330.781000", "172332.035000", "172333.343000"],
      "InstanceCreationTime": ["171744.709000", "171745.772000", "171747.063000", "171748.272000", "171749.542000", "171750.837000", "171752.032000", "171753.278000", "171754.578000", "171755.778000", "171757.019000", "171758.270000", "171759.524000", "171800.791000", "171802.029000", "171803.251000", "171804.554000", "171805.759000", "171807.051000", "171808.280000", "171809.530000", "171810.786000", "171812.031000", "171813.291000", "171814.566000", "171815.812000", "171817.078000", "171818.282000", "171819.557000", "171820.819000", "171822.024000", "171823.270000", "171824.577000", "171825.820000", "171827.060000", "171828.293000", "171829.519000", "171830.763000", "171832.069000", "171833.276000", "171834.547000", "171835.854000", "171837.037000", "171838.301000", "171839.559000", "171840.752000", "171842.061000", "171843.360000", "171844.597000", "171845.779000", "171847.064000", "171848.294000", "171849.537000", "171850.779000", "171852.042000", "171853.255000", "171854.516000", "171855.796000", "171857.056000", "171858.350000", "171859.532000", "171900.805000", "171902.105000", "171903.274000", "171904.555000", "171905.780000", "171907.059000", "171908.290000", "171909.558000", "171910.820000", "171912.036000", "171913.268000", "171914.524000", "171915.770000", "171917.057000", "171918.249000", "171919.539000", "171920.843000", "171922.020000", "171923.268000", "171924.522000", "171925.764000", "171926.993000", "171928.286000", "171929.512000", "171930.837000", "171932.033000", "171933.288000", "171934.531000", "171935.781000", "171937.025000", "171938.334000", "171939.516000", "171940.765000", "171942.015000", "171943.298000", "171944.537000", "171945.806000", "171947.025000", "171948.282000", "171949.553000", "171950.790000", "171952.023000", "171953.267000", "171954.562000", "171955.781000", "171957.035000", "171958.331000", "171959.561000", "172000.790000", "172002.051000", "172003.295000", "172004.548000", "172005.796000", "172007.026000", "172008.281000", "172009.592000", "172010.785000", "172012.046000", "172013.269000", "172014.542000", "172015.855000", "172017.040000", "172018.289000", "172019.540000", "172020.809000", "172022.079000", "172023.322000", "172024.558000", "172025.809000", "172027.044000", "172028.292000", "172029.531000", "172030.822000", "172032.037000", "172033.292000", "172034.561000", "172035.782000", "172037.026000", "172038.297000", "172039.530000", "172040.801000", "172042.087000", "172043.286000", "172044.546000", "172045.789000", "172047.030000", "172048.333000", "172049.535000", "172050.790000", "172052.042000", "172053.284000", "172054.551000", "172055.799000", "172057.021000", "172058.284000", "172059.550000", "172100.760000", "172102.030000", "172103.326000", "172104.569000", "172105.786000", "172107.044000", "172108.281000", "172109.525000", "172110.784000", "172112.045000", "172113.273000", "172114.571000", "172115.806000", "172117.068000", "172118.303000", "172119.549000", "172120.833000", "172122.056000", "172123.305000", "172124.523000", "172125.846000", "172127.074000", "172128.286000", "172129.518000", "172130.799000", "172132.044000", "172133.289000", "172134.539000", "172135.771000", "172137.021000", "172138.301000", "172139.548000", "172140.805000", "172142.055000", "172143.333000", "172144.562000", "172145.805000", "172147.041000", "172148.282000", "172149.564000", "172150.789000", "172152.015000", "172153.305000", "172154.533000", "172155.795000", "172157.045000", "172158.306000", "172159.528000", "172200.806000", "172202.038000", "172203.300000", "172204.530000", "172205.767000", "172207.042000", "172208.288000", "172209.530000", "172210.828000", "172212.046000", "172213.316000", "172214.562000", "172215.814000", "172217.033000", "172218.349000", "172219.513000", "172220.803000", "172222.037000", "172223.284000", "172224.578000", "172225.823000", "172227.058000", "172228.309000", "172229.521000", "172230.796000", "172232.049000", "172233.296000", "172234.596000", "172235.788000", "172237.055000", "172238.286000", "172239.586000", "172240.776000", "172242.039000", "172243.285000", "172244.543000", "172245.789000", "172247.068000", "172248.279000", "172249.582000", "172250.790000", "172252.042000", "172253.299000", "172254.540000", "172255.793000", "172257.073000", "172258.309000", "172259.580000", "172300.797000", "172302.043000", "172303.281000", "172304.569000", "172305.881000", "172307.064000", "172308.310000", "172309.544000", "172310.792000", "172312.094000", "172313.298000", "172314.562000", "172315.797000", "172317.011000", "172318.281000", "172319.594000", "172320.787000", "172322.051000", "172323.332000", "172324.548000", "172325.795000", "172327.048000", "172328.302000", "172329.537000", "172330.781000", "172332.035000", "172333.343000"],
      "InstanceNumber": [1, 2, 3, 4, 5, 6, 7, 8, 9, 10, 11, 12, 13, 14, 15, 16, 17, 18, 19, 20, 21, 22, 23, 24, 25, 26, 27, 28, 29, 30, 31, 32, 33, 34, 35, 36, 37, 38, 39, 40, 41, 42, 43, 44, 45, 46, 47, 48, 49, 50, 51, 52, 53, 54, 55, 56, 57, 58, 59, 60, 61, 62, 63, 64, 65, 66, 67, 68, 69, 70, 71, 72, 73, 74, 75, 76, 77, 78, 79, 80, 81, 82, 83, 84, 85, 86, 87, 88, 89, 90, 91, 92, 93, 94, 95, 96, 97, 98, 99, 100, 101, 102, 103, 104, 105, 106, 107, 108, 109, 110, 111, 112, 113, 114, 115, 116, 117, 118, 119, 120, 121, 122, 123, 124, 125, 126, 127, 128, 129, 130, 131, 132, 133, 134, 135, 136, 137, 138, 139, 140, 141, 142, 143, 144, 145, 146, 147, 148, 149, 150, 151, 152, 153, 154, 155, 156, 157, 158, 159, 160, 161, 162, 163, 164, 165, 166, 167, 168, 169, 170, 171, 172, 173, 174, 175, 176, 177, 178, 179, 180, 181, 182, 183, 184, 185, 186, 187, 188, 189, 190, 191, 192, 193, 194, 195, 196, 197, 198, 199, 200, 201, 202, 203, 204, 205, 206, 207, 208, 209, 210, 211, 212, 213, 214, 215, 216, 217, 218, 219, 220, 221, 222, 223, 224, 225, 226, 227, 228, 229, 230, 231, 232, 233, 234, 235, 236, 237, 238, 239, 240, 241, 242, 243, 244, 245, 246, 247, 248, 249, 250, 251, 252, 253, 254, 255, 256, 257, 258, 259, 260, 261, 262, 263, 264, 265, 266, 267, 268, 269, 270, 271, 272, 273, 274, 275, 276, 277, 278, 279, 280],
      "LargestImagePixelValue": [762, 725, 720, 710, 718, 709, 718, 860, 837, 871, 779, 779, 734, 731, 721, 756, 711, 977, 735, 717, 708, 765, 810, 716, 712, 919, 716, 725, 781, 716, 716, 826, 728, 721, 792, 724, 837, 722, 754, 725, 721, 790, 750, 717, 901, 753, 717, 872, 733, 827, 848, 721, 718, 794, 718, 716, 778, 784, 720, 998, 719, 719, 896, 715, 761, 778, 718, 849, 732, 719, 822, 721, 717, 823, 721, 812, 736, 718, 717, 766, 717, 825, 718, 995, 751, 721, 715, 901, 760, 717, 918, 713, 794, 709, 712, 717, 852, 710, 707, 794, 707, 712, 808, 717, 719, 716, 728, 732, 715, 811, 762, 717, 712, 765, 711, 721, 862, 736, 717, 775, 747, 716, 1012, 744, 716, 804, 745, 717, 809, 713, 715, 996, 713, 707, 911, 732, 712, 712, 915, 749, 715, 966, 752, 712, 712, 720, 713, 729, 796, 713, 713, 950, 721, 714, 713, 837, 718, 716, 1032, 720, 713, 744, 728, 722, 725, 781, 717, 725, 917, 727, 716, 791, 736, 734, 729, 729, 724, 738, 800, 825, 732, 749, 768, 732, 737, 865, 731, 728, 983, 748, 732, 1004, 731, 736, 921, 731, 737, 846, 734, 735, 1005, 732, 736, 822, 735, 742, 739, 975, 736, 743, 806, 731, 733, 781, 735, 733, 807, 747, 737, 803, 797, 739, 740, 738, 801, 733, 743, 939, 860, 742, 744, 741, 786, 743, 789, 749, 732, 742, 737, 739, 734, 965, 730, 767, 848, 740, 742, 1010, 741, 840, 764, 743, 978, 740, 742, 753, 739, 742, 744, 891, 748, 739, 753, 930, 736, 739, 738, 776, 741, 742, 938, 733, 745, 910, 737, 790, 740, 740, 742, 742],
      "WindowCenter": [348.0, 348.0, 348.0, 349.0, 349.0, 348.0, 348.0, 349.0, 349.0, 350.0, 349.0, 348.0, 347.0, 347.0, 347.0, 348.0, 347.0, 350.0, 346.0, 344.0, 345.0, 347.0, 349.0, 347.0, 347.0, 350.0, 346.0, 346.0, 347.0, 347.0, 347.0, 349.0, 348.0, 348.0, 349.0, 346.0, 348.0, 346.0, 347.0, 347.0, 348.0, 350.0, 349.0, 347.0, 350.0, 348.0, 347.0, 351.0, 348.0, 349.0, 348.0, 346.0, 347.0, 349.0, 348.0, 349.0, 349.0, 349.0, 347.0, 350.0, 347.0, 347.0, 350.0, 348.0, 349.0, 349.0, 347.0, 348.0, 347.0, 346.0, 349.0, 347.0, 348.0, 349.0, 347.0, 349.0, 347.0, 348.0, 348.0, 350.0, 348.0, 349.0, 346.0, 349.0, 347.0, 347.0, 348.0, 351.0, 349.0, 347.0, 349.0, 345.0, 346.0, 345.0, 346.0, 347.0, 350.0, 348.0, 348.0, 349.0, 347.0, 347.0, 347.0, 347.0, 346.0, 347.0, 347.0, 348.0, 347.0, 349.0, 347.0, 347.0, 347.0, 347.0, 347.0, 347.0, 349.0, 348.0, 348.0, 349.0, 348.0, 347.0, 351.0, 347.0, 347.0, 349.0, 348.0, 348.0, 349.0, 347.0, 346.0, 350.0, 347.0, 347.0, 350.0, 348.0, 348.0, 348.0, 352.0, 349.0, 348.0, 351.0, 348.0, 347.0, 346.0, 347.0, 348.0, 348.0, 348.0, 346.0, 347.0, 350.0, 347.0, 347.0, 348.0, 349.0, 347.0, 347.0, 351.0, 346.0, 346.0, 347.0, 347.0, 347.0, 347.0, 349.0, 348.0, 347.0, 350.0, 347.0, 347.0, 348.0, 347.0, 348.0, 348.0, 347.0, 348.0, 348.0, 349.0, 349.0, 347.0, 347.0, 348.0, 348.0, 348.0, 350.0, 348.0, 348.0, 351.0, 347.0, 347.0, 350.0, 348.0, 348.0, 351.0, 348.0, 348.0, 348.0, 347.0, 347.0, 351.0, 348.0, 347.0, 349.0, 347.0, 347.0, 347.0, 351.0, 348.0, 347.0, 349.0, 348.0, 348.0, 349.0, 348.0, 348.0, 349.0, 348.0, 348.0, 349.0, 349.0, 347.0, 349.0, 349.0, 350.0, 348.0, 347.0, 350.0, 349.0, 347.0, 347.0, 347.0, 349.0, 348.0, 348.0, 347.0, 347.0, 347.0, 347.0, 348.0, 349.0, 352.0, 349.0, 348.0, 349.0, 348.0, 347.0, 352.0, 348.0, 349.0, 347.0, 346.0, 349.0, 347.0, 347.0, 348.0, 348.0, 348.0, 348.0, 349.0, 347.0, 347.0, 347.0, 350.0, 347.0, 347.0, 348.0, 349.0, 348.0, 348.0, 351.0, 348.0, 348.0, 350.0, 347.0, 347.0, 347.0, 348.0, 349.0, 349.0],
      "WindowWidth": [748.0, 746.0, 747.0, 748.0, 748.0, 747.0, 747.0, 748.0, 748.0, 749.0, 747.0, 746.0, 744.0, 745.0, 745.0, 746.0, 744.0, 747.0, 742.0, 740.0, 740.0, 743.0, 747.0, 745.0, 745.0, 748.0, 743.0, 743.0, 745.0, 744.0, 745.0, 748.0, 747.0, 746.0, 747.0, 743.0, 745.0, 743.0, 743.0, 745.0, 747.0, 749.0, 748.0, 745.0, 748.0, 746.0, 746.0, 750.0, 747.0, 747.0, 746.0, 742.0, 744.0, 747.0, 746.0, 748.0, 748.0, 748.0, 744.0, 749.0, 744.0, 745.0, 749.0, 747.0, 747.0, 747.0, 744.0, 746.0, 744.0, 744.0, 747.0, 745.0, 746.0, 748.0, 745.0, 747.0, 745.0, 746.0, 747.0, 750.0, 747.0, 748.0, 743.0, 747.0, 744.0, 744.0, 747.0, 751.0, 748.0, 745.0, 747.0, 742.0, 743.0, 742.0, 743.0, 745.0, 749.0, 747.0, 747.0, 748.0, 746.0, 744.0, 745.0, 744.0, 743.0, 744.0, 745.0, 746.0, 745.0, 747.0, 745.0, 744.0, 744.0, 744.0, 744.0, 745.0, 747.0, 747.0, 747.0, 748.0, 747.0, 745.0, 750.0, 745.0, 744.0, 748.0, 747.0, 746.0, 747.0, 744.0, 743.0, 748.0, 744.0, 745.0, 749.0, 746.0, 746.0, 747.0, 752.0, 748.0, 746.0, 750.0, 746.0, 744.0, 743.0, 745.0, 746.0, 746.0, 746.0, 743.0, 743.0, 748.0, 744.0, 744.0, 746.0, 748.0, 745.0, 744.0, 749.0, 743.0, 743.0, 745.0, 745.0, 745.0, 745.0, 747.0, 746.0, 745.0, 748.0, 744.0, 744.0, 745.0, 745.0, 746.0, 746.0, 746.0, 747.0, 747.0, 747.0, 747.0, 745.0, 744.0, 746.0, 747.0, 746.0, 749.0, 747.0, 747.0, 750.0, 745.0, 744.0, 749.0, 745.0, 747.0, 751.0, 747.0, 746.0, 746.0, 744.0, 744.0, 750.0, 746.0, 745.0, 747.0, 744.0, 744.0, 745.0, 750.0, 746.0, 745.0, 747.0, 746.0, 747.0, 747.0, 747.0, 746.0, 749.0, 747.0, 747.0, 747.0, 747.0, 745.0, 747.0, 748.0, 750.0, 746.0, 745.0, 748.0, 747.0, 744.0, 744.0, 745.0, 747.0, 746.0, 746.0, 745.0, 744.0, 745.0, 745.0, 747.0, 748.0, 753.0, 748.0, 747.0, 748.0, 746.0, 745.0, 751.0, 747.0, 748.0, 745.0, 744.0, 747.0, 743.0, 744.0, 746.0, 747.0, 747.0, 746.0, 748.0, 744.0, 744.0, 745.0, 749.0, 745.0, 745.0, 746.0, 747.0, 747.0, 746.0, 751.0, 746.0, 746.0, 748.0, 744.0, 745.0, 744.0, 746.0, 748.0, 749.0]
    },
    "slices": {}
  }
}