{
  "AcquisitionMatrixPE": 96,
  "AcquisitionNumber": 1,
  "AcquisitionTime": "17:23:59.460000",
  "BandwidthPerPixelPhaseEncode": 18.939,
  "BaseResolution": 96,
  "BodyPartExamined": "BRAIN",
  "ConsistencyInfo": "N4_VE11C_LATEST_20160120",
  "ConversionSoftware": "dcm2niix",
  "ConversionSoftwareVersion": "v1.0.20170923 (OpenJPEG build) GCC6.3.0",
  "DerivedVendorReportedEchoSpacing": 0.000550011,
  "DeviceSerialNumber": "66112",
  "DwellTime": 2.3e-06,
  "EchoTime": 0.033,
  "EchoTrainLength": 96,
  "EffectiveEchoSpacing": 0.000550011,
  "FlipAngle": 64,
  "ImageType": [
    "ORIGINAL",
    "PRIMARY",
    "FMRI",
    "NONE",
    "ND",
    "NORM",
    "MOSAIC"
],
  "InstitutionAddress": "Maynard_3_Hanover_NH_US_03755",
  "InstitutionName": "Dartmouth_College_-_PBS",
  "MagneticFieldStrength": 3,
  "Manufacturer": "Siemens",
  "ManufacturersModelName": "Prisma",
  "Modality": "MR",
  "MultibandAccelerationFactor": 4,
  "PartialFourier": 1,
  "PercentPhaseFOV": 100,
  "PhaseEncodingDirection": "j-",
  "PhaseEncodingSteps": 96,
  "PhaseResolution": 1,
  "ProcedureStepDescription": "Gobbini_Matteo_1017_famface-angles",
  "ProtocolName": "func_run-03_task-fam1back",
  "PulseSequenceDetails": "%SiemensSeq%_ep2d_bold",
  "ReceiveCoilActiveElements": "HEA;HEP",
  "ReceiveCoilName": "Head_32",
  "ReconMatrixPE": 96,
  "RepetitionTime": 1.25,
  "ScanOptions": "FS",
  "ScanningSequence": "EP",
  "SequenceName": "_epfid2d1_96",
  "SequenceVariant": "SK",
  "SeriesDescription": "func_run-03_task-fam1back",
  "SliceTiming": [0.8775, 0, 0.615, 0.0875, 0.7025, 0.175, 0.79, 0.3525, 0.9675, 0.44, 1.055, 0.5275, 1.1425, 0.2625, 0.8775, 0, 0.615, 0.0875, 0.7025, 0.175, 0.79, 0.3525, 0.9675, 0.44, 1.055, 0.5275, 1.1425, 0.2625, 0.8775, 0, 0.615, 0.0875, 0.7025, 0.175, 0.79, 0.3525, 0.9675, 0.44, 1.055, 0.5275, 1.1425, 0.2625, 0.8775, 0, 0.615, 0.0875, 0.7025, 0.175, 0.79, 0.3525, 0.9675, 0.44, 1.055, 0.5275, 1.1425, 0.2625],
  "SoftwareVersions": "syngo_MR_E11",
  "StationName": "AWP66112",
  "TaskName": "fam1back",
  "TotalReadoutTime": 0.0522511,
  "dcmmeta_affine": [
    [-2.49977445602417, 0.02094259299337864, 0.02624274417757988, 122.822021484375],
    [0.022297531366348267, 2.496427059173584, 0.13173717260360718, -109.03822326660156],
    [0.0251016728579998, -0.13195934891700745, 2.4963886737823486, -65.21914672851562],
    [0.0, 0.0, 0.0, 1.0]
],
  "dcmmeta_reorient_transform": [
    [0.0, -1.0, 0.0, 95.0],
    [1.0, 0.0, 0.0, 0.0],
    [0.0, 0.0, 1.0, 0.0],
    [0.0, 0.0, 0.0, 1.0]
],
  "dcmmeta_shape": [96, 96, 56, 280],
  "dcmmeta_slice_dim": 2,
  "dcmmeta_version": 0.6,
  "global": {
    "const": {
      "AccessionNumber": "A000458",
      "AcquisitionMatrix": [96, 0, 0, 96],
      "AngioFlag": "N",
      "BitsAllocated": 16,
      "BitsStored": 12,
      "BodyPartExamined": "BRAIN",
      "Columns": 768,
      "EchoNumbers": 1,
      "EchoTime": 33.0,
      "EchoTrainLength": 96,
      "FlipAngle": 64.0,
      "HighBit": 11,
      "ImageOrientationPatient": [0.99990981402231, -0.0089190128367, 0.0100406688962, 0.00837703746787, 0.99857082967368, 0.05278374151277],
      "ImagePositionPatient": [-971.77252540078, -959.42987513734, -130.52778836273],
      "ImageType": [
        "ORIGINAL",
        "PRIMARY",
        "FMRI",
        "NONE",
        "ND",
        "NORM",
        "MOSAIC"
],
      "ImagedNucleus": "1H",
      "ImagingFrequency": 123.252372,
      "InPlanePhaseEncodingDirection": "COL",
      "MRAcquisitionType": "2D",
      "MagneticFieldStrength": 3.0,
      "Manufacturer": "SIEMENS",
      "ManufacturerModelName": "Prisma",
      "Modality": "MR",
      "NumberOfAverages": 1.0,
      "NumberOfPhaseEncodingSteps": 96,
      "PercentPhaseFieldOfView": 100.0,
      "PercentSampling": 100.0,
      "PerformedProcedureStepStartTime": "165342.841000",
      "PhotometricInterpretation": "MONOCHROME2",
      "PixelBandwidth": 2265.0,
      "PixelRepresentation": 0,
      "PixelSpacing": [2.5, 2.5],
      "PositionReferenceIndicator": "",
      "ProtocolName": "func_run-03_task-fam1back",
      "RepetitionTime": 1250.0,
      "Rows": 768,
      "SAR": 0.04389106029407,
      "SamplesPerPixel": 1,
      "ScanOptions": "FS",
      "ScanningSequence": "EP",
      "SequenceName": "*epfid2d1_96",
      "SequenceVariant": "SK",
      "SeriesDescription": "func_run-03_task-fam1back",
      "SeriesNumber": 22,
      "SeriesTime": "172401.087000",
      "SliceLocation": -69.581415326599,
      "SliceThickness": 2.5,
      "SmallestImagePixelValue": 0,
      "SoftwareVersions": "syngo MR E11",
      "SpacingBetweenSlices": 2.4999999428612,
      "SpecificCharacterSet": "ISO_IR 100",
      "StudyID": "2",
      "StudyTime": "165342.781000",
      "TransmitCoilName": "Body",
      "VariableFlipAngleFlag": "N",
      "WindowCenterWidthExplanation": "Algo1",
      "dBdt": 0.0},
    "slices": {}
  },
  "time": {
    "samples": {
      "AcquisitionNumber": [1, 2, 3, 4, 5, 6, 7, 8, 9, 10, 11, 12, 13, 14, 15, 16, 17, 18, 19, 20, 21, 22, 23, 24, 25, 26, 27, 28, 29, 30, 31, 32, 33, 34, 35, 36, 37, 38, 39, 40, 41, 42, 43, 44, 45, 46, 47, 48, 49, 50, 51, 52, 53, 54, 55, 56, 57, 58, 59, 60, 61, 62, 63, 64, 65, 66, 67, 68, 69, 70, 71, 72, 73, 74, 75, 76, 77, 78, 79, 80, 81, 82, 83, 84, 85, 86, 87, 88, 89, 90, 91, 92, 93, 94, 95, 96, 97, 98, 99, 100, 101, 102, 103, 104, 105, 106, 107, 108, 109, 110, 111, 112, 113, 114, 115, 116, 117, 118, 119, 120, 121, 122, 123, 124, 125, 126, 127, 128, 129, 130, 131, 132, 133, 134, 135, 136, 137, 138, 139, 140, 141, 142, 143, 144, 145, 146, 147, 148, 149, 150, 151, 152, 153, 154, 155, 156, 157, 158, 159, 160, 161, 162, 163, 164, 165, 166, 167, 168, 169, 170, 171, 172, 173, 174, 175, 176, 177, 178, 179, 180, 181, 182, 183, 184, 185, 186, 187, 188, 189, 190, 191, 192, 193, 194, 195, 196, 197, 198, 199, 200, 201, 202, 203, 204, 205, 206, 207, 208, 209, 210, 211, 212, 213, 214, 215, 216, 217, 218, 219, 220, 221, 222, 223, 224, 225, 226, 227, 228, 229, 230, 231, 232, 233, 234, 235, 236, 237, 238, 239, 240, 241, 242, 243, 244, 245, 246, 247, 248, 249, 250, 251, 252, 253, 254, 255, 256, 257, 258, 259, 260, 261, 262, 263, 264, 265, 266, 267, 268, 269, 270, 271, 272, 273, 274, 275, 276, 277, 278, 279, 280],
      "AcquisitionTime": ["172359.460000", "172400.710000", "172401.960000", "172403.210000", "172404.460000", "172405.710000", "172406.960000", "172408.210000", "172409.460000", "172410.710000", "172411.960000", "172413.210000", "172414.460000", "172415.710000", "172416.960000", "172418.210000", "172419.460000", "172420.710000", "172421.960000", "172423.210000", "172424.460000", "172425.710000", "172426.960000", "172428.210000", "172429.460000", "172430.710000", "172431.960000", "172433.210000", "172434.460000", "172435.710000", "172436.960000", "172438.210000", "172439.460000", "172440.710000", "172441.960000", "172443.210000", "172444.460000", "172445.710000", "172446.960000", "172448.210000", "172449.460000", "172450.710000", "172451.960000", "172453.210000", "172454.460000", "172455.710000", "172456.960000", "172458.210000", "172459.460000", "172500.710000", "172501.960000", "172503.210000", "172504.460000", "172505.710000", "172506.960000", "172508.210000", "172509.460000", "172510.710000", "172511.960000", "172513.210000", "172514.460000", "172515.710000", "172516.960000", "172518.210000", "172519.460000", "172520.710000", "172521.960000", "172523.210000", "172524.460000", "172525.710000", "172526.960000", "172528.210000", "172529.460000", "172530.710000", "172531.960000", "172533.210000", "172534.460000", "172535.710000", "172536.960000", "172538.210000", "172539.460000", "172540.710000", "172541.960000", "172543.210000", "172544.460000", "172545.710000", "172546.960000", "172548.210000", "172549.460000", "172550.710000", "172551.960000", "172553.210000", "172554.460000", "172555.710000", "172556.960000", "172558.210000", "172559.460000", "172600.710000", "172601.960000", "172603.210000", "172604.460000", "172605.710000", "172606.960000", "172608.210000", "172609.460000", "172610.710000", "172611.960000", "172613.210000", "172614.460000", "172615.710000", "172616.960000", "172618.210000", "172619.460000", "172620.710000", "172621.960000", "172623.210000", "172624.460000", "172625.710000", "172626.960000", "172628.210000", "172629.460000", "172630.710000", "172631.960000", "172633.210000", "172634.460000", "172635.710000", "172636.960000", "172638.210000", "172639.460000", "172640.710000", "172641.960000", "172643.210000", "172644.460000", "172645.710000", "172646.960000", "172648.210000", "172649.460000", "172650.710000", "172651.960000", "172653.210000", "172654.460000", "172655.710000", "172656.960000", "172658.210000", "172659.460000", "172700.710000", "172701.960000", "172703.210000", "172704.460000", "172705.710000", "172706.960000", "172708.210000", "172709.460000", "172710.710000", "172711.960000", "172713.210000", "172714.460000", "172715.710000", "172716.960000", "172718.210000", "172719.460000", "172720.710000", "172721.960000", "172723.210000", "172724.460000", "172725.710000", "172726.960000", "172728.210000", "172729.460000", "172730.710000", "172731.960000", "172733.210000", "172734.460000", "172735.710000", "172736.960000", "172738.210000", "172739.460000", "172740.710000", "172741.960000", "172743.210000", "172744.460000", "172745.710000", "172746.960000", "172748.210000", "172749.460000", "172750.710000", "172751.960000", "172753.210000", "172754.460000", "172755.710000", "172756.960000", "172758.210000", "172759.460000", "172800.710000", "172801.960000", "172803.210000", "172804.460000", "172805.710000", "172806.960000", "172808.210000", "172809.460000", "172810.710000", "172811.960000", "172813.210000", "172814.460000", "172815.710000", "172816.960000", "172818.210000", "172819.460000", "172820.710000", "172821.960000", "172823.210000", "172824.460000", "172825.710000", "172826.960000", "172828.210000", "172829.460000", "172830.710000", "172831.960000", "172833.210000", "172834.460000", "172835.710000", "172836.960000", "172838.210000", "172839.460000", "172840.710000", "172841.960000", "172843.210000", "172844.460000", "172845.710000", "172846.960000", "172848.210000", "172849.460000", "172850.710000", "172851.960000", "172853.210000", "172854.460000", "172855.710000", "172856.960000", "172858.210000", "172859.460000", "172900.710000", "172901.960000", "172903.210000", "172904.460000", "172905.710000", "172906.960000", "172908.210000", "172909.460000", "172910.710000", "172911.960000", "172913.210000", "172914.460000", "172915.710000", "172916.960000", "172918.210000", "172919.460000", "172920.710000", "172921.960000", "172923.210000", "172924.460000", "172925.710000", "172926.960000", "172928.210000", "172929.460000", "172930.710000", "172931.960000", "172933.210000", "172934.460000", "172935.710000", "172936.960000", "172938.210000", "172939.460000", "172940.710000", "172941.960000", "172943.210000", "172944.460000", "172945.710000", "172946.960000", "172948.210000"],
      "ContentTime": ["172401.091000", "172402.182000", "172403.401000", "172404.652000", "172405.930000", "172407.152000", "172408.379000", "172409.653000", "172410.898000", "172412.158000", "172413.420000", "172414.660000", "172415.902000", "172417.159000", "172418.372000", "172419.646000", "172420.885000", "172422.115000", "172423.401000", "172424.676000", "172425.847000", "172427.149000", "172428.382000", "172429.618000", "172430.911000", "172432.128000", "172433.475000", "172434.656000", "172435.927000", "172437.164000", "172438.392000", "172439.633000", "172440.884000", "172442.156000", "172443.417000", "172444.771000", "172445.924000", "172447.155000", "172448.412000", "172449.638000", "172450.903000", "172452.149000", "172453.419000", "172454.658000", "172455.894000", "172457.115000", "172458.402000", "172459.677000", "172500.903000", "172502.167000", "172503.383000", "172504.626000", "172505.902000", "172507.171000", "172508.385000", "172509.595000", "172510.894000", "172512.135000", "172513.393000", "172514.660000", "172515.897000", "172517.146000", "172518.381000", "172519.637000", "172520.897000", "172522.136000", "172523.404000", "172524.708000", "172525.915000", "172527.164000", "172528.443000", "172529.648000", "172530.913000", "172532.132000", "172533.381000", "172534.624000", "172535.882000", "172537.147000", "172538.382000", "172539.667000", "172540.933000", "172542.129000", "172543.448000", "172544.639000", "172545.886000", "172547.142000", "172548.416000", "172549.616000", "172550.924000", "172552.205000", "172553.382000", "172554.662000", "172555.888000", "172557.163000", "172558.375000", "172559.685000", "172600.941000", "172602.132000", "172603.390000", "172604.691000", "172605.952000", "172607.299000", "172608.389000", "172609.667000", "172610.893000", "172612.129000", "172613.433000", "172614.649000", "172615.892000", "172617.171000", "172618.381000", "172619.638000", "172620.909000", "172622.172000", "172623.418000", "172624.661000", "172625.875000", "172627.160000", "172628.382000", "172629.656000", "172630.909000", "172632.148000", "172633.400000", "172634.723000", "172635.867000", "172637.146000", "172638.402000", "172639.686000", "172640.908000", "172642.140000", "172643.406000", "172644.648000", "172645.897000", "172647.135000", "172648.411000", "172649.663000", "172650.899000", "172652.153000", "172653.435000", "172654.660000", "172655.897000", "172657.162000", "172658.479000", "172659.643000", "172700.893000", "172702.152000", "172703.417000", "172704.662000", "172705.911000", "172707.218000", "172708.428000", "172709.650000", "172710.949000", "172712.156000", "172713.392000", "172714.649000", "172715.890000", "172717.132000", "172718.371000", "172719.694000", "172720.946000", "172722.186000", "172723.427000", "172724.676000", "172725.944000", "172727.146000", "172728.391000", "172729.634000", "172730.922000", "172732.146000", "172733.444000", "172734.643000", "172735.882000", "172737.124000", "172738.419000", "172739.664000", "172740.895000", "172742.164000", "172743.388000", "172744.660000", "172745.892000", "172747.160000", "172748.434000", "172749.650000", "172750.919000", "172752.140000", "172753.389000", "172754.635000", "172755.900000", "172757.157000", "172758.423000", "172759.674000", "172800.907000", "172802.168000", "172803.385000", "172804.683000", "172805.906000", "172807.164000", "172808.401000", "172809.708000", "172810.920000", "172812.138000", "172813.503000", "172814.635000", "172815.885000", "172817.171000", "172818.397000", "172819.655000", "172820.906000", "172822.200000", "172823.379000", "172824.658000", "172825.904000", "172827.138000", "172828.390000", "172829.670000", "172830.934000", "172832.146000", "172833.408000", "172834.673000", "172835.900000", "172837.150000", "172838.401000", "172839.705000", "172840.904000", "172842.137000", "172843.382000", "172844.646000", "172845.934000", "172847.180000", "172848.415000", "172849.651000", "172850.922000", "172852.141000", "172853.399000", "172854.626000", "172855.890000", "172857.164000", "172858.416000", "172859.687000", "172900.951000", "172902.156000", "172903.390000", "172904.667000", "172905.882000", "172907.124000", "172908.399000", "172909.641000", "172910.876000", "172912.143000", "172913.387000", "172914.649000", "172915.884000", "172917.161000", "172918.414000", "172919.657000", "172920.890000", "172922.141000", "172923.430000", "172924.635000", "172925.925000", "172927.154000", "172928.405000", "172929.659000", "172930.896000", "172932.157000", "172933.405000", "172934.717000", "172935.898000", "172937.158000", "172938.385000", "172939.665000", "172940.900000", "172942.144000", "172943.435000", "172944.630000", "172945.896000", "172947.141000", "172948.402000", "172949.715000"],
      "InstanceCreationTime": ["172401.091000", "172402.182000", "172403.401000", "172404.652000", "172405.930000", "172407.152000", "172408.379000", "172409.653000", "172410.898000", "172412.158000", "172413.420000", "172414.660000", "172415.902000", "172417.159000", "172418.372000", "172419.646000", "172420.885000", "172422.115000", "172423.401000", "172424.676000", "172425.847000", "172427.149000", "172428.382000", "172429.618000", "172430.911000", "172432.128000", "172433.475000", "172434.656000", "172435.927000", "172437.164000", "172438.392000", "172439.633000", "172440.884000", "172442.156000", "172443.417000", "172444.771000", "172445.924000", "172447.155000", "172448.412000", "172449.638000", "172450.903000", "172452.149000", "172453.419000", "172454.658000", "172455.894000", "172457.115000", "172458.402000", "172459.677000", "172500.903000", "172502.167000", "172503.383000", "172504.626000", "172505.902000", "172507.171000", "172508.385000", "172509.595000", "172510.894000", "172512.135000", "172513.393000", "172514.660000", "172515.897000", "172517.146000", "172518.381000", "172519.637000", "172520.897000", "172522.136000", "172523.404000", "172524.708000", "172525.915000", "172527.164000", "172528.443000", "172529.648000", "172530.913000", "172532.132000", "172533.381000", "172534.624000", "172535.882000", "172537.147000", "172538.382000", "172539.667000", "172540.933000", "172542.129000", "172543.448000", "172544.639000", "172545.886000", "172547.142000", "172548.416000", "172549.616000", "172550.924000", "172552.205000", "172553.382000", "172554.662000", "172555.888000", "172557.163000", "172558.375000", "172559.685000", "172600.941000", "172602.132000", "172603.390000", "172604.691000", "172605.952000", "172607.299000", "172608.389000", "172609.667000", "172610.893000", "172612.129000", "172613.433000", "172614.649000", "172615.892000", "172617.171000", "172618.381000", "172619.638000", "172620.909000", "172622.172000", "172623.418000", "172624.661000", "172625.875000", "172627.160000", "172628.382000", "172629.656000", "172630.909000", "172632.148000", "172633.400000", "172634.723000", "172635.867000", "172637.146000", "172638.402000", "172639.686000", "172640.908000", "172642.140000", "172643.406000", "172644.648000", "172645.897000", "172647.135000", "172648.411000", "172649.663000", "172650.899000", "172652.153000", "172653.435000", "172654.660000", "172655.897000", "172657.162000", "172658.479000", "172659.643000", "172700.893000", "172702.152000", "172703.417000", "172704.662000", "172705.911000", "172707.218000", "172708.428000", "172709.650000", "172710.949000", "172712.156000", "172713.392000", "172714.649000", "172715.890000", "172717.132000", "172718.371000", "172719.694000", "172720.946000", "172722.186000", "172723.427000", "172724.676000", "172725.944000", "172727.146000", "172728.391000", "172729.634000", "172730.922000", "172732.146000", "172733.444000", "172734.643000", "172735.882000", "172737.124000", "172738.419000", "172739.664000", "172740.895000", "172742.164000", "172743.388000", "172744.660000", "172745.892000", "172747.160000", "172748.434000", "172749.650000", "172750.919000", "172752.140000", "172753.389000", "172754.635000", "172755.900000", "172757.157000", "172758.423000", "172759.674000", "172800.907000", "172802.168000", "172803.385000", "172804.683000", "172805.906000", "172807.164000", "172808.401000", "172809.708000", "172810.920000", "172812.138000", "172813.503000", "172814.635000", "172815.885000", "172817.171000", "172818.397000", "172819.655000", "172820.906000", "172822.200000", "172823.379000", "172824.658000", "172825.904000", "172827.138000", "172828.390000", "172829.670000", "172830.934000", "172832.146000", "172833.408000", "172834.673000", "172835.900000", "172837.150000", "172838.401000", "172839.705000", "172840.904000", "172842.137000", "172843.382000", "172844.646000", "172845.934000", "172847.180000", "172848.415000", "172849.651000", "172850.922000", "172852.141000", "172853.399000", "172854.626000", "172855.890000", "172857.164000", "172858.416000", "172859.687000", "172900.951000", "172902.156000", "172903.390000", "172904.667000", "172905.882000", "172907.124000", "172908.399000", "172909.641000", "172910.876000", "172912.143000", "172913.387000", "172914.649000", "172915.884000", "172917.161000", "172918.414000", "172919.657000", "172920.890000", "172922.141000", "172923.430000", "172924.635000", "172925.925000", "172927.154000", "172928.405000", "172929.659000", "172930.896000", "172932.157000", "172933.405000", "172934.717000", "172935.898000", "172937.158000", "172938.385000", "172939.665000", "172940.900000", "172942.144000", "172943.435000", "172944.630000", "172945.896000", "172947.141000", "172948.402000", "172949.715000"],
      "InstanceNumber": [1, 2, 3, 4, 5, 6, 7, 8, 9, 10, 11, 12, 13, 14, 15, 16, 17, 18, 19, 20, 21, 22, 23, 24, 25, 26, 27, 28, 29, 30, 31, 32, 33, 34, 35, 36, 37, 38, 39, 40, 41, 42, 43, 44, 45, 46, 47, 48, 49, 50, 51, 52, 53, 54, 55, 56, 57, 58, 59, 60, 61, 62, 63, 64, 65, 66, 67, 68, 69, 70, 71, 72, 73, 74, 75, 76, 77, 78, 79, 80, 81, 82, 83, 84, 85, 86, 87, 88, 89, 90, 91, 92, 93, 94, 95, 96, 97, 98, 99, 100, 101, 102, 103, 104, 105, 106, 107, 108, 109, 110, 111, 112, 113, 114, 115, 116, 117, 118, 119, 120, 121, 122, 123, 124, 125, 126, 127, 128, 129, 130, 131, 132, 133, 134, 135, 136, 137, 138, 139, 140, 141, 142, 143, 144, 145, 146, 147, 148, 149, 150, 151, 152, 153, 154, 155, 156, 157, 158, 159, 160, 161, 162, 163, 164, 165, 166, 167, 168, 169, 170, 171, 172, 173, 174, 175, 176, 177, 178, 179, 180, 181, 182, 183, 184, 185, 186, 187, 188, 189, 190, 191, 192, 193, 194, 195, 196, 197, 198, 199, 200, 201, 202, 203, 204, 205, 206, 207, 208, 209, 210, 211, 212, 213, 214, 215, 216, 217, 218, 219, 220, 221, 222, 223, 224, 225, 226, 227, 228, 229, 230, 231, 232, 233, 234, 235, 236, 237, 238, 239, 240, 241, 242, 243, 244, 245, 246, 247, 248, 249, 250, 251, 252, 253, 254, 255, 256, 257, 258, 259, 260, 261, 262, 263, 264, 265, 266, 267, 268, 269, 270, 271, 272, 273, 274, 275, 276, 277, 278, 279, 280],
      "LargestImagePixelValue": [1095, 919, 919, 854, 1014, 844, 797, 817, 730, 731, 735, 793, 1074, 753, 732, 769, 799, 780, 722, 728, 730, 862, 721, 821, 1031, 769, 736, 741, 795, 731, 820, 867, 734, 745, 865, 769, 731, 729, 1045, 758, 726, 734, 783, 868, 772, 835, 826, 733, 735, 1001, 729, 809, 898, 734, 916, 730, 742, 832, 736, 731, 829, 729, 899, 738, 757, 737, 737, 739, 932, 767, 731, 953, 735, 737, 762, 735, 740, 987, 740, 821, 800, 740, 743, 920, 739, 753, 766, 741, 811, 746, 740, 740, 736, 961, 795, 739, 862, 777, 743, 741, 813, 739, 831, 761, 739, 795, 745, 738, 763, 745, 733, 803, 769, 737, 1001, 734, 739, 738, 790, 727, 793, 890, 754, 803, 833, 728, 734, 960, 730, 729, 988, 798, 731, 1026, 736, 733, 938, 728, 731, 937, 729, 820, 823, 733, 732, 886, 755, 731, 1096, 742, 732, 750, 818, 728, 731, 771, 1058, 776, 753, 775, 908, 726, 737, 886, 733, 772, 741, 738, 733, 840, 724, 728, 912, 761, 941, 726, 735, 727, 801, 726, 931, 722, 868, 723, 757, 762, 712, 714, 726, 925, 833, 719, 947, 720, 765, 743, 717, 773, 800, 714, 800, 805, 714, 891, 754, 723, 755, 800, 717, 717, 964, 813, 753, 756, 895, 767, 721, 737, 966, 786, 722, 772, 805, 720, 718, 797, 716, 717, 720, 920, 721, 723, 734, 990, 745, 725, 834, 859, 717, 763, 814, 720, 818, 868, 721, 715, 724, 828, 741, 716, 855, 954, 772, 718, 761, 991, 745, 715, 725, 752, 720, 755, 891, 726, 719, 813, 810, 718, 720, 1070, 728, 726, 762, 742, 718, 720, 717, 907, 837, 728],
      "WindowCenter": [354.0, 351.0, 351.0, 350.0, 352.0, 349.0, 349.0, 349.0, 348.0, 348.0, 348.0, 349.0, 352.0, 347.0, 347.0, 347.0, 349.0, 349.0, 348.0, 348.0, 349.0, 350.0, 348.0, 349.0, 351.0, 347.0, 347.0, 348.0, 349.0, 348.0, 349.0, 349.0, 347.0, 347.0, 349.0, 348.0, 348.0, 347.0, 352.0, 348.0, 348.0, 348.0, 350.0, 351.0, 348.0, 349.0, 349.0, 347.0, 348.0, 352.0, 348.0, 349.0, 349.0, 346.0, 348.0, 346.0, 347.0, 349.0, 348.0, 348.0, 349.0, 347.0, 349.0, 346.0, 347.0, 347.0, 348.0, 348.0, 351.0, 349.0, 348.0, 350.0, 346.0, 347.0, 348.0, 348.0, 348.0, 351.0, 348.0, 348.0, 348.0, 348.0, 348.0, 351.0, 348.0, 348.0, 348.0, 346.0, 348.0, 348.0, 348.0, 349.0, 350.0, 353.0, 350.0, 348.0, 349.0, 348.0, 347.0, 347.0, 348.0, 347.0, 348.0, 346.0, 346.0, 348.0, 347.0, 347.0, 348.0, 348.0, 349.0, 349.0, 348.0, 347.0, 350.0, 347.0, 347.0, 348.0, 349.0, 348.0, 349.0, 350.0, 347.0, 347.0, 348.0, 347.0, 348.0, 351.0, 348.0, 348.0, 352.0, 349.0, 348.0, 351.0, 347.0, 347.0, 350.0, 348.0, 348.0, 351.0, 348.0, 349.0, 349.0, 348.0, 348.0, 351.0, 349.0, 348.0, 352.0, 347.0, 347.0, 348.0, 349.0, 348.0, 348.0, 349.0, 352.0, 349.0, 348.0, 348.0, 349.0, 346.0, 347.0, 349.0, 347.0, 348.0, 347.0, 347.0, 347.0, 350.0, 349.0, 349.0, 351.0, 348.0, 350.0, 346.0, 347.0, 348.0, 350.0, 349.0, 351.0, 347.0, 348.0, 346.0, 346.0, 347.0, 346.0, 348.0, 349.0, 352.0, 350.0, 347.0, 350.0, 346.0, 347.0, 347.0, 347.0, 349.0, 349.0, 348.0, 349.0, 349.0, 347.0, 350.0, 348.0, 347.0, 348.0, 349.0, 348.0, 348.0, 352.0, 350.0, 349.0, 347.0, 349.0, 348.0, 346.0, 347.0, 350.0, 348.0, 346.0, 347.0, 348.0, 346.0, 347.0, 348.0, 347.0, 348.0, 348.0, 351.0, 348.0, 348.0, 348.0, 352.0, 349.0, 348.0, 350.0, 349.0, 347.0, 348.0, 349.0, 347.0, 349.0, 349.0, 347.0, 348.0, 348.0, 350.0, 349.0, 347.0, 349.0, 351.0, 348.0, 347.0, 348.0, 352.0, 348.0, 347.0, 348.0, 348.0, 348.0, 349.0, 351.0, 347.0, 347.0, 349.0, 349.0, 347.0, 347.0, 352.0, 347.0, 346.0, 347.0, 347.0, 348.0, 348.0, 349.0, 352.0, 351.0, 348.0],
      "WindowWidth": [756.0, 750.0, 750.0, 749.0, 751.0, 748.0, 747.0, 747.0, 746.0, 747.0, 747.0, 747.0, 751.0, 744.0, 744.0, 745.0, 747.0, 748.0, 747.0, 747.0, 748.0, 749.0, 746.0, 747.0, 750.0, 745.0, 745.0, 747.0, 749.0, 747.0, 748.0, 748.0, 744.0, 745.0, 748.0, 746.0, 746.0, 745.0, 751.0, 746.0, 746.0, 747.0, 749.0, 750.0, 747.0, 747.0, 747.0, 745.0, 747.0, 753.0, 747.0, 747.0, 748.0, 743.0, 746.0, 743.0, 744.0, 748.0, 747.0, 747.0, 748.0, 745.0, 746.0, 743.0, 744.0, 744.0, 747.0, 747.0, 751.0, 748.0, 746.0, 748.0, 743.0, 745.0, 747.0, 747.0, 747.0, 751.0, 746.0, 746.0, 746.0, 746.0, 747.0, 751.0, 747.0, 746.0, 746.0, 744.0, 746.0, 746.0, 747.0, 748.0, 750.0, 754.0, 750.0, 746.0, 748.0, 747.0, 745.0, 745.0, 746.0, 744.0, 746.0, 743.0, 743.0, 746.0, 745.0, 745.0, 747.0, 747.0, 748.0, 748.0, 747.0, 745.0, 749.0, 744.0, 745.0, 746.0, 748.0, 747.0, 747.0, 749.0, 744.0, 745.0, 746.0, 744.0, 746.0, 751.0, 747.0, 746.0, 751.0, 748.0, 746.0, 750.0, 744.0, 745.0, 749.0, 746.0, 747.0, 750.0, 746.0, 747.0, 748.0, 746.0, 747.0, 750.0, 748.0, 746.0, 752.0, 744.0, 744.0, 746.0, 748.0, 746.0, 747.0, 748.0, 752.0, 748.0, 746.0, 746.0, 748.0, 744.0, 744.0, 748.0, 744.0, 745.0, 744.0, 745.0, 745.0, 750.0, 749.0, 748.0, 751.0, 746.0, 748.0, 743.0, 745.0, 747.0, 750.0, 749.0, 751.0, 745.0, 745.0, 742.0, 743.0, 744.0, 744.0, 746.0, 749.0, 753.0, 750.0, 746.0, 749.0, 744.0, 744.0, 744.0, 745.0, 748.0, 748.0, 746.0, 747.0, 747.0, 745.0, 749.0, 746.0, 745.0, 745.0, 747.0, 746.0, 747.0, 752.0, 750.0, 747.0, 744.0, 748.0, 745.0, 744.0, 745.0, 749.0, 745.0, 744.0, 745.0, 746.0, 744.0, 745.0, 747.0, 745.0, 746.0, 747.0, 751.0, 747.0, 747.0, 747.0, 752.0, 748.0, 746.0, 749.0, 748.0, 745.0, 746.0, 747.0, 745.0, 747.0, 748.0, 745.0, 746.0, 747.0, 750.0, 748.0, 745.0, 748.0, 750.0, 746.0, 745.0, 747.0, 751.0, 746.0, 745.0, 746.0, 747.0, 747.0, 748.0, 750.0, 746.0, 745.0, 747.0, 747.0, 745.0, 745.0, 751.0, 745.0, 743.0, 744.0, 745.0, 746.0, 748.0, 749.0, 753.0, 752.0, 748.0]
    },
    "slices": {}
  }
}