{
  "AcquisitionMatrixPE": 96,
  "AcquisitionNumber": 1,
  "AcquisitionTime": "17:56:51.642500",
  "BandwidthPerPixelPhaseEncode": 18.939,
  "BaseResolution": 96,
  "BodyPartExamined": "BRAIN",
  "ConsistencyInfo": "N4_VE11C_LATEST_20160120",
  "ConversionSoftware": "dcm2niix",
  "ConversionSoftwareVersion": "v1.0.20170923 (OpenJPEG build) GCC6.3.0",
  "DerivedVendorReportedEchoSpacing": 0.000550011,
  "DeviceSerialNumber": "66112",
  "DwellTime": 2.3e-06,
  "EchoTime": 0.033,
  "EchoTrainLength": 96,
  "EffectiveEchoSpacing": 0.000550011,
  "FlipAngle": 64,
  "ImageType": [
    "ORIGINAL",
    "PRIMARY",
    "FMRI",
    "NONE",
    "ND",
    "NORM",
    "MOSAIC"
],
  "InstitutionAddress": "Maynard_3_Hanover_NH_US_03755",
  "InstitutionName": "Dartmouth_College_-_PBS",
  "MagneticFieldStrength": 3,
  "Manufacturer": "Siemens",
  "ManufacturersModelName": "Prisma",
  "Modality": "MR",
  "MultibandAccelerationFactor": 4,
  "PartialFourier": 1,
  "PercentPhaseFOV": 100,
  "PhaseEncodingDirection": "j-",
  "PhaseEncodingSteps": 96,
  "PhaseResolution": 1,
  "ProcedureStepDescription": "Gobbini_Matteo_1017_famface-angles",
  "ProtocolName": "func_run-08_task-fam1back",
  "PulseSequenceDetails": "%SiemensSeq%_ep2d_bold",
  "ReceiveCoilActiveElements": "HEA;HEP",
  "ReceiveCoilName": "Head_32",
  "ReconMatrixPE": 96,
  "RepetitionTime": 1.25,
  "ScanOptions": "FS",
  "ScanningSequence": "EP",
  "SequenceName": "_epfid2d1_96",
  "SequenceVariant": "SK",
  "SeriesDescription": "func_run-08_task-fam1back",
  "SliceTiming": [0.88, 0, 0.615, 0.0875, 0.7025, 0.1775, 0.7925, 0.3525, 0.9675, 0.44, 1.055, 0.5275, 1.1425, 0.265, 0.88, 0, 0.615, 0.0875, 0.7025, 0.1775, 0.7925, 0.3525, 0.9675, 0.44, 1.055, 0.5275, 1.1425, 0.265, 0.88, 0, 0.615, 0.0875, 0.7025, 0.1775, 0.7925, 0.3525, 0.9675, 0.44, 1.055, 0.5275, 1.1425, 0.265, 0.88, 0, 0.615, 0.0875, 0.7025, 0.1775, 0.7925, 0.3525, 0.9675, 0.44, 1.055, 0.5275, 1.1425, 0.265],
  "SoftwareVersions": "syngo_MR_E11",
  "StationName": "AWP66112",
  "TaskName": "fam1back",
  "TotalReadoutTime": 0.0522511,
  "dcmmeta_affine": [
    [-2.49977445602417, 0.02094259299337864, 0.02624274417757988, 122.822021484375],
    [0.022297531366348267, 2.496427059173584, 0.13173717260360718, -109.03822326660156],
    [0.0251016728579998, -0.13195934891700745, 2.4963886737823486, -65.21914672851562],
    [0.0, 0.0, 0.0, 1.0]
],
  "dcmmeta_reorient_transform": [
    [0.0, -1.0, 0.0, 95.0],
    [1.0, 0.0, 0.0, 0.0],
    [0.0, 0.0, 1.0, 0.0],
    [0.0, 0.0, 0.0, 1.0]
],
  "dcmmeta_shape": [96, 96, 56, 280],
  "dcmmeta_slice_dim": 2,
  "dcmmeta_version": 0.6,
  "global": {
    "const": {
      "AccessionNumber": "A000458",
      "AcquisitionMatrix": [96, 0, 0, 96],
      "AngioFlag": "N",
      "BitsAllocated": 16,
      "BitsStored": 12,
      "BodyPartExamined": "BRAIN",
      "Columns": 768,
      "EchoNumbers": 1,
      "EchoTime": 33.0,
      "EchoTrainLength": 96,
      "FlipAngle": 64.0,
      "HighBit": 11,
      "ImageOrientationPatient": [0.99990981402231, -0.0089190128367, 0.0100406688962, 0.00837703746787, 0.99857082967368, 0.05278374151277],
      "ImagePositionPatient": [-971.77252540078, -959.42987513734, -130.52778836273],
      "ImageType": [
        "ORIGINAL",
        "PRIMARY",
        "FMRI",
        "NONE",
        "ND",
        "NORM",
        "MOSAIC"
],
      "ImagedNucleus": "1H",
      "ImagingFrequency": 123.252378,
      "InPlanePhaseEncodingDirection": "COL",
      "MRAcquisitionType": "2D",
      "MagneticFieldStrength": 3.0,
      "Manufacturer": "SIEMENS",
      "ManufacturerModelName": "Prisma",
      "Modality": "MR",
      "NumberOfAverages": 1.0,
      "NumberOfPhaseEncodingSteps": 96,
      "PercentPhaseFieldOfView": 100.0,
      "PercentSampling": 100.0,
      "PerformedProcedureStepStartTime": "165342.841000",
      "PhotometricInterpretation": "MONOCHROME2",
      "PixelBandwidth": 2265.0,
      "PixelRepresentation": 0,
      "PixelSpacing": [2.5, 2.5],
      "PositionReferenceIndicator": "",
      "ProtocolName": "func_run-08_task-fam1back",
      "RepetitionTime": 1250.0,
      "Rows": 768,
      "SAR": 0.04389106029407,
      "SamplesPerPixel": 1,
      "ScanOptions": "FS",
      "ScanningSequence": "EP",
      "SequenceName": "*epfid2d1_96",
      "SequenceVariant": "SK",
      "SeriesDescription": "func_run-08_task-fam1back",
      "SeriesNumber": 57,
      "SeriesTime": "175652.861000",
      "SliceLocation": -69.581415326599,
      "SliceThickness": 2.5,
      "SmallestImagePixelValue": 0,
      "SoftwareVersions": "syngo MR E11",
      "SpacingBetweenSlices": 2.4999999428612,
      "SpecificCharacterSet": "ISO_IR 100",
      "StudyID": "2",
      "StudyTime": "165342.781000",
      "TransmitCoilName": "Body",
      "VariableFlipAngleFlag": "N",
      "WindowCenterWidthExplanation": "Algo1",
      "dBdt": 0.0},
    "slices": {}
  },
  "time": {
    "samples": {
      "AcquisitionNumber": [1, 2, 3, 4, 5, 6, 7, 8, 9, 10, 11, 12, 13, 14, 15, 16, 17, 18, 19, 20, 21, 22, 23, 24, 25, 26, 27, 28, 29, 30, 31, 32, 33, 34, 35, 36, 37, 38, 39, 40, 41, 42, 43, 44, 45, 46, 47, 48, 49, 50, 51, 52, 53, 54, 55, 56, 57, 58, 59, 60, 61, 62, 63, 64, 65, 66, 67, 68, 69, 70, 71, 72, 73, 74, 75, 76, 77, 78, 79, 80, 81, 82, 83, 84, 85, 86, 87, 88, 89, 90, 91, 92, 93, 94, 95, 96, 97, 98, 99, 100, 101, 102, 103, 104, 105, 106, 107, 108, 109, 110, 111, 112, 113, 114, 115, 116, 117, 118, 119, 120, 121, 122, 123, 124, 125, 126, 127, 128, 129, 130, 131, 132, 133, 134, 135, 136, 137, 138, 139, 140, 141, 142, 143, 144, 145, 146, 147, 148, 149, 150, 151, 152, 153, 154, 155, 156, 157, 158, 159, 160, 161, 162, 163, 164, 165, 166, 167, 168, 169, 170, 171, 172, 173, 174, 175, 176, 177, 178, 179, 180, 181, 182, 183, 184, 185, 186, 187, 188, 189, 190, 191, 192, 193, 194, 195, 196, 197, 198, 199, 200, 201, 202, 203, 204, 205, 206, 207, 208, 209, 210, 211, 212, 213, 214, 215, 216, 217, 218, 219, 220, 221, 222, 223, 224, 225, 226, 227, 228, 229, 230, 231, 232, 233, 234, 235, 236, 237, 238, 239, 240, 241, 242, 243, 244, 245, 246, 247, 248, 249, 250, 251, 252, 253, 254, 255, 256, 257, 258, 259, 260, 261, 262, 263, 264, 265, 266, 267, 268, 269, 270, 271, 272, 273, 274, 275, 276, 277, 278, 279, 280],
      "AcquisitionTime": ["175651.642500", "175652.892500", "175654.142500", "175655.392500", "175656.642500", "175657.892500", "175659.142500", "175700.392500", "175701.642500", "175702.892500", "175704.142500", "175705.392500", "175706.642500", "175707.892500", "175709.142500", "175710.392500", "175711.642500", "175712.892500", "175714.142500", "175715.392500", "175716.642500", "175717.892500", "175719.142500", "175720.392500", "175721.642500", "175722.892500", "175724.142500", "175725.392500", "175726.642500", "175727.892500", "175729.142500", "175730.392500", "175731.642500", "175732.892500", "175734.142500", "175735.392500", "175736.642500", "175737.892500", "175739.142500", "175740.392500", "175741.642500", "175742.892500", "175744.142500", "175745.392500", "175746.642500", "175747.892500", "175749.142500", "175750.392500", "175751.642500", "175752.892500", "175754.142500", "175755.392500", "175756.642500", "175757.892500", "175759.142500", "175800.392500", "175801.642500", "175802.892500", "175804.142500", "175805.392500", "175806.642500", "175807.892500", "175809.142500", "175810.392500", "175811.642500", "175812.892500", "175814.142500", "175815.392500", "175816.642500", "175817.892500", "175819.142500", "175820.392500", "175821.642500", "175822.892500", "175824.142500", "175825.392500", "175826.642500", "175827.892500", "175829.142500", "175830.392500", "175831.642500", "175832.892500", "175834.142500", "175835.392500", "175836.642500", "175837.892500", "175839.142500", "175840.392500", "175841.642500", "175842.892500", "175844.142500", "175845.392500", "175846.642500", "175847.892500", "175849.142500", "175850.392500", "175851.642500", "175852.892500", "175854.142500", "175855.392500", "175856.642500", "175857.892500", "175859.142500", "175900.392500", "175901.642500", "175902.892500", "175904.142500", "175905.392500", "175906.642500", "175907.892500", "175909.142500", "175910.392500", "175911.642500", "175912.892500", "175914.142500", "175915.392500", "175916.642500", "175917.892500", "175919.142500", "175920.392500", "175921.642500", "175922.892500", "175924.142500", "175925.392500", "175926.642500", "175927.892500", "175929.142500", "175930.392500", "175931.642500", "175932.892500", "175934.142500", "175935.392500", "175936.642500", "175937.892500", "175939.142500", "175940.392500", "175941.642500", "175942.892500", "175944.142500", "175945.392500", "175946.642500", "175947.892500", "175949.142500", "175950.392500", "175951.642500", "175952.892500", "175954.142500", "175955.392500", "175956.642500", "175957.892500", "175959.142500", "180000.392500", "180001.642500", "180002.892500", "180004.142500", "180005.392500", "180006.642500", "180007.892500", "180009.142500", "180010.392500", "180011.642500", "180012.892500", "180014.142500", "180015.392500", "180016.642500", "180017.892500", "180019.142500", "180020.392500", "180021.642500", "180022.892500", "180024.142500", "180025.392500", "180026.642500", "180027.892500", "180029.142500", "180030.392500", "180031.642500", "180032.892500", "180034.142500", "180035.392500", "180036.642500", "180037.892500", "180039.142500", "180040.392500", "180041.642500", "180042.892500", "180044.142500", "180045.392500", "180046.642500", "180047.892500", "180049.142500", "180050.392500", "180051.642500", "180052.892500", "180054.142500", "180055.392500", "180056.642500", "180057.892500", "180059.142500", "180100.392500", "180101.642500", "180102.892500", "180104.142500", "180105.392500", "180106.642500", "180107.892500", "180109.142500", "180110.392500", "180111.642500", "180112.892500", "180114.142500", "180115.392500", "180116.642500", "180117.892500", "180119.142500", "180120.392500", "180121.642500", "180122.892500", "180124.142500", "180125.392500", "180126.642500", "180127.892500", "180129.142500", "180130.392500", "180131.642500", "180132.892500", "180134.142500", "180135.392500", "180136.642500", "180137.892500", "180139.142500", "180140.392500", "180141.642500", "180142.892500", "180144.142500", "180145.392500", "180146.642500", "180147.892500", "180149.142500", "180150.392500", "180151.642500", "180152.892500", "180154.142500", "180155.392500", "180156.642500", "180157.892500", "180159.142500", "180200.392500", "180201.642500", "180202.892500", "180204.142500", "180205.392500", "180206.642500", "180207.892500", "180209.142500", "180210.392500", "180211.642500", "180212.892500", "180214.142500", "180215.392500", "180216.642500", "180217.892500", "180219.142500", "180220.392500", "180221.642500", "180222.892500", "180224.142500", "180225.392500", "180226.642500", "180227.892500", "180229.142500", "180230.392500", "180231.642500", "180232.892500", "180234.142500", "180235.392500", "180236.642500", "180237.892500", "180239.142500", "180240.392500"],
      "ContentTime": ["175652.865000", "175653.941000", "175655.201000", "175656.447000", "175657.713000", "175658.981000", "175700.268000", "175701.446000", "175702.714000", "175703.971000", "175705.207000", "175706.473000", "175707.771000", "175709.160000", "175710.228000", "175711.459000", "175712.685000", "175713.947000", "175715.265000", "175716.472000", "175717.740000", "175719.322000", "175720.660000", "175721.938000", "175722.755000", "175724.107000", "175725.234000", "175726.467000", "175727.699000", "175728.947000", "175730.244000", "175731.448000", "175732.748000", "175734.069000", "175735.282000", "175736.455000", "175737.709000", "175738.980000", "175740.209000", "175741.457000", "175742.693000", "175743.950000", "175745.212000", "175746.497000", "175747.782000", "175748.967000", "175750.204000", "175751.466000", "175752.720000", "175753.973000", "175755.199000", "175756.457000", "175757.713000", "175758.964000", "175800.212000", "175801.463000", "175802.704000", "175803.954000", "175805.211000", "175806.468000", "175807.779000", "175808.948000", "175810.213000", "175811.467000", "175812.746000", "175813.947000", "175815.199000", "175816.441000", "175817.735000", "175818.935000", "175820.230000", "175821.448000", "175822.728000", "175824.004000", "175825.224000", "175826.466000", "175827.697000", "175828.974000", "175830.207000", "175831.442000", "175832.686000", "175833.955000", "175835.241000", "175836.453000", "175837.692000", "175838.945000", "175840.204000", "175841.459000", "175842.736000", "175843.970000", "175845.221000", "175846.477000", "175847.723000", "175848.971000", "175850.255000", "175851.467000", "175852.684000", "175853.996000", "175855.191000", "175856.459000", "175857.710000", "175858.952000", "175900.273000", "175901.521000", "175902.696000", "175903.959000", "175905.233000", "175906.493000", "175907.719000", "175908.963000", "175910.216000", "175911.463000", "175912.729000", "175914.008000", "175915.201000", "175916.449000", "175917.721000", "175918.957000", "175920.243000", "175921.527000", "175922.698000", "175923.966000", "175925.258000", "175926.510000", "175927.727000", "175928.970000", "175930.205000", "175931.458000", "175932.698000", "175933.952000", "175935.219000", "175936.476000", "175937.691000", "175938.965000", "175940.213000", "175941.526000", "175942.704000", "175943.942000", "175945.253000", "175946.481000", "175947.734000", "175948.980000", "175950.240000", "175951.510000", "175952.751000", "175953.966000", "175955.223000", "175956.461000", "175957.713000", "175958.972000", "180000.222000", "180001.465000", "180002.710000", "180003.950000", "180005.189000", "180006.464000", "180007.710000", "180008.996000", "180010.200000", "180011.420000", "180012.704000", "180013.946000", "180015.192000", "180016.474000", "180017.698000", "180018.976000", "180020.208000", "180021.467000", "180022.693000", "180023.964000", "180025.248000", "180026.466000", "180027.692000", "180028.969000", "180030.249000", "180031.458000", "180032.736000", "180033.963000", "180035.213000", "180036.462000", "180037.758000", "180038.963000", "180040.203000", "180041.504000", "180042.731000", "180043.971000", "180045.198000", "180046.433000", "180047.706000", "180048.940000", "180050.188000", "180051.440000", "180052.726000", "180053.967000", "180055.221000", "180056.476000", "180057.738000", "180058.968000", "180100.205000", "180101.479000", "180102.694000", "180103.949000", "180105.225000", "180106.478000", "180107.717000", "180108.965000", "180110.235000", "180111.461000", "180112.729000", "180113.959000", "180115.195000", "180116.478000", "180117.688000", "180118.981000", "180120.196000", "180121.441000", "180122.707000", "180123.967000", "180125.213000", "180126.450000", "180127.692000", "180128.947000", "180130.203000", "180131.460000", "180132.696000", "180133.990000", "180135.204000", "180136.480000", "180137.748000", "180139.273000", "180140.248000", "180141.474000", "180142.747000", "180144.194000", "180145.289000", "180146.474000", "180147.702000", "180148.950000", "180150.262000", "180151.478000", "180152.800000", "180153.982000", "180155.227000", "180156.457000", "180157.695000", "180158.961000", "180200.210000", "180201.468000", "180202.703000", "180203.955000", "180205.215000", "180206.476000", "180207.715000", "180209.000000", "180210.247000", "180211.459000", "180212.724000", "180213.966000", "180215.214000", "180216.461000", "180217.698000", "180218.981000", "180220.208000", "180221.502000", "180222.718000", "180223.963000", "180225.194000", "180226.464000", "180227.710000", "180228.938000", "180230.211000", "180231.505000", "180232.692000", "180233.968000", "180235.193000", "180236.487000", "180237.732000", "180239.009000", "180240.246000", "180241.491000"],
      "InstanceCreationTime": ["175652.865000", "175653.941000", "175655.201000", "175656.447000", "175657.713000", "175658.981000", "175700.268000", "175701.446000", "175702.714000", "175703.971000", "175705.207000", "175706.473000", "175707.771000", "175709.160000", "175710.228000", "175711.459000", "175712.685000", "175713.947000", "175715.265000", "175716.472000", "175717.740000", "175719.322000", "175720.660000", "175721.938000", "175722.755000", "175724.107000", "175725.234000", "175726.467000", "175727.699000", "175728.947000", "175730.244000", "175731.448000", "175732.748000", "175734.069000", "175735.282000", "175736.455000", "175737.709000", "175738.980000", "175740.209000", "175741.457000", "175742.693000", "175743.950000", "175745.212000", "175746.497000", "175747.782000", "175748.967000", "175750.204000", "175751.466000", "175752.720000", "175753.973000", "175755.199000", "175756.457000", "175757.713000", "175758.964000", "175800.212000", "175801.463000", "175802.704000", "175803.954000", "175805.211000", "175806.468000", "175807.779000", "175808.948000", "175810.213000", "175811.467000", "175812.746000", "175813.947000", "175815.199000", "175816.441000", "175817.735000", "175818.935000", "175820.230000", "175821.448000", "175822.728000", "175824.004000", "175825.224000", "175826.466000", "175827.697000", "175828.974000", "175830.207000", "175831.442000", "175832.686000", "175833.955000", "175835.241000", "175836.453000", "175837.692000", "175838.945000", "175840.204000", "175841.459000", "175842.736000", "175843.970000", "175845.221000", "175846.477000", "175847.723000", "175848.971000", "175850.255000", "175851.467000", "175852.684000", "175853.996000", "175855.191000", "175856.459000", "175857.710000", "175858.952000", "175900.273000", "175901.521000", "175902.696000", "175903.959000", "175905.233000", "175906.493000", "175907.719000", "175908.963000", "175910.216000", "175911.463000", "175912.729000", "175914.008000", "175915.201000", "175916.449000", "175917.721000", "175918.957000", "175920.243000", "175921.527000", "175922.698000", "175923.966000", "175925.258000", "175926.510000", "175927.727000", "175928.970000", "175930.205000", "175931.458000", "175932.698000", "175933.952000", "175935.219000", "175936.476000", "175937.691000", "175938.965000", "175940.213000", "175941.526000", "175942.704000", "175943.942000", "175945.253000", "175946.481000", "175947.734000", "175948.980000", "175950.240000", "175951.510000", "175952.751000", "175953.966000", "175955.223000", "175956.461000", "175957.713000", "175958.972000", "180000.222000", "180001.465000", "180002.710000", "180003.950000", "180005.189000", "180006.464000", "180007.710000", "180008.996000", "180010.200000", "180011.420000", "180012.704000", "180013.946000", "180015.192000", "180016.474000", "180017.698000", "180018.976000", "180020.208000", "180021.467000", "180022.693000", "180023.964000", "180025.248000", "180026.466000", "180027.692000", "180028.969000", "180030.249000", "180031.458000", "180032.736000", "180033.963000", "180035.213000", "180036.462000", "180037.758000", "180038.963000", "180040.203000", "180041.504000", "180042.731000", "180043.971000", "180045.198000", "180046.433000", "180047.706000", "180048.940000", "180050.188000", "180051.440000", "180052.726000", "180053.967000", "180055.221000", "180056.476000", "180057.738000", "180058.968000", "180100.205000", "180101.479000", "180102.694000", "180103.949000", "180105.225000", "180106.478000", "180107.717000", "180108.965000", "180110.235000", "180111.461000", "180112.729000", "180113.959000", "180115.195000", "180116.478000", "180117.688000", "180118.981000", "180120.196000", "180121.441000", "180122.707000", "180123.967000", "180125.213000", "180126.450000", "180127.692000", "180128.947000", "180130.203000", "180131.460000", "180132.696000", "180133.990000", "180135.204000", "180136.480000", "180137.748000", "180139.273000", "180140.248000", "180141.474000", "180142.747000", "180144.194000", "180145.289000", "180146.474000", "180147.702000", "180148.950000", "180150.262000", "180151.478000", "180152.800000", "180153.982000", "180155.227000", "180156.457000", "180157.695000", "180158.961000", "180200.210000", "180201.468000", "180202.703000", "180203.955000", "180205.215000", "180206.476000", "180207.715000", "180209.000000", "180210.247000", "180211.459000", "180212.724000", "180213.966000", "180215.214000", "180216.461000", "180217.698000", "180218.981000", "180220.208000", "180221.502000", "180222.718000", "180223.963000", "180225.194000", "180226.464000", "180227.710000", "180228.938000", "180230.211000", "180231.505000", "180232.692000", "180233.968000", "180235.193000", "180236.487000", "180237.732000", "180239.009000", "180240.246000", "180241.491000"],
      "InstanceNumber": [1, 2, 3, 4, 5, 6, 7, 8, 9, 10, 11, 12, 13, 14, 15, 16, 17, 18, 19, 20, 21, 22, 23, 24, 25, 26, 27, 28, 29, 30, 31, 32, 33, 34, 35, 36, 37, 38, 39, 40, 41, 42, 43, 44, 45, 46, 47, 48, 49, 50, 51, 52, 53, 54, 55, 56, 57, 58, 59, 60, 61, 62, 63, 64, 65, 66, 67, 68, 69, 70, 71, 72, 73, 74, 75, 76, 77, 78, 79, 80, 81, 82, 83, 84, 85, 86, 87, 88, 89, 90, 91, 92, 93, 94, 95, 96, 97, 98, 99, 100, 101, 102, 103, 104, 105, 106, 107, 108, 109, 110, 111, 112, 113, 114, 115, 116, 117, 118, 119, 120, 121, 122, 123, 124, 125, 126, 127, 128, 129, 130, 131, 132, 133, 134, 135, 136, 137, 138, 139, 140, 141, 142, 143, 144, 145, 146, 147, 148, 149, 150, 151, 152, 153, 154, 155, 156, 157, 158, 159, 160, 161, 162, 163, 164, 165, 166, 167, 168, 169, 170, 171, 172, 173, 174, 175, 176, 177, 178, 179, 180, 181, 182, 183, 184, 185, 186, 187, 188, 189, 190, 191, 192, 193, 194, 195, 196, 197, 198, 199, 200, 201, 202, 203, 204, 205, 206, 207, 208, 209, 210, 211, 212, 213, 214, 215, 216, 217, 218, 219, 220, 221, 222, 223, 224, 225, 226, 227, 228, 229, 230, 231, 232, 233, 234, 235, 236, 237, 238, 239, 240, 241, 242, 243, 244, 245, 246, 247, 248, 249, 250, 251, 252, 253, 254, 255, 256, 257, 258, 259, 260, 261, 262, 263, 264, 265, 266, 267, 268, 269, 270, 271, 272, 273, 274, 275, 276, 277, 278, 279, 280],
      "LargestImagePixelValue": [762, 901, 862, 886, 1086, 885, 714, 1018, 793, 709, 752, 797, 722, 752, 964, 718, 1061, 770, 800, 910, 713, 1069, 746, 808, 983, 740, 719, 927, 857, 879, 958, 861, 865, 825, 764, 764, 882, 717, 975, 770, 858, 736, 714, 922, 723, 826, 804, 719, 777, 780, 777, 854, 831, 814, 807, 793, 711, 713, 717, 711, 890, 731, 1048, 810, 771, 958, 829, 709, 1047, 762, 815, 788, 713, 841, 730, 706, 827, 720, 975, 808, 816, 971, 785, 766, 974, 797, 1094, 800, 810, 851, 716, 733, 876, 714, 875, 795, 804, 869, 741, 724, 801, 779, 715, 841, 815, 716, 1023, 807, 939, 828, 857, 906, 712, 713, 860, 715, 982, 799, 784, 969, 742, 802, 804, 720, 792, 861, 717, 821, 906, 818, 718, 778, 857, 907, 738, 741, 890, 776, 860, 918, 753, 713, 1013, 774, 853, 840, 860, 871, 717, 715, 871, 715, 989, 719, 963, 717, 719, 824, 715, 718, 854, 715, 940, 773, 780, 835, 711, 849, 748, 716, 1003, 763, 717, 1011, 760, 715, 750, 794, 731, 892, 853, 724, 839, 797, 719, 718, 847, 844, 822, 718, 770, 977, 716, 732, 913, 716, 733, 860, 752, 788, 927, 786, 845, 951, 836, 739, 979, 723, 723, 1027, 718, 719, 839, 820, 718, 903, 850, 740, 768, 833, 720, 719, 986, 836, 726, 783, 956, 790, 808, 880, 714, 924, 767, 717, 904, 875, 715, 764, 855, 799, 718, 718, 1061, 770, 752, 716, 927, 772, 715, 1024, 777, 719, 718, 895, 726, 718, 992, 803, 873, 924, 745, 715, 826, 782, 780, 725, 921, 831, 740, 769, 815, 757, 849, 787, 839, 719, 731, 759, 845, 1151],
      "WindowCenter": [350.0, 351.0, 350.0, 349.0, 351.0, 348.0, 345.0, 349.0, 347.0, 344.0, 346.0, 347.0, 347.0, 348.0, 351.0, 347.0, 351.0, 347.0, 348.0, 349.0, 346.0, 351.0, 347.0, 348.0, 351.0, 348.0, 348.0, 351.0, 350.0, 349.0, 350.0, 348.0, 348.0, 348.0, 348.0, 348.0, 350.0, 347.0, 349.0, 346.0, 347.0, 346.0, 346.0, 349.0, 347.0, 348.0, 348.0, 347.0, 348.0, 348.0, 348.0, 349.0, 348.0, 347.0, 346.0, 347.0, 346.0, 346.0, 348.0, 349.0, 352.0, 349.0, 351.0, 347.0, 347.0, 349.0, 348.0, 347.0, 351.0, 347.0, 347.0, 347.0, 346.0, 348.0, 347.0, 347.0, 350.0, 349.0, 353.0, 350.0, 350.0, 351.0, 348.0, 348.0, 351.0, 348.0, 351.0, 347.0, 347.0, 347.0, 346.0, 347.0, 350.0, 347.0, 349.0, 348.0, 347.0, 348.0, 346.0, 346.0, 348.0, 348.0, 348.0, 350.0, 350.0, 348.0, 351.0, 348.0, 349.0, 347.0, 347.0, 348.0, 346.0, 347.0, 350.0, 348.0, 351.0, 348.0, 347.0, 349.0, 346.0, 347.0, 348.0, 347.0, 348.0, 349.0, 347.0, 348.0, 349.0, 348.0, 347.0, 347.0, 348.0, 349.0, 347.0, 347.0, 350.0, 348.0, 349.0, 349.0, 347.0, 347.0, 352.0, 349.0, 350.0, 348.0, 347.0, 348.0, 346.0, 347.0, 350.0, 348.0, 351.0, 346.0, 349.0, 344.0, 345.0, 348.0, 347.0, 348.0, 350.0, 347.0, 349.0, 346.0, 346.0, 348.0, 346.0, 348.0, 347.0, 347.0, 351.0, 347.0, 347.0, 351.0, 347.0, 347.0, 348.0, 349.0, 348.0, 350.0, 349.0, 347.0, 348.0, 348.0, 347.0, 347.0, 350.0, 350.0, 349.0, 347.0, 348.0, 350.0, 346.0, 346.0, 349.0, 347.0, 348.0, 350.0, 349.0, 349.0, 350.0, 348.0, 348.0, 350.0, 348.0, 346.0, 350.0, 347.0, 347.0, 351.0, 346.0, 347.0, 349.0, 349.0, 347.0, 349.0, 348.0, 346.0, 347.0, 348.0, 347.0, 347.0, 351.0, 349.0, 347.0, 348.0, 350.0, 348.0, 348.0, 349.0, 347.0, 350.0, 348.0, 347.0, 349.0, 349.0, 346.0, 347.0, 349.0, 348.0, 347.0, 347.0, 351.0, 348.0, 347.0, 346.0, 349.0, 348.0, 347.0, 351.0, 348.0, 347.0, 347.0, 350.0, 347.0, 347.0, 351.0, 347.0, 348.0, 349.0, 346.0, 346.0, 348.0, 348.0, 348.0, 347.0, 350.0, 348.0, 346.0, 347.0, 348.0, 347.0, 348.0, 348.0, 349.0, 349.0, 349.0, 349.0, 350.0, 353.0],
      "WindowWidth": [751.0, 751.0, 749.0, 748.0, 750.0, 746.0, 742.0, 747.0, 744.0, 740.0, 743.0, 745.0, 745.0, 747.0, 751.0, 745.0, 750.0, 745.0, 745.0, 748.0, 744.0, 750.0, 745.0, 746.0, 750.0, 747.0, 747.0, 751.0, 749.0, 748.0, 749.0, 746.0, 746.0, 746.0, 746.0, 746.0, 749.0, 744.0, 747.0, 743.0, 744.0, 742.0, 743.0, 748.0, 745.0, 747.0, 747.0, 744.0, 746.0, 747.0, 746.0, 747.0, 746.0, 745.0, 743.0, 744.0, 743.0, 744.0, 746.0, 748.0, 752.0, 748.0, 751.0, 745.0, 744.0, 748.0, 747.0, 744.0, 750.0, 744.0, 745.0, 744.0, 743.0, 746.0, 745.0, 745.0, 749.0, 748.0, 754.0, 750.0, 749.0, 751.0, 747.0, 746.0, 751.0, 747.0, 750.0, 744.0, 744.0, 745.0, 743.0, 745.0, 748.0, 745.0, 747.0, 746.0, 745.0, 746.0, 743.0, 743.0, 745.0, 747.0, 747.0, 749.0, 749.0, 747.0, 751.0, 746.0, 747.0, 744.0, 745.0, 746.0, 743.0, 745.0, 750.0, 747.0, 750.0, 746.0, 745.0, 748.0, 743.0, 745.0, 745.0, 744.0, 746.0, 748.0, 745.0, 746.0, 748.0, 745.0, 744.0, 745.0, 746.0, 748.0, 745.0, 745.0, 749.0, 747.0, 747.0, 748.0, 745.0, 746.0, 752.0, 748.0, 748.0, 747.0, 745.0, 745.0, 743.0, 744.0, 750.0, 747.0, 750.0, 743.0, 746.0, 740.0, 742.0, 746.0, 746.0, 747.0, 750.0, 744.0, 748.0, 743.0, 743.0, 745.0, 744.0, 746.0, 745.0, 744.0, 750.0, 745.0, 744.0, 750.0, 745.0, 745.0, 746.0, 748.0, 747.0, 750.0, 748.0, 744.0, 746.0, 746.0, 744.0, 746.0, 749.0, 749.0, 748.0, 745.0, 746.0, 749.0, 743.0, 743.0, 748.0, 744.0, 746.0, 750.0, 747.0, 747.0, 749.0, 746.0, 747.0, 749.0, 746.0, 744.0, 748.0, 744.0, 744.0, 750.0, 744.0, 744.0, 748.0, 748.0, 744.0, 748.0, 746.0, 744.0, 745.0, 746.0, 744.0, 745.0, 751.0, 748.0, 746.0, 746.0, 749.0, 746.0, 746.0, 747.0, 745.0, 750.0, 746.0, 745.0, 747.0, 747.0, 743.0, 745.0, 747.0, 747.0, 745.0, 745.0, 751.0, 746.0, 745.0, 743.0, 748.0, 746.0, 744.0, 749.0, 745.0, 744.0, 744.0, 749.0, 746.0, 746.0, 750.0, 745.0, 746.0, 746.0, 743.0, 743.0, 746.0, 747.0, 747.0, 746.0, 749.0, 746.0, 744.0, 744.0, 745.0, 745.0, 746.0, 746.0, 748.0, 748.0, 749.0, 749.0, 749.0, 753.0]
    },
    "slices": {}
  }
}