{
  "AcquisitionMatrixPE": 96,
  "AcquisitionNumber": 1,
  "AcquisitionTime": "17:11:17.102500",
  "BandwidthPerPixelPhaseEncode": 18.939,
  "BaseResolution": 96,
  "BodyPartExamined": "BRAIN",
  "ConsistencyInfo": "N4_VE11C_LATEST_20160120",
  "ConversionSoftware": "dcm2niix",
  "ConversionSoftwareVersion": "v1.0.20170923 (OpenJPEG build) GCC6.3.0",
  "DerivedVendorReportedEchoSpacing": 0.000550011,
  "DeviceSerialNumber": "66112",
  "DwellTime": 2.3e-06,
  "EchoTime": 0.033,
  "EchoTrainLength": 96,
  "EffectiveEchoSpacing": 0.000550011,
  "FlipAngle": 64,
  "ImageType": [
    "ORIGINAL",
    "PRIMARY",
    "FMRI",
    "NONE",
    "ND",
    "NORM",
    "MOSAIC"
],
  "InstitutionAddress": "Maynard_3_Hanover_NH_US_03755",
  "InstitutionName": "Dartmouth_College_-_PBS",
  "MagneticFieldStrength": 3,
  "Manufacturer": "Siemens",
  "ManufacturersModelName": "Prisma",
  "Modality": "MR",
  "MultibandAccelerationFactor": 4,
  "PartialFourier": 1,
  "PercentPhaseFOV": 100,
  "PhaseEncodingDirection": "j-",
  "PhaseEncodingSteps": 96,
  "PhaseResolution": 1,
  "ProcedureStepDescription": "Gobbini_Matteo_1017_famface-angles",
  "ProtocolName": "func_run-01_task-fam1back",
  "PulseSequenceDetails": "%SiemensSeq%_ep2d_bold",
  "ReceiveCoilActiveElements": "HEA;HEP",
  "ReceiveCoilName": "Head_32",
  "ReconMatrixPE": 96,
  "RepetitionTime": 1.25,
  "ScanOptions": "FS",
  "ScanningSequence": "EP",
  "SequenceName": "_epfid2d1_96",
  "SequenceVariant": "SK",
  "SeriesDescription": "func_run-01_task-fam1back",
  "SliceTiming": [0.8775, 0, 0.615, 0.0875, 0.7025, 0.175, 0.79, 0.35, 0.965, 0.4375, 1.0525, 0.5275, 1.1425, 0.2625, 0.8775, 0, 0.615, 0.0875, 0.7025, 0.175, 0.79, 0.35, 0.965, 0.4375, 1.0525, 0.5275, 1.1425, 0.2625, 0.8775, 0, 0.615, 0.0875, 0.7025, 0.175, 0.79, 0.35, 0.965, 0.4375, 1.0525, 0.5275, 1.1425, 0.2625, 0.8775, 0, 0.615, 0.0875, 0.7025, 0.175, 0.79, 0.35, 0.965, 0.4375, 1.0525, 0.5275, 1.1425, 0.2625],
  "SoftwareVersions": "syngo_MR_E11",
  "StationName": "AWP66112",
  "TaskName": "fam1back",
  "TotalReadoutTime": 0.0522511,
  "dcmmeta_affine": [
    [-2.49977445602417, 0.02094259299337864, 0.02624274417757988, 122.822021484375],
    [0.022297531366348267, 2.496427059173584, 0.13173717260360718, -109.03822326660156],
    [0.0251016728579998, -0.13195934891700745, 2.4963886737823486, -65.21914672851562],
    [0.0, 0.0, 0.0, 1.0]
],
  "dcmmeta_reorient_transform": [
    [0.0, -1.0, 0.0, 95.0],
    [1.0, 0.0, 0.0, 0.0],
    [0.0, 0.0, 1.0, 0.0],
    [0.0, 0.0, 0.0, 1.0]
],
  "dcmmeta_shape": [96, 96, 56, 280],
  "dcmmeta_slice_dim": 2,
  "dcmmeta_version": 0.6,
  "global": {
    "const": {
      "AccessionNumber": "A000458",
      "AcquisitionMatrix": [96, 0, 0, 96],
      "AngioFlag": "N",
      "BitsAllocated": 16,
      "BitsStored": 12,
      "BodyPartExamined": "BRAIN",
      "Columns": 768,
      "EchoNumbers": 1,
      "EchoTime": 33.0,
      "EchoTrainLength": 96,
      "FlipAngle": 64.0,
      "HighBit": 11,
      "ImageOrientationPatient": [0.99990981402231, -0.0089190128367, 0.0100406688962, 0.00837703746787, 0.99857082967368, 0.05278374151277],
      "ImagePositionPatient": [-971.77252540078, -959.42987513734, -130.52778836273],
      "ImageType": [
        "ORIGINAL",
        "PRIMARY",
        "FMRI",
        "NONE",
        "ND",
        "NORM",
        "MOSAIC"
],
      "ImagedNucleus": "1H",
      "ImagingFrequency": 123.252369,
      "InPlanePhaseEncodingDirection": "COL",
      "MRAcquisitionType": "2D",
      "MagneticFieldStrength": 3.0,
      "Manufacturer": "SIEMENS",
      "ManufacturerModelName": "Prisma",
      "Modality": "MR",
      "NumberOfAverages": 1.0,
      "NumberOfPhaseEncodingSteps": 96,
      "PercentPhaseFieldOfView": 100.0,
      "PercentSampling": 100.0,
      "PerformedProcedureStepStartTime": "165342.841000",
      "PhotometricInterpretation": "MONOCHROME2",
      "PixelBandwidth": 2265.0,
      "PixelRepresentation": 0,
      "PixelSpacing": [2.5, 2.5],
      "PositionReferenceIndicator": "",
      "ProtocolName": "func_run-01_task-fam1back",
      "RepetitionTime": 1250.0,
      "Rows": 768,
      "SAR": 0.04389106029407,
      "SamplesPerPixel": 1,
      "ScanOptions": "FS",
      "ScanningSequence": "EP",
      "SequenceName": "*epfid2d1_96",
      "SequenceVariant": "SK",
      "SeriesDescription": "func_run-01_task-fam1back",
      "SeriesNumber": 8,
      "SeriesTime": "171118.278000",
      "SliceLocation": -69.581415326599,
      "SliceThickness": 2.5,
      "SmallestImagePixelValue": 0,
      "SoftwareVersions": "syngo MR E11",
      "SpacingBetweenSlices": 2.4999999428612,
      "SpecificCharacterSet": "ISO_IR 100",
      "StudyID": "2",
      "StudyTime": "165342.781000",
      "TransmitCoilName": "Body",
      "VariableFlipAngleFlag": "N",
      "WindowCenterWidthExplanation": "Algo1",
      "dBdt": 0.0},
    "slices": {}
  },
  "time": {
    "samples": {
      "AcquisitionNumber": [1, 2, 3, 4, 5, 6, 7, 8, 9, 10, 11, 12, 13, 14, 15, 16, 17, 18, 19, 20, 21, 22, 23, 24, 25, 26, 27, 28, 29, 30, 31, 32, 33, 34, 35, 36, 37, 38, 39, 40, 41, 42, 43, 44, 45, 46, 47, 48, 49, 50, 51, 52, 53, 54, 55, 56, 57, 58, 59, 60, 61, 62, 63, 64, 65, 66, 67, 68, 69, 70, 71, 72, 73, 74, 75, 76, 77, 78, 79, 80, 81, 82, 83, 84, 85, 86, 87, 88, 89, 90, 91, 92, 93, 94, 95, 96, 97, 98, 99, 100, 101, 102, 103, 104, 105, 106, 107, 108, 109, 110, 111, 112, 113, 114, 115, 116, 117, 118, 119, 120, 121, 122, 123, 124, 125, 126, 127, 128, 129, 130, 131, 132, 133, 134, 135, 136, 137, 138, 139, 140, 141, 142, 143, 144, 145, 146, 147, 148, 149, 150, 151, 152, 153, 154, 155, 156, 157, 158, 159, 160, 161, 162, 163, 164, 165, 166, 167, 168, 169, 170, 171, 172, 173, 174, 175, 176, 177, 178, 179, 180, 181, 182, 183, 184, 185, 186, 187, 188, 189, 190, 191, 192, 193, 194, 195, 196, 197, 198, 199, 200, 201, 202, 203, 204, 205, 206, 207, 208, 209, 210, 211, 212, 213, 214, 215, 216, 217, 218, 219, 220, 221, 222, 223, 224, 225, 226, 227, 228, 229, 230, 231, 232, 233, 234, 235, 236, 237, 238, 239, 240, 241, 242, 243, 244, 245, 246, 247, 248, 249, 250, 251, 252, 253, 254, 255, 256, 257, 258, 259, 260, 261, 262, 263, 264, 265, 266, 267, 268, 269, 270, 271, 272, 273, 274, 275, 276, 277, 278, 279, 280],
      "AcquisitionTime": ["171117.102500", "171118.352500", "171119.602500", "171120.852500", "171122.102500", "171123.352500", "171124.602500", "171125.852500", "171127.102500", "171128.352500", "171129.602500", "171130.852500", "171132.102500", "171133.352500", "171134.602500", "171135.852500", "171137.102500", "171138.352500", "171139.602500", "171140.852500", "171142.102500", "171143.352500", "171144.602500", "171145.852500", "171147.102500", "171148.352500", "171149.602500", "171150.852500", "171152.102500", "171153.352500", "171154.602500", "171155.852500", "171157.102500", "171158.352500", "171159.602500", "171200.852500", "171202.102500", "171203.352500", "171204.602500", "171205.852500", "171207.102500", "171208.352500", "171209.602500", "171210.852500", "171212.102500", "171213.352500", "171214.602500", "171215.852500", "171217.102500", "171218.352500", "171219.602500", "171220.852500", "171222.102500", "171223.352500", "171224.602500", "171225.852500", "171227.102500", "171228.352500", "171229.602500", "171230.852500", "171232.102500", "171233.352500", "171234.602500", "171235.852500", "171237.102500", "171238.352500", "171239.602500", "171240.852500", "171242.102500", "171243.352500", "171244.602500", "171245.852500", "171247.102500", "171248.352500", "171249.602500", "171250.852500", "171252.102500", "171253.352500", "171254.602500", "171255.852500", "171257.102500", "171258.352500", "171259.602500", "171300.852500", "171302.102500", "171303.352500", "171304.602500", "171305.852500", "171307.102500", "171308.352500", "171309.602500", "171310.852500", "171312.102500", "171313.352500", "171314.602500", "171315.852500", "171317.102500", "171318.352500", "171319.602500", "171320.852500", "171322.102500", "171323.352500", "171324.602500", "171325.852500", "171327.102500", "171328.352500", "171329.602500", "171330.852500", "171332.102500", "171333.352500", "171334.602500", "171335.852500", "171337.102500", "171338.352500", "171339.602500", "171340.852500", "171342.102500", "171343.352500", "171344.602500", "171345.852500", "171347.102500", "171348.352500", "171349.602500", "171350.852500", "171352.102500", "171353.352500", "171354.602500", "171355.852500", "171357.102500", "171358.352500", "171359.602500", "171400.852500", "171402.102500", "171403.352500", "171404.602500", "171405.852500", "171407.102500", "171408.352500", "171409.602500", "171410.852500", "171412.102500", "171413.352500", "171414.602500", "171415.852500", "171417.102500", "171418.352500", "171419.602500", "171420.852500", "171422.102500", "171423.352500", "171424.602500", "171425.852500", "171427.102500", "171428.352500", "171429.602500", "171430.852500", "171432.102500", "171433.352500", "171434.602500", "171435.852500", "171437.102500", "171438.352500", "171439.602500", "171440.852500", "171442.102500", "171443.352500", "171444.602500", "171445.852500", "171447.102500", "171448.352500", "171449.602500", "171450.852500", "171452.102500", "171453.352500", "171454.602500", "171455.852500", "171457.102500", "171458.352500", "171459.602500", "171500.852500", "171502.102500", "171503.352500", "171504.602500", "171505.852500", "171507.102500", "171508.352500", "171509.602500", "171510.852500", "171512.102500", "171513.352500", "171514.602500", "171515.852500", "171517.102500", "171518.352500", "171519.602500", "171520.852500", "171522.102500", "171523.352500", "171524.602500", "171525.852500", "171527.102500", "171528.352500", "171529.602500", "171530.852500", "171532.102500", "171533.352500", "171534.602500", "171535.852500", "171537.102500", "171538.352500", "171539.602500", "171540.852500", "171542.102500", "171543.352500", "171544.602500", "171545.852500", "171547.102500", "171548.352500", "171549.602500", "171550.852500", "171552.102500", "171553.352500", "171554.602500", "171555.852500", "171557.102500", "171558.352500", "171559.602500", "171600.852500", "171602.102500", "171603.352500", "171604.602500", "171605.852500", "171607.102500", "171608.352500", "171609.602500", "171610.852500", "171612.102500", "171613.352500", "171614.602500", "171615.852500", "171617.102500", "171618.352500", "171619.602500", "171620.852500", "171622.102500", "171623.352500", "171624.602500", "171625.852500", "171627.102500", "171628.352500", "171629.602500", "171630.852500", "171632.102500", "171633.352500", "171634.602500", "171635.852500", "171637.102500", "171638.352500", "171639.602500", "171640.852500", "171642.102500", "171643.352500", "171644.602500", "171645.852500", "171647.102500", "171648.352500", "171649.602500", "171650.852500", "171652.102500", "171653.352500", "171654.602500", "171655.852500", "171657.102500", "171658.352500", "171659.602500", "171700.852500", "171702.102500", "171703.352500", "171704.602500", "171705.852500"],
      "ContentTime": ["171118.282000", "171119.309000", "171120.532000", "171121.785000", "171123.042000", "171124.273000", "171125.535000", "171126.786000", "171128.021000", "171129.277000", "171130.526000", "171131.782000", "171133.018000", "171134.317000", "171135.508000", "171136.777000", "171138.042000", "171139.287000", "171140.558000", "171141.774000", "171143.014000", "171144.289000", "171145.547000", "171146.785000", "171148.041000", "171149.267000", "171150.555000", "171151.781000", "171153.053000", "171154.258000", "171155.537000", "171156.817000", "171158.031000", "171159.287000", "171200.530000", "171201.772000", "171203.036000", "171204.269000", "171205.537000", "171206.812000", "171208.026000", "171209.258000", "171210.510000", "171211.798000", "171213.099000", "171214.280000", "171215.535000", "171216.799000", "171218.019000", "171219.277000", "171220.512000", "171221.758000", "171223.049000", "171224.277000", "171225.551000", "171226.769000", "171228.023000", "171229.269000", "171230.523000", "171231.800000", "171233.031000", "171234.358000", "171235.561000", "171236.770000", "171238.053000", "171239.282000", "171240.548000", "171241.780000", "171243.013000", "171244.279000", "171245.509000", "171246.782000", "171248.026000", "171249.296000", "171250.528000", "171251.772000", "171253.014000", "171254.300000", "171255.524000", "171256.787000", "171258.039000", "171259.273000", "171300.538000", "171301.787000", "171303.042000", "171304.265000", "171305.524000", "171306.789000", "171308.019000", "171309.311000", "171310.527000", "171311.857000", "171313.075000", "171314.270000", "171315.526000", "171316.764000", "171318.010000", "171319.275000", "171320.557000", "171321.781000", "171323.007000", "171324.294000", "171325.517000", "171326.794000", "171328.064000", "171329.332000", "171330.541000", "171331.782000", "171333.046000", "171334.313000", "171335.531000", "171336.771000", "171338.053000", "171339.312000", "171340.503000", "171341.776000", "171343.054000", "171344.279000", "171345.581000", "171346.793000", "171348.025000", "171349.290000", "171350.540000", "171351.787000", "171353.039000", "171354.316000", "171355.527000", "171356.802000", "171358.033000", "171359.289000", "171400.525000", "171401.793000", "171403.034000", "171404.261000", "171405.525000", "171406.801000", "171408.023000", "171409.290000", "171410.529000", "171411.792000", "171413.043000", "171414.292000", "171415.543000", "171416.782000", "171418.022000", "171419.286000", "171420.559000", "171421.778000", "171423.029000", "171424.286000", "171425.545000", "171426.792000", "171428.043000", "171429.271000", "171430.536000", "171431.784000", "171433.038000", "171434.272000", "171435.515000", "171436.761000", "171438.021000", "171439.289000", "171440.521000", "171441.779000", "171443.052000", "171444.306000", "171445.541000", "171446.797000", "171448.033000", "171449.293000", "171450.507000", "171451.765000", "171453.052000", "171454.282000", "171455.521000", "171456.811000", "171458.039000", "171459.285000", "171500.535000", "171501.817000", "171503.037000", "171504.289000", "171505.544000", "171506.762000", "171508.048000", "171509.277000", "171510.558000", "171511.781000", "171513.037000", "171514.294000", "171515.525000", "171516.755000", "171518.052000", "171519.274000", "171520.530000", "171521.810000", "171523.067000", "171524.276000", "171525.535000", "171526.794000", "171528.051000", "171529.288000", "171530.519000", "171531.793000", "171533.046000", "171534.285000", "171535.536000", "171536.785000", "171538.020000", "171539.277000", "171540.520000", "171541.790000", "171543.056000", "171544.300000", "171545.530000", "171546.771000", "171548.025000", "171549.293000", "171550.516000", "171551.776000", "171553.030000", "171554.261000", "171555.570000", "171556.797000", "171558.021000", "171559.290000", "171600.534000", "171601.752000", "171603.010000", "171604.281000", "171605.539000", "171606.781000", "171608.028000", "171609.279000", "171610.535000", "171611.774000", "171613.016000", "171614.285000", "171615.543000", "171616.771000", "171618.041000", "171619.273000", "171620.533000", "171621.787000", "171623.052000", "171624.304000", "171625.569000", "171626.758000", "171628.022000", "171629.283000", "171630.541000", "171631.809000", "171633.033000", "171634.301000", "171635.568000", "171636.799000", "171638.015000", "171639.283000", "171640.543000", "171641.794000", "171643.045000", "171644.272000", "171645.549000", "171646.760000", "171648.079000", "171649.316000", "171650.495000", "171651.767000", "171653.034000", "171654.293000", "171655.539000", "171656.779000", "171658.035000", "171659.273000", "171700.501000", "171701.755000", "171703.036000", "171704.306000", "171705.542000", "171706.815000"],
      "InstanceCreationTime": ["171118.282000", "171119.309000", "171120.532000", "171121.785000", "171123.042000", "171124.273000", "171125.535000", "171126.786000", "171128.021000", "171129.277000", "171130.526000", "171131.782000", "171133.018000", "171134.317000", "171135.508000", "171136.777000", "171138.042000", "171139.287000", "171140.558000", "171141.774000", "171143.014000", "171144.289000", "171145.547000", "171146.785000", "171148.041000", "171149.267000", "171150.555000", "171151.781000", "171153.053000", "171154.258000", "171155.537000", "171156.817000", "171158.031000", "171159.287000", "171200.530000", "171201.772000", "171203.036000", "171204.269000", "171205.537000", "171206.812000", "171208.026000", "171209.258000", "171210.510000", "171211.798000", "171213.099000", "171214.280000", "171215.535000", "171216.799000", "171218.019000", "171219.277000", "171220.512000", "171221.758000", "171223.049000", "171224.277000", "171225.551000", "171226.769000", "171228.023000", "171229.269000", "171230.523000", "171231.800000", "171233.031000", "171234.358000", "171235.561000", "171236.770000", "171238.053000", "171239.282000", "171240.548000", "171241.780000", "171243.013000", "171244.279000", "171245.509000", "171246.782000", "171248.026000", "171249.296000", "171250.528000", "171251.772000", "171253.014000", "171254.300000", "171255.524000", "171256.787000", "171258.039000", "171259.273000", "171300.538000", "171301.787000", "171303.042000", "171304.265000", "171305.524000", "171306.789000", "171308.019000", "171309.311000", "171310.527000", "171311.857000", "171313.075000", "171314.270000", "171315.526000", "171316.764000", "171318.010000", "171319.275000", "171320.557000", "171321.781000", "171323.007000", "171324.294000", "171325.517000", "171326.794000", "171328.064000", "171329.332000", "171330.541000", "171331.782000", "171333.046000", "171334.313000", "171335.531000", "171336.771000", "171338.053000", "171339.312000", "171340.503000", "171341.776000", "171343.054000", "171344.279000", "171345.581000", "171346.793000", "171348.025000", "171349.290000", "171350.540000", "171351.787000", "171353.039000", "171354.316000", "171355.527000", "171356.802000", "171358.033000", "171359.289000", "171400.525000", "171401.793000", "171403.034000", "171404.261000", "171405.525000", "171406.801000", "171408.023000", "171409.290000", "171410.529000", "171411.792000", "171413.043000", "171414.292000", "171415.543000", "171416.782000", "171418.022000", "171419.286000", "171420.559000", "171421.778000", "171423.029000", "171424.286000", "171425.545000", "171426.792000", "171428.043000", "171429.271000", "171430.536000", "171431.784000", "171433.038000", "171434.272000", "171435.515000", "171436.761000", "171438.021000", "171439.289000", "171440.521000", "171441.779000", "171443.052000", "171444.306000", "171445.541000", "171446.797000", "171448.033000", "171449.293000", "171450.507000", "171451.765000", "171453.052000", "171454.282000", "171455.521000", "171456.811000", "171458.039000", "171459.285000", "171500.535000", "171501.817000", "171503.037000", "171504.289000", "171505.544000", "171506.762000", "171508.048000", "171509.277000", "171510.558000", "171511.781000", "171513.037000", "171514.294000", "171515.525000", "171516.755000", "171518.052000", "171519.274000", "171520.530000", "171521.810000", "171523.067000", "171524.276000", "171525.535000", "171526.794000", "171528.051000", "171529.288000", "171530.519000", "171531.793000", "171533.046000", "171534.285000", "171535.536000", "171536.785000", "171538.020000", "171539.277000", "171540.520000", "171541.790000", "171543.056000", "171544.300000", "171545.530000", "171546.771000", "171548.025000", "171549.293000", "171550.516000", "171551.776000", "171553.030000", "171554.261000", "171555.570000", "171556.797000", "171558.021000", "171559.290000", "171600.534000", "171601.752000", "171603.010000", "171604.281000", "171605.539000", "171606.781000", "171608.028000", "171609.279000", "171610.535000", "171611.774000", "171613.016000", "171614.285000", "171615.543000", "171616.771000", "171618.041000", "171619.273000", "171620.533000", "171621.787000", "171623.052000", "171624.304000", "171625.569000", "171626.758000", "171628.022000", "171629.283000", "171630.541000", "171631.809000", "171633.033000", "171634.301000", "171635.568000", "171636.799000", "171638.015000", "171639.283000", "171640.543000", "171641.794000", "171643.045000", "171644.272000", "171645.549000", "171646.760000", "171648.079000", "171649.316000", "171650.495000", "171651.767000", "171653.034000", "171654.293000", "171655.539000", "171656.779000", "171658.035000", "171659.273000", "171700.501000", "171701.755000", "171703.036000", "171704.306000", "171705.542000", "171706.815000"],
      "InstanceNumber": [1, 2, 3, 4, 5, 6, 7, 8, 9, 10, 11, 12, 13, 14, 15, 16, 17, 18, 19, 20, 21, 22, 23, 24, 25, 26, 27, 28, 29, 30, 31, 32, 33, 34, 35, 36, 37, 38, 39, 40, 41, 42, 43, 44, 45, 46, 47, 48, 49, 50, 51, 52, 53, 54, 55, 56, 57, 58, 59, 60, 61, 62, 63, 64, 65, 66, 67, 68, 69, 70, 71, 72, 73, 74, 75, 76, 77, 78, 79, 80, 81, 82, 83, 84, 85, 86, 87, 88, 89, 90, 91, 92, 93, 94, 95, 96, 97, 98, 99, 100, 101, 102, 103, 104, 105, 106, 107, 108, 109, 110, 111, 112, 113, 114, 115, 116, 117, 118, 119, 120, 121, 122, 123, 124, 125, 126, 127, 128, 129, 130, 131, 132, 133, 134, 135, 136, 137, 138, 139, 140, 141, 142, 143, 144, 145, 146, 147, 148, 149, 150, 151, 152, 153, 154, 155, 156, 157, 158, 159, 160, 161, 162, 163, 164, 165, 166, 167, 168, 169, 170, 171, 172, 173, 174, 175, 176, 177, 178, 179, 180, 181, 182, 183, 184, 185, 186, 187, 188, 189, 190, 191, 192, 193, 194, 195, 196, 197, 198, 199, 200, 201, 202, 203, 204, 205, 206, 207, 208, 209, 210, 211, 212, 213, 214, 215, 216, 217, 218, 219, 220, 221, 222, 223, 224, 225, 226, 227, 228, 229, 230, 231, 232, 233, 234, 235, 236, 237, 238, 239, 240, 241, 242, 243, 244, 245, 246, 247, 248, 249, 250, 251, 252, 253, 254, 255, 256, 257, 258, 259, 260, 261, 262, 263, 264, 265, 266, 267, 268, 269, 270, 271, 272, 273, 274, 275, 276, 277, 278, 279, 280],
      "LargestImagePixelValue": [867, 837, 812, 855, 708, 722, 716, 699, 696, 729, 692, 707, 692, 705, 702, 697, 704, 708, 705, 750, 708, 703, 706, 706, 710, 749, 764, 745, 765, 742, 714, 709, 705, 710, 708, 702, 705, 706, 703, 705, 718, 703, 703, 708, 708, 731, 794, 709, 710, 728, 746, 710, 711, 708, 748, 707, 707, 705, 701, 709, 709, 762, 743, 710, 708, 701, 707, 856, 702, 703, 707, 753, 766, 704, 703, 708, 702, 857, 727, 710, 718, 706, 703, 706, 710, 912, 704, 704, 703, 820, 704, 702, 702, 706, 716, 700, 703, 712, 764, 708, 704, 769, 761, 796, 846, 709, 702, 707, 701, 705, 749, 808, 703, 711, 705, 847, 735, 709, 704, 721, 870, 711, 706, 712, 709, 840, 709, 706, 705, 769, 717, 840, 808, 702, 706, 704, 702, 703, 706, 704, 844, 708, 703, 709, 766, 712, 713, 710, 820, 709, 711, 710, 805, 709, 718, 816, 748, 712, 709, 709, 840, 714, 768, 809, 744, 715, 714, 710, 765, 710, 713, 715, 762, 710, 723, 715, 796, 713, 719, 716, 846, 748, 728, 709, 717, 718, 802, 719, 724, 801, 759, 713, 715, 731, 714, 719, 718, 913, 732, 721, 718, 715, 706, 720, 719, 719, 846, 783, 722, 727, 724, 728, 814, 729, 728, 749, 752, 714, 710, 730, 726, 773, 808, 732, 726, 731, 731, 734, 732, 730, 815, 734, 731, 732, 929, 730, 731, 731, 732, 737, 737, 742, 898, 778, 733, 724, 732, 731, 795, 734, 737, 732, 805, 721, 737, 738, 928, 744, 740, 733, 735, 734, 846, 741, 737, 756, 735, 733, 730, 768, 788, 736, 743, 740, 880, 741, 740, 737, 735, 736],
      "WindowCenter": [349.0, 347.0, 346.0, 347.0, 346.0, 347.0, 348.0, 348.0, 348.0, 348.0, 347.0, 346.0, 346.0, 346.0, 346.0, 347.0, 348.0, 348.0, 348.0, 349.0, 347.0, 347.0, 347.0, 347.0, 348.0, 349.0, 349.0, 348.0, 347.0, 347.0, 347.0, 346.0, 346.0, 347.0, 347.0, 347.0, 347.0, 347.0, 347.0, 346.0, 347.0, 346.0, 346.0, 346.0, 347.0, 348.0, 349.0, 348.0, 349.0, 348.0, 347.0, 347.0, 346.0, 345.0, 347.0, 347.0, 347.0, 347.0, 347.0, 346.0, 346.0, 347.0, 347.0, 347.0, 346.0, 346.0, 346.0, 348.0, 347.0, 347.0, 347.0, 348.0, 347.0, 347.0, 347.0, 347.0, 347.0, 349.0, 346.0, 346.0, 346.0, 346.0, 347.0, 347.0, 347.0, 350.0, 346.0, 345.0, 346.0, 348.0, 345.0, 346.0, 347.0, 348.0, 348.0, 347.0, 347.0, 347.0, 348.0, 347.0, 347.0, 347.0, 347.0, 347.0, 348.0, 346.0, 347.0, 347.0, 347.0, 347.0, 347.0, 347.0, 346.0, 347.0, 347.0, 349.0, 348.0, 348.0, 347.0, 347.0, 349.0, 346.0, 345.0, 346.0, 346.0, 349.0, 347.0, 347.0, 347.0, 348.0, 347.0, 348.0, 347.0, 346.0, 345.0, 346.0, 346.0, 346.0, 347.0, 347.0, 349.0, 347.0, 348.0, 348.0, 348.0, 347.0, 347.0, 348.0, 349.0, 347.0, 347.0, 347.0, 348.0, 347.0, 346.0, 347.0, 346.0, 347.0, 348.0, 348.0, 350.0, 347.0, 347.0, 347.0, 347.0, 347.0, 347.0, 347.0, 347.0, 347.0, 346.0, 347.0, 349.0, 348.0, 348.0, 348.0, 349.0, 347.0, 348.0, 348.0, 349.0, 347.0, 346.0, 345.0, 346.0, 346.0, 348.0, 348.0, 348.0, 349.0, 347.0, 346.0, 346.0, 347.0, 347.0, 348.0, 348.0, 350.0, 347.0, 346.0, 346.0, 347.0, 347.0, 349.0, 349.0, 348.0, 349.0, 347.0, 346.0, 347.0, 347.0, 348.0, 349.0, 347.0, 347.0, 347.0, 347.0, 347.0, 347.0, 347.0, 348.0, 348.0, 349.0, 347.0, 346.0, 347.0, 347.0, 347.0, 348.0, 348.0, 350.0, 349.0, 348.0, 347.0, 349.0, 347.0, 346.0, 347.0, 348.0, 348.0, 349.0, 348.0, 350.0, 347.0, 345.0, 346.0, 347.0, 347.0, 348.0, 347.0, 347.0, 347.0, 348.0, 348.0, 348.0, 348.0, 350.0, 347.0, 347.0, 348.0, 347.0, 348.0, 349.0, 347.0, 346.0, 347.0, 347.0, 348.0, 349.0, 350.0, 350.0, 349.0, 348.0, 347.0, 349.0, 347.0, 347.0, 347.0, 347.0, 347.0],
      "WindowWidth": [749.0, 745.0, 743.0, 744.0, 742.0, 744.0, 746.0, 747.0, 747.0, 746.0, 744.0, 743.0, 743.0, 743.0, 743.0, 744.0, 747.0, 747.0, 746.0, 747.0, 744.0, 744.0, 744.0, 745.0, 747.0, 748.0, 747.0, 746.0, 745.0, 744.0, 744.0, 743.0, 743.0, 744.0, 744.0, 745.0, 745.0, 745.0, 744.0, 743.0, 744.0, 743.0, 743.0, 743.0, 744.0, 746.0, 748.0, 747.0, 748.0, 747.0, 745.0, 744.0, 742.0, 742.0, 744.0, 744.0, 744.0, 744.0, 744.0, 743.0, 743.0, 745.0, 745.0, 744.0, 743.0, 742.0, 743.0, 746.0, 744.0, 744.0, 745.0, 746.0, 745.0, 744.0, 745.0, 745.0, 745.0, 747.0, 743.0, 742.0, 742.0, 743.0, 745.0, 746.0, 745.0, 748.0, 743.0, 742.0, 743.0, 745.0, 742.0, 743.0, 744.0, 746.0, 747.0, 745.0, 745.0, 744.0, 746.0, 744.0, 744.0, 745.0, 744.0, 744.0, 746.0, 743.0, 744.0, 745.0, 744.0, 744.0, 744.0, 745.0, 743.0, 744.0, 745.0, 747.0, 746.0, 746.0, 745.0, 745.0, 747.0, 743.0, 742.0, 742.0, 743.0, 747.0, 744.0, 744.0, 745.0, 746.0, 744.0, 745.0, 745.0, 742.0, 742.0, 743.0, 743.0, 743.0, 744.0, 744.0, 748.0, 744.0, 745.0, 746.0, 746.0, 745.0, 745.0, 746.0, 747.0, 744.0, 744.0, 744.0, 747.0, 744.0, 743.0, 744.0, 743.0, 744.0, 746.0, 746.0, 749.0, 745.0, 744.0, 743.0, 744.0, 744.0, 744.0, 744.0, 745.0, 744.0, 743.0, 744.0, 747.0, 747.0, 747.0, 746.0, 747.0, 745.0, 747.0, 747.0, 748.0, 745.0, 743.0, 742.0, 742.0, 743.0, 746.0, 746.0, 746.0, 747.0, 745.0, 743.0, 743.0, 743.0, 744.0, 746.0, 747.0, 750.0, 745.0, 743.0, 743.0, 744.0, 745.0, 748.0, 748.0, 747.0, 747.0, 745.0, 743.0, 744.0, 745.0, 746.0, 748.0, 745.0, 744.0, 744.0, 745.0, 744.0, 744.0, 745.0, 746.0, 747.0, 747.0, 744.0, 743.0, 744.0, 745.0, 745.0, 746.0, 746.0, 749.0, 748.0, 747.0, 745.0, 747.0, 744.0, 743.0, 744.0, 746.0, 747.0, 747.0, 746.0, 749.0, 744.0, 741.0, 742.0, 743.0, 744.0, 745.0, 745.0, 744.0, 744.0, 746.0, 746.0, 747.0, 747.0, 750.0, 745.0, 745.0, 746.0, 745.0, 746.0, 747.0, 744.0, 743.0, 744.0, 745.0, 746.0, 749.0, 749.0, 750.0, 748.0, 746.0, 745.0, 748.0, 744.0, 744.0, 745.0, 745.0, 745.0]
    },
    "slices": {}
  }
}