{
  "AcquisitionMatrixPE": 96,
  "AcquisitionNumber": 1,
  "AcquisitionTime": "17:43:17.027500",
  "BandwidthPerPixelPhaseEncode": 18.939,
  "BaseResolution": 96,
  "BodyPartExamined": "BRAIN",
  "ConsistencyInfo": "N4_VE11C_LATEST_20160120",
  "ConversionSoftware": "dcm2niix",
  "ConversionSoftwareVersion": "v1.0.20170923 (OpenJPEG build) GCC6.3.0",
  "DerivedVendorReportedEchoSpacing": 0.000550011,
  "DeviceSerialNumber": "66112",
  "DwellTime": 2.3e-06,
  "EchoTime": 0.033,
  "EchoTrainLength": 96,
  "EffectiveEchoSpacing": 0.000550011,
  "FlipAngle": 64,
  "ImageType": [
    "ORIGINAL",
    "PRIMARY",
    "FMRI",
    "NONE",
    "ND",
    "NORM",
    "MOSAIC"
],
  "InstitutionAddress": "Maynard_3_Hanover_NH_US_03755",
  "InstitutionName": "Dartmouth_College_-_PBS",
  "MagneticFieldStrength": 3,
  "Manufacturer": "Siemens",
  "ManufacturersModelName": "Prisma",
  "Modality": "MR",
  "MultibandAccelerationFactor": 4,
  "PartialFourier": 1,
  "PercentPhaseFOV": 100,
  "PhaseEncodingDirection": "j-",
  "PhaseEncodingSteps": 96,
  "PhaseResolution": 1,
  "ProcedureStepDescription": "Gobbini_Matteo_1017_famface-angles",
  "ProtocolName": "func_run-06_task-localizer",
  "PulseSequenceDetails": "%SiemensSeq%_ep2d_bold",
  "ReceiveCoilActiveElements": "HEA;HEP",
  "ReceiveCoilName": "Head_32",
  "ReconMatrixPE": 96,
  "RepetitionTime": 1.25,
  "ScanOptions": "FS",
  "ScanningSequence": "EP",
  "SequenceName": "_epfid2d1_96",
  "SequenceVariant": "SK",
  "SeriesDescription": "func_run-06_task-localizer",
  "SliceTiming": [0.8775, 0, 0.615, 0.0875, 0.7025, 0.175, 0.79, 0.35, 0.965, 0.4375, 1.0525, 0.5275, 1.1425, 0.2625, 0.8775, 0, 0.615, 0.0875, 0.7025, 0.175, 0.79, 0.35, 0.965, 0.4375, 1.0525, 0.5275, 1.1425, 0.2625, 0.8775, 0, 0.615, 0.0875, 0.7025, 0.175, 0.79, 0.35, 0.965, 0.4375, 1.0525, 0.5275, 1.1425, 0.2625, 0.8775, 0, 0.615, 0.0875, 0.7025, 0.175, 0.79, 0.35, 0.965, 0.4375, 1.0525, 0.5275, 1.1425, 0.2625],
  "SoftwareVersions": "syngo_MR_E11",
  "StationName": "AWP66112",
  "TaskName": "localizer",
  "TotalReadoutTime": 0.0522511,
  "dcmmeta_affine": [
    [-2.49977445602417, 0.02094259299337864, 0.02624274417757988, 122.822021484375],
    [0.022297531366348267, 2.496427059173584, 0.13173717260360718, -109.03822326660156],
    [0.0251016728579998, -0.13195934891700745, 2.4963886737823486, -65.21914672851562],
    [0.0, 0.0, 0.0, 1.0]
],
  "dcmmeta_reorient_transform": [
    [0.0, -1.0, 0.0, 95.0],
    [1.0, 0.0, 0.0, 0.0],
    [0.0, 0.0, 1.0, 0.0],
    [0.0, 0.0, 0.0, 1.0]
],
  "dcmmeta_shape": [96, 96, 56, 325],
  "dcmmeta_slice_dim": 2,
  "dcmmeta_version": 0.6,
  "global": {
    "const": {
      "AccessionNumber": "A000458",
      "AcquisitionMatrix": [96, 0, 0, 96],
      "AngioFlag": "N",
      "BitsAllocated": 16,
      "BitsStored": 12,
      "BodyPartExamined": "BRAIN",
      "Columns": 768,
      "EchoNumbers": 1,
      "EchoTime": 33.0,
      "EchoTrainLength": 96,
      "FlipAngle": 64.0,
      "HighBit": 11,
      "ImageOrientationPatient": [0.99990981402231, -0.0089190128367, 0.0100406688962, 0.00837703746787, 0.99857082967368, 0.05278374151277],
      "ImagePositionPatient": [-971.77252540078, -959.42987513734, -130.52778836273],
      "ImageType": [
        "ORIGINAL",
        "PRIMARY",
        "FMRI",
        "NONE",
        "ND",
        "NORM",
        "MOSAIC"
],
      "ImagedNucleus": "1H",
      "ImagingFrequency": 123.252376,
      "InPlanePhaseEncodingDirection": "COL",
      "MRAcquisitionType": "2D",
      "MagneticFieldStrength": 3.0,
      "Manufacturer": "SIEMENS",
      "ManufacturerModelName": "Prisma",
      "Modality": "MR",
      "NumberOfAverages": 1.0,
      "NumberOfPhaseEncodingSteps": 96,
      "PercentPhaseFieldOfView": 100.0,
      "PercentSampling": 100.0,
      "PerformedProcedureStepStartTime": "165342.841000",
      "PhotometricInterpretation": "MONOCHROME2",
      "PixelBandwidth": 2265.0,
      "PixelRepresentation": 0,
      "PixelSpacing": [2.5, 2.5],
      "PositionReferenceIndicator": "",
      "ProtocolName": "func_run-06_task-localizer",
      "RepetitionTime": 1250.0,
      "Rows": 768,
      "SAR": 0.04395075081889,
      "SamplesPerPixel": 1,
      "ScanOptions": "FS",
      "ScanningSequence": "EP",
      "SequenceName": "*epfid2d1_96",
      "SequenceVariant": "SK",
      "SeriesDescription": "func_run-06_task-localizer",
      "SeriesNumber": 43,
      "SeriesTime": "174318.174000",
      "SliceLocation": -69.581415326599,
      "SliceThickness": 2.5,
      "SmallestImagePixelValue": 0,
      "SoftwareVersions": "syngo MR E11",
      "SpacingBetweenSlices": 2.4999999428612,
      "SpecificCharacterSet": "ISO_IR 100",
      "StudyID": "2",
      "StudyTime": "165342.781000",
      "TransmitCoilName": "Body",
      "VariableFlipAngleFlag": "N",
      "WindowCenterWidthExplanation": "Algo1",
      "dBdt": 0.0},
    "slices": {}
  },
  "time": {
    "samples": {
      "AcquisitionNumber": [1, 2, 3, 4, 5, 6, 7, 8, 9, 10, 11, 12, 13, 14, 15, 16, 17, 18, 19, 20, 21, 22, 23, 24, 25, 26, 27, 28, 29, 30, 31, 32, 33, 34, 35, 36, 37, 38, 39, 40, 41, 42, 43, 44, 45, 46, 47, 48, 49, 50, 51, 52, 53, 54, 55, 56, 57, 58, 59, 60, 61, 62, 63, 64, 65, 66, 67, 68, 69, 70, 71, 72, 73, 74, 75, 76, 77, 78, 79, 80, 81, 82, 83, 84, 85, 86, 87, 88, 89, 90, 91, 92, 93, 94, 95, 96, 97, 98, 99, 100, 101, 102, 103, 104, 105, 106, 107, 108, 109, 110, 111, 112, 113, 114, 115, 116, 117, 118, 119, 120, 121, 122, 123, 124, 125, 126, 127, 128, 129, 130, 131, 132, 133, 134, 135, 136, 137, 138, 139, 140, 141, 142, 143, 144, 145, 146, 147, 148, 149, 150, 151, 152, 153, 154, 155, 156, 157, 158, 159, 160, 161, 162, 163, 164, 165, 166, 167, 168, 169, 170, 171, 172, 173, 174, 175, 176, 177, 178, 179, 180, 181, 182, 183, 184, 185, 186, 187, 188, 189, 190, 191, 192, 193, 194, 195, 196, 197, 198, 199, 200, 201, 202, 203, 204, 205, 206, 207, 208, 209, 210, 211, 212, 213, 214, 215, 216, 217, 218, 219, 220, 221, 222, 223, 224, 225, 226, 227, 228, 229, 230, 231, 232, 233, 234, 235, 236, 237, 238, 239, 240, 241, 242, 243, 244, 245, 246, 247, 248, 249, 250, 251, 252, 253, 254, 255, 256, 257, 258, 259, 260, 261, 262, 263, 264, 265, 266, 267, 268, 269, 270, 271, 272, 273, 274, 275, 276, 277, 278, 279, 280, 281, 282, 283, 284, 285, 286, 287, 288, 289, 290, 291, 292, 293, 294, 295, 296, 297, 298, 299, 300, 301, 302, 303, 304, 305, 306, 307, 308, 309, 310, 311, 312, 313, 314, 315, 316, 317, 318, 319, 320, 321, 322, 323, 324, 325],
      "AcquisitionTime": ["174317.027500", "174318.277500", "174319.527500", "174320.777500", "174322.027500", "174323.277500", "174324.527500", "174325.777500", "174327.027500", "174328.277500", "174329.527500", "174330.777500", "174332.027500", "174333.277500", "174334.527500", "174335.777500", "174337.027500", "174338.277500", "174339.527500", "174340.777500", "174342.027500", "174343.277500", "174344.527500", "174345.777500", "174347.027500", "174348.277500", "174349.527500", "174350.777500", "174352.027500", "174353.277500", "174354.527500", "174355.777500", "174357.027500", "174358.277500", "174359.527500", "174400.777500", "174402.027500", "174403.277500", "174404.527500", "174405.777500", "174407.027500", "174408.277500", "174409.527500", "174410.777500", "174412.027500", "174413.277500", "174414.527500", "174415.777500", "174417.027500", "174418.277500", "174419.527500", "174420.777500", "174422.027500", "174423.277500", "174424.527500", "174425.777500", "174427.027500", "174428.277500", "174429.527500", "174430.777500", "174432.027500", "174433.277500", "174434.527500", "174435.777500", "174437.027500", "174438.277500", "174439.527500", "174440.777500", "174442.027500", "174443.277500", "174444.527500", "174445.777500", "174447.027500", "174448.277500", "174449.527500", "174450.777500", "174452.027500", "174453.277500", "174454.527500", "174455.777500", "174457.027500", "174458.277500", "174459.527500", "174500.777500", "174502.027500", "174503.277500", "174504.527500", "174505.777500", "174507.027500", "174508.277500", "174509.527500", "174510.777500", "174512.027500", "174513.277500", "174514.527500", "174515.777500", "174517.027500", "174518.277500", "174519.527500", "174520.777500", "174522.027500", "174523.277500", "174524.527500", "174525.777500", "174527.027500", "174528.277500", "174529.527500", "174530.777500", "174532.027500", "174533.277500", "174534.527500", "174535.777500", "174537.027500", "174538.277500", "174539.527500", "174540.777500", "174542.027500", "174543.277500", "174544.527500", "174545.777500", "174547.027500", "174548.277500", "174549.527500", "174550.777500", "174552.027500", "174553.277500", "174554.527500", "174555.777500", "174557.027500", "174558.277500", "174559.527500", "174600.777500", "174602.027500", "174603.277500", "174604.527500", "174605.777500", "174607.027500", "174608.277500", "174609.527500", "174610.777500", "174612.027500", "174613.277500", "174614.527500", "174615.777500", "174617.027500", "174618.277500", "174619.527500", "174620.777500", "174622.027500", "174623.277500", "174624.527500", "174625.777500", "174627.027500", "174628.277500", "174629.527500", "174630.777500", "174632.027500", "174633.277500", "174634.527500", "174635.777500", "174637.027500", "174638.277500", "174639.527500", "174640.777500", "174642.027500", "174643.277500", "174644.527500", "174645.777500", "174647.027500", "174648.277500", "174649.527500", "174650.777500", "174652.027500", "174653.277500", "174654.527500", "174655.777500", "174657.027500", "174658.277500", "174659.527500", "174700.777500", "174702.027500", "174703.277500", "174704.527500", "174705.777500", "174707.027500", "174708.277500", "174709.527500", "174710.777500", "174712.027500", "174713.277500", "174714.527500", "174715.777500", "174717.027500", "174718.277500", "174719.527500", "174720.777500", "174722.027500", "174723.277500", "174724.527500", "174725.777500", "174727.027500", "174728.277500", "174729.527500", "174730.777500", "174732.027500", "174733.277500", "174734.527500", "174735.777500", "174737.027500", "174738.277500", "174739.527500", "174740.777500", "174742.027500", "174743.277500", "174744.527500", "174745.777500", "174747.027500", "174748.277500", "174749.527500", "174750.777500", "174752.027500", "174753.277500", "174754.527500", "174755.777500", "174757.027500", "174758.277500", "174759.527500", "174800.777500", "174802.027500", "174803.277500", "174804.527500", "174805.777500", "174807.027500", "174808.277500", "174809.527500", "174810.777500", "174812.027500", "174813.277500", "174814.527500", "174815.777500", "174817.027500", "174818.277500", "174819.527500", "174820.777500", "174822.027500", "174823.277500", "174824.527500", "174825.777500", "174827.027500", "174828.277500", "174829.527500", "174830.777500", "174832.027500", "174833.277500", "174834.527500", "174835.777500", "174837.027500", "174838.277500", "174839.527500", "174840.777500", "174842.027500", "174843.277500", "174844.527500", "174845.777500", "174847.027500", "174848.277500", "174849.527500", "174850.777500", "174852.027500", "174853.277500", "174854.527500", "174855.777500", "174857.027500", "174858.277500", "174859.527500", "174900.777500", "174902.027500", "174903.277500", "174904.527500", "174905.777500", "174907.027500", "174908.277500", "174909.527500", "174910.777500", "174912.027500", "174913.277500", "174914.527500", "174915.777500", "174917.027500", "174918.277500", "174919.527500", "174920.777500", "174922.027500", "174923.277500", "174924.527500", "174925.777500", "174927.027500", "174928.277500", "174929.527500", "174930.777500", "174932.027500", "174933.277500", "174934.527500", "174935.777500", "174937.027500", "174938.277500", "174939.527500", "174940.777500", "174942.027500", "174943.277500", "174944.527500", "174945.777500", "174947.027500", "174948.277500", "174949.527500", "174950.777500", "174952.027500", "174953.277500", "174954.527500", "174955.777500", "174957.027500", "174958.277500", "174959.527500", "175000.777500", "175002.027500"],
      "ContentTime": ["174318.179000", "174319.315000", "174320.514000", "174321.853000", "174323.066000", "174324.282000", "174325.551000", "174326.780000", "174328.052000", "174329.302000", "174330.517000", "174331.814000", "174333.029000", "174334.250000", "174335.549000", "174336.795000", "174338.025000", "174339.276000", "174340.510000", "174341.794000", "174343.031000", "174344.248000", "174345.578000", "174346.789000", "174348.030000", "174349.263000", "174350.516000", "174351.779000", "174353.024000", "174354.330000", "174355.552000", "174356.794000", "174358.064000", "174359.272000", "174400.473000", "174401.756000", "174403.024000", "174404.289000", "174405.534000", "174406.782000", "174408.024000", "174409.267000", "174410.521000", "174411.790000", "174413.013000", "174414.275000", "174415.515000", "174416.747000", "174418.101000", "174419.280000", "174420.497000", "174421.779000", "174423.036000", "174424.270000", "174425.541000", "174426.757000", "174428.000000", "174429.274000", "174430.490000", "174431.778000", "174433.003000", "174434.260000", "174435.543000", "174436.794000", "174438.007000", "174439.271000", "174440.524000", "174441.761000", "174443.002000", "174444.264000", "174445.512000", "174446.785000", "174448.056000", "174449.256000", "174450.520000", "174451.813000", "174453.035000", "174454.297000", "174455.549000", "174456.775000", "174458.027000", "174459.272000", "174500.519000", "174501.768000", "174503.037000", "174504.306000", "174505.531000", "174506.785000", "174508.022000", "174509.295000", "174510.546000", "174511.785000", "174513.024000", "174514.310000", "174515.501000", "174516.767000", "174518.014000", "174519.263000", "174520.517000", "174521.785000", "174523.036000", "174524.293000", "174525.581000", "174526.788000", "174528.032000", "174529.295000", "174530.540000", "174531.824000", "174533.063000", "174534.279000", "174535.540000", "174536.776000", "174538.027000", "174539.266000", "174540.543000", "174541.780000", "174543.047000", "174544.308000", "174545.548000", "174546.779000", "174548.046000", "174549.271000", "174550.530000", "174551.838000", "174553.026000", "174554.270000", "174555.560000", "174556.792000", "174558.055000", "174559.265000", "174600.553000", "174601.795000", "174603.022000", "174604.277000", "174605.549000", "174606.772000", "174608.033000", "174609.316000", "174610.540000", "174611.803000", "174613.027000", "174614.267000", "174615.529000", "174616.788000", "174618.032000", "174619.293000", "174620.544000", "174621.813000", "174623.054000", "174624.284000", "174625.548000", "174626.770000", "174628.034000", "174629.303000", "174630.543000", "174631.794000", "174633.047000", "174634.302000", "174635.527000", "174636.804000", "174638.043000", "174639.278000", "174640.531000", "174641.797000", "174643.059000", "174644.284000", "174645.537000", "174646.776000", "174648.022000", "174649.278000", "174650.542000", "174651.794000", "174653.019000", "174654.303000", "174655.553000", "174656.786000", "174658.032000", "174659.278000", "174700.553000", "174701.744000", "174703.053000", "174704.267000", "174705.524000", "174706.784000", "174708.032000", "174709.278000", "174710.531000", "174711.820000", "174713.067000", "174714.304000", "174715.540000", "174716.780000", "174718.025000", "174719.371000", "174720.505000", "174721.777000", "174723.044000", "174724.303000", "174725.529000", "174726.766000", "174728.023000", "174729.286000", "174730.536000", "174731.826000", "174733.035000", "174734.258000", "174735.506000", "174736.779000", "174738.040000", "174739.293000", "174740.542000", "174741.803000", "174743.087000", "174744.256000", "174745.537000", "174746.809000", "174748.047000", "174749.270000", "174750.557000", "174751.771000", "174753.045000", "174754.331000", "174755.545000", "174756.779000", "174758.058000", "174759.351000", "174800.494000", "174801.767000", "174803.041000", "174804.271000", "174805.536000", "174806.796000", "174808.025000", "174809.280000", "174810.550000", "174811.777000", "174813.034000", "174814.270000", "174815.546000", "174816.790000", "174818.022000", "174819.303000", "174820.529000", "174821.796000", "174823.083000", "174824.331000", "174825.525000", "174826.796000", "174828.072000", "174829.336000", "174830.520000", "174831.780000", "174833.027000", "174834.297000", "174835.532000", "174836.761000", "174838.033000", "174839.276000", "174840.535000", "174841.751000", "174843.025000", "174844.253000", "174845.522000", "174846.796000", "174848.028000", "174849.257000", "174850.526000", "174851.794000", "174852.983000", "174854.268000", "174855.526000", "174856.778000", "174858.036000", "174859.285000", "174900.525000", "174901.791000", "174903.023000", "174904.287000", "174905.557000", "174906.833000", "174908.064000", "174909.263000", "174910.523000", "174911.774000", "174913.030000", "174914.281000", "174915.522000", "174916.767000", "174918.026000", "174919.273000", "174920.559000", "174921.821000", "174923.036000", "174924.270000", "174925.524000", "174926.779000", "174928.028000", "174929.281000", "174930.575000", "174931.770000", "174933.045000", "174934.291000", "174935.535000", "174936.777000", "174938.026000", "174939.273000", "174940.533000", "174941.804000", "174943.078000", "174944.240000", "174945.536000", "174946.782000", "174948.040000", "174949.292000", "174950.522000", "174951.783000", "174953.060000", "174954.282000", "174955.539000", "174956.801000", "174958.025000", "174959.257000", "175000.533000", "175001.752000", "175003.122000"],
      "InstanceCreationTime": ["174318.179000", "174319.315000", "174320.514000", "174321.853000", "174323.066000", "174324.282000", "174325.551000", "174326.780000", "174328.052000", "174329.302000", "174330.517000", "174331.814000", "174333.029000", "174334.250000", "174335.549000", "174336.795000", "174338.025000", "174339.276000", "174340.510000", "174341.794000", "174343.031000", "174344.248000", "174345.578000", "174346.789000", "174348.030000", "174349.263000", "174350.516000", "174351.779000", "174353.024000", "174354.330000", "174355.552000", "174356.794000", "174358.064000", "174359.272000", "174400.473000", "174401.756000", "174403.024000", "174404.289000", "174405.534000", "174406.782000", "174408.024000", "174409.267000", "174410.521000", "174411.790000", "174413.013000", "174414.275000", "174415.515000", "174416.747000", "174418.101000", "174419.280000", "174420.497000", "174421.779000", "174423.036000", "174424.270000", "174425.541000", "174426.757000", "174428.000000", "174429.274000", "174430.490000", "174431.778000", "174433.003000", "174434.260000", "174435.543000", "174436.794000", "174438.007000", "174439.271000", "174440.524000", "174441.761000", "174443.002000", "174444.264000", "174445.512000", "174446.785000", "174448.056000", "174449.256000", "174450.520000", "174451.813000", "174453.035000", "174454.297000", "174455.549000", "174456.775000", "174458.027000", "174459.272000", "174500.519000", "174501.768000", "174503.037000", "174504.306000", "174505.531000", "174506.785000", "174508.022000", "174509.295000", "174510.546000", "174511.785000", "174513.024000", "174514.310000", "174515.501000", "174516.767000", "174518.014000", "174519.263000", "174520.517000", "174521.785000", "174523.036000", "174524.293000", "174525.581000", "174526.788000", "174528.032000", "174529.295000", "174530.540000", "174531.824000", "174533.063000", "174534.279000", "174535.540000", "174536.776000", "174538.027000", "174539.266000", "174540.543000", "174541.780000", "174543.047000", "174544.308000", "174545.548000", "174546.779000", "174548.046000", "174549.271000", "174550.530000", "174551.838000", "174553.026000", "174554.270000", "174555.560000", "174556.792000", "174558.055000", "174559.265000", "174600.553000", "174601.795000", "174603.022000", "174604.277000", "174605.549000", "174606.772000", "174608.033000", "174609.316000", "174610.540000", "174611.803000", "174613.027000", "174614.267000", "174615.529000", "174616.788000", "174618.032000", "174619.293000", "174620.544000", "174621.813000", "174623.054000", "174624.284000", "174625.548000", "174626.770000", "174628.034000", "174629.303000", "174630.543000", "174631.794000", "174633.047000", "174634.302000", "174635.527000", "174636.804000", "174638.043000", "174639.278000", "174640.531000", "174641.797000", "174643.059000", "174644.284000", "174645.537000", "174646.776000", "174648.022000", "174649.278000", "174650.542000", "174651.794000", "174653.019000", "174654.303000", "174655.553000", "174656.786000", "174658.032000", "174659.278000", "174700.553000", "174701.744000", "174703.053000", "174704.267000", "174705.524000", "174706.784000", "174708.032000", "174709.278000", "174710.531000", "174711.820000", "174713.067000", "174714.304000", "174715.540000", "174716.780000", "174718.025000", "174719.371000", "174720.505000", "174721.777000", "174723.044000", "174724.303000", "174725.529000", "174726.766000", "174728.023000", "174729.286000", "174730.536000", "174731.826000", "174733.035000", "174734.258000", "174735.506000", "174736.779000", "174738.040000", "174739.293000", "174740.542000", "174741.803000", "174743.087000", "174744.256000", "174745.537000", "174746.809000", "174748.047000", "174749.270000", "174750.557000", "174751.771000", "174753.045000", "174754.331000", "174755.545000", "174756.779000", "174758.058000", "174759.351000", "174800.494000", "174801.767000", "174803.041000", "174804.271000", "174805.536000", "174806.796000", "174808.025000", "174809.280000", "174810.550000", "174811.777000", "174813.034000", "174814.270000", "174815.546000", "174816.790000", "174818.022000", "174819.303000", "174820.529000", "174821.796000", "174823.083000", "174824.331000", "174825.525000", "174826.796000", "174828.072000", "174829.336000", "174830.520000", "174831.780000", "174833.027000", "174834.297000", "174835.532000", "174836.761000", "174838.033000", "174839.276000", "174840.535000", "174841.751000", "174843.025000", "174844.253000", "174845.522000", "174846.796000", "174848.028000", "174849.257000", "174850.526000", "174851.794000", "174852.983000", "174854.268000", "174855.526000", "174856.778000", "174858.036000", "174859.285000", "174900.525000", "174901.791000", "174903.023000", "174904.287000", "174905.557000", "174906.833000", "174908.064000", "174909.263000", "174910.523000", "174911.774000", "174913.030000", "174914.281000", "174915.522000", "174916.767000", "174918.026000", "174919.273000", "174920.559000", "174921.821000", "174923.036000", "174924.270000", "174925.524000", "174926.779000", "174928.028000", "174929.281000", "174930.575000", "174931.770000", "174933.045000", "174934.291000", "174935.535000", "174936.777000", "174938.026000", "174939.273000", "174940.533000", "174941.804000", "174943.078000", "174944.240000", "174945.536000", "174946.782000", "174948.040000", "174949.292000", "174950.522000", "174951.783000", "174953.060000", "174954.282000", "174955.539000", "174956.801000", "174958.025000", "174959.257000", "175000.533000", "175001.752000", "175003.122000"],
      "InstanceNumber": [1, 2, 3, 4, 5, 6, 7, 8, 9, 10, 11, 12, 13, 14, 15, 16, 17, 18, 19, 20, 21, 22, 23, 24, 25, 26, 27, 28, 29, 30, 31, 32, 33, 34, 35, 36, 37, 38, 39, 40, 41, 42, 43, 44, 45, 46, 47, 48, 49, 50, 51, 52, 53, 54, 55, 56, 57, 58, 59, 60, 61, 62, 63, 64, 65, 66, 67, 68, 69, 70, 71, 72, 73, 74, 75, 76, 77, 78, 79, 80, 81, 82, 83, 84, 85, 86, 87, 88, 89, 90, 91, 92, 93, 94, 95, 96, 97, 98, 99, 100, 101, 102, 103, 104, 105, 106, 107, 108, 109, 110, 111, 112, 113, 114, 115, 116, 117, 118, 119, 120, 121, 122, 123, 124, 125, 126, 127, 128, 129, 130, 131, 132, 133, 134, 135, 136, 137, 138, 139, 140, 141, 142, 143, 144, 145, 146, 147, 148, 149, 150, 151, 152, 153, 154, 155, 156, 157, 158, 159, 160, 161, 162, 163, 164, 165, 166, 167, 168, 169, 170, 171, 172, 173, 174, 175, 176, 177, 178, 179, 180, 181, 182, 183, 184, 185, 186, 187, 188, 189, 190, 191, 192, 193, 194, 195, 196, 197, 198, 199, 200, 201, 202, 203, 204, 205, 206, 207, 208, 209, 210, 211, 212, 213, 214, 215, 216, 217, 218, 219, 220, 221, 222, 223, 224, 225, 226, 227, 228, 229, 230, 231, 232, 233, 234, 235, 236, 237, 238, 239, 240, 241, 242, 243, 244, 245, 246, 247, 248, 249, 250, 251, 252, 253, 254, 255, 256, 257, 258, 259, 260, 261, 262, 263, 264, 265, 266, 267, 268, 269, 270, 271, 272, 273, 274, 275, 276, 277, 278, 279, 280, 281, 282, 283, 284, 285, 286, 287, 288, 289, 290, 291, 292, 293, 294, 295, 296, 297, 298, 299, 300, 301, 302, 303, 304, 305, 306, 307, 308, 309, 310, 311, 312, 313, 314, 315, 316, 317, 318, 319, 320, 321, 322, 323, 324, 325],
      "LargestImagePixelValue": [1031, 821, 837, 734, 729, 908, 941, 779, 740, 780, 912, 716, 713, 952, 754, 711, 725, 1033, 888, 797, 803, 786, 973, 778, 779, 840, 920, 949, 776, 718, 843, 851, 794, 853, 960, 834, 769, 812, 1013, 831, 758, 794, 936, 842, 782, 827, 881, 840, 847, 718, 825, 929, 733, 871, 785, 708, 715, 822, 717, 1046, 811, 816, 956, 721, 802, 837, 717, 728, 988, 768, 800, 896, 717, 758, 871, 838, 715, 1013, 829, 718, 729, 856, 733, 786, 957, 718, 1012, 764, 737, 761, 713, 907, 766, 1033, 767, 778, 790, 720, 887, 777, 794, 860, 714, 722, 888, 752, 845, 898, 816, 929, 722, 715, 886, 728, 752, 903, 719, 1095, 723, 756, 834, 723, 802, 812, 809, 916, 792, 869, 794, 848, 841, 715, 883, 749, 722, 885, 733, 754, 1005, 812, 731, 717, 777, 1016, 781, 1095, 767, 722, 873, 715, 722, 777, 711, 901, 761, 791, 917, 722, 717, 891, 832, 786, 913, 800, 858, 938, 757, 718, 746, 910, 763, 847, 829, 713, 717, 901, 719, 713, 966, 824, 718, 838, 854, 722, 711, 898, 755, 817, 850, 715, 712, 786, 713, 747, 812, 979, 964, 800, 776, 814, 941, 904, 749, 796, 901, 714, 801, 915, 715, 715, 712, 766, 715, 715, 739, 893, 803, 798, 1061, 761, 710, 726, 877, 783, 1041, 777, 854, 820, 712, 709, 708, 800, 760, 746, 1025, 812, 855, 978, 743, 712, 947, 771, 724, 879, 719, 711, 885, 812, 746, 714, 911, 728, 711, 711, 708, 928, 840, 787, 814, 1075, 876, 708, 707, 864, 709, 756, 950, 737, 716, 701, 722, 884, 875, 768, 706, 717, 961, 849, 717, 703, 797, 844, 735, 855, 808, 705, 778, 708, 704, 715, 791, 733, 758, 1057, 767, 710, 710, 720, 919, 817, 737, 1083, 777, 845, 767, 710, 709, 833, 728, 712, 890, 801, 719, 792, 1003, 795, 703, 797, 803, 706, 704, 704, 728, 853, 761],
      "WindowCenter": [353.0, 349.0, 348.0, 346.0, 347.0, 351.0, 351.0, 348.0, 347.0, 348.0, 350.0, 347.0, 347.0, 351.0, 350.0, 349.0, 349.0, 353.0, 351.0, 349.0, 349.0, 349.0, 352.0, 349.0, 349.0, 350.0, 351.0, 351.0, 348.0, 347.0, 350.0, 350.0, 349.0, 350.0, 351.0, 349.0, 348.0, 349.0, 352.0, 350.0, 348.0, 349.0, 351.0, 349.0, 348.0, 348.0, 349.0, 350.0, 350.0, 349.0, 350.0, 351.0, 348.0, 349.0, 348.0, 346.0, 347.0, 350.0, 349.0, 352.0, 350.0, 349.0, 350.0, 346.0, 348.0, 349.0, 347.0, 348.0, 351.0, 349.0, 349.0, 350.0, 347.0, 347.0, 349.0, 349.0, 348.0, 352.0, 348.0, 347.0, 347.0, 350.0, 349.0, 349.0, 351.0, 347.0, 350.0, 346.0, 346.0, 347.0, 348.0, 351.0, 348.0, 351.0, 347.0, 347.0, 347.0, 347.0, 349.0, 348.0, 348.0, 349.0, 346.0, 346.0, 350.0, 349.0, 350.0, 349.0, 348.0, 348.0, 345.0, 346.0, 350.0, 348.0, 349.0, 351.0, 347.0, 351.0, 346.0, 347.0, 349.0, 348.0, 349.0, 349.0, 348.0, 349.0, 348.0, 348.0, 348.0, 348.0, 348.0, 346.0, 349.0, 346.0, 347.0, 350.0, 348.0, 349.0, 352.0, 350.0, 349.0, 349.0, 350.0, 352.0, 348.0, 350.0, 346.0, 345.0, 348.0, 346.0, 347.0, 348.0, 347.0, 350.0, 348.0, 348.0, 350.0, 348.0, 349.0, 352.0, 350.0, 349.0, 349.0, 347.0, 348.0, 349.0, 347.0, 347.0, 348.0, 350.0, 348.0, 348.0, 347.0, 346.0, 347.0, 351.0, 349.0, 349.0, 351.0, 349.0, 347.0, 348.0, 349.0, 346.0, 347.0, 350.0, 348.0, 348.0, 348.0, 346.0, 346.0, 348.0, 348.0, 348.0, 350.0, 353.0, 352.0, 350.0, 349.0, 348.0, 349.0, 349.0, 346.0, 346.0, 348.0, 345.0, 346.0, 348.0, 346.0, 346.0, 347.0, 348.0, 348.0, 348.0, 349.0, 352.0, 349.0, 348.0, 351.0, 347.0, 347.0, 348.0, 351.0, 349.0, 351.0, 347.0, 347.0, 347.0, 346.0, 346.0, 348.0, 350.0, 349.0, 348.0, 351.0, 348.0, 347.0, 349.0, 347.0, 347.0, 351.0, 348.0, 347.0, 349.0, 345.0, 346.0, 349.0, 348.0, 347.0, 346.0, 350.0, 347.0, 346.0, 347.0, 348.0, 351.0, 350.0, 349.0, 348.0, 350.0, 347.0, 344.0, 345.0, 348.0, 345.0, 346.0, 350.0, 346.0, 346.0, 347.0, 348.0, 351.0, 350.0, 348.0, 347.0, 347.0, 350.0, 349.0, 347.0, 347.0, 348.0, 349.0, 346.0, 348.0, 347.0, 345.0, 347.0, 347.0, 347.0, 348.0, 350.0, 348.0, 348.0, 352.0, 348.0, 347.0, 347.0, 348.0, 352.0, 350.0, 349.0, 351.0, 346.0, 347.0, 345.0, 345.0, 346.0, 349.0, 348.0, 347.0, 350.0, 348.0, 347.0, 348.0, 350.0, 348.0, 346.0, 347.0, 348.0, 346.0, 347.0, 348.0, 349.0, 351.0, 349.0],
