{
  "AcquisitionMatrixPE": 96,
  "AcquisitionNumber": 1,
  "AcquisitionTime": "17:36:35.840000",
  "BandwidthPerPixelPhaseEncode": 18.939,
  "BaseResolution": 96,
  "BodyPartExamined": "BRAIN",
  "ConsistencyInfo": "N4_VE11C_LATEST_20160120",
  "ConversionSoftware": "dcm2niix",
  "ConversionSoftwareVersion": "v1.0.20170923 (OpenJPEG build) GCC6.3.0",
  "DerivedVendorReportedEchoSpacing": 0.000550011,
  "DeviceSerialNumber": "66112",
  "DwellTime": 2.3e-06,
  "EchoTime": 0.033,
  "EchoTrainLength": 96,
  "EffectiveEchoSpacing": 0.000550011,
  "FlipAngle": 64,
  "ImageType": [
    "ORIGINAL",
    "PRIMARY",
    "FMRI",
    "NONE",
    "ND",
    "NORM",
    "MOSAIC"
],
  "InstitutionAddress": "Maynard_3_Hanover_NH_US_03755",
  "InstitutionName": "Dartmouth_College_-_PBS",
  "MagneticFieldStrength": 3,
  "Manufacturer": "Siemens",
  "ManufacturersModelName": "Prisma",
  "Modality": "MR",
  "MultibandAccelerationFactor": 4,
  "PartialFourier": 1,
  "PercentPhaseFOV": 100,
  "PhaseEncodingDirection": "j-",
  "PhaseEncodingSteps": 96,
  "PhaseResolution": 1,
  "ProcedureStepDescription": "Gobbini_Matteo_1017_famface-angles",
  "ProtocolName": "func_run-05_task-fam1back",
  "PulseSequenceDetails": "%SiemensSeq%_ep2d_bold",
  "ReceiveCoilActiveElements": "HEA;HEP",
  "ReceiveCoilName": "Head_32",
  "ReconMatrixPE": 96,
  "RepetitionTime": 1.25,
  "ScanOptions": "FS",
  "ScanningSequence": "EP",
  "SequenceName": "_epfid2d1_96",
  "SequenceVariant": "SK",
  "SeriesDescription": "func_run-05_task-fam1back",
  "SliceTiming": [0.8775, 0, 0.615, 0.0875, 0.7025, 0.175, 0.79, 0.3525, 0.9675, 0.44, 1.055, 0.5275, 1.1425, 0.2625, 0.8775, 0, 0.615, 0.0875, 0.7025, 0.175, 0.79, 0.3525, 0.9675, 0.44, 1.055, 0.5275, 1.1425, 0.2625, 0.8775, 0, 0.615, 0.0875, 0.7025, 0.175, 0.79, 0.3525, 0.9675, 0.44, 1.055, 0.5275, 1.1425, 0.2625, 0.8775, 0, 0.615, 0.0875, 0.7025, 0.175, 0.79, 0.3525, 0.9675, 0.44, 1.055, 0.5275, 1.1425, 0.2625],
  "SoftwareVersions": "syngo_MR_E11",
  "StationName": "AWP66112",
  "TaskName": "fam1back",
  "TotalReadoutTime": 0.0522511,
  "dcmmeta_affine": [
    [-2.49977445602417, 0.02094259299337864, 0.02624274417757988, 122.822021484375],
    [0.022297531366348267, 2.496427059173584, 0.13173717260360718, -109.03822326660156],
    [0.0251016728579998, -0.13195934891700745, 2.4963886737823486, -65.21914672851562],
    [0.0, 0.0, 0.0, 1.0]
],
  "dcmmeta_reorient_transform": [
    [0.0, -1.0, 0.0, 95.0],
    [1.0, 0.0, 0.0, 0.0],
    [0.0, 0.0, 1.0, 0.0],
    [0.0, 0.0, 0.0, 1.0]
],
  "dcmmeta_shape": [96, 96, 56, 280],
  "dcmmeta_slice_dim": 2,
  "dcmmeta_version": 0.6,
  "global": {
    "const": {
      "AccessionNumber": "A000458",
      "AcquisitionMatrix": [96, 0, 0, 96],
      "AngioFlag": "N",
      "BitsAllocated": 16,
      "BitsStored": 12,
      "BodyPartExamined": "BRAIN",
      "Columns": 768,
      "EchoNumbers": 1,
      "EchoTime": 33.0,
      "EchoTrainLength": 96,
      "FlipAngle": 64.0,
      "HighBit": 11,
      "ImageOrientationPatient": [0.99990981402231, -0.0089190128367, 0.0100406688962, 0.00837703746787, 0.99857082967368, 0.05278374151277],
      "ImagePositionPatient": [-971.77252540078, -959.42987513734, -130.52778836273],
      "ImageType": [
        "ORIGINAL",
        "PRIMARY",
        "FMRI",
        "NONE",
        "ND",
        "NORM",
        "MOSAIC"
],
      "ImagedNucleus": "1H",
      "ImagingFrequency": 123.252375,
      "InPlanePhaseEncodingDirection": "COL",
      "MRAcquisitionType": "2D",
      "MagneticFieldStrength": 3.0,
      "Manufacturer": "SIEMENS",
      "ManufacturerModelName": "Prisma",
      "Modality": "MR",
      "NumberOfAverages": 1.0,
      "NumberOfPhaseEncodingSteps": 96,
      "PercentPhaseFieldOfView": 100.0,
      "PercentSampling": 100.0,
      "PerformedProcedureStepStartTime": "165342.841000",
      "PhotometricInterpretation": "MONOCHROME2",
      "PixelBandwidth": 2265.0,
      "PixelRepresentation": 0,
      "PixelSpacing": [2.5, 2.5],
      "PositionReferenceIndicator": "",
      "ProtocolName": "func_run-05_task-fam1back",
      "RepetitionTime": 1250.0,
      "Rows": 768,
      "SAR": 0.04389106029407,
      "SamplesPerPixel": 1,
      "ScanOptions": "FS",
      "ScanningSequence": "EP",
      "SequenceName": "*epfid2d1_96",
      "SequenceVariant": "SK",
      "SeriesDescription": "func_run-05_task-fam1back",
      "SeriesNumber": 36,
      "SeriesTime": "173637.226000",
      "SliceLocation": -69.581415326599,
      "SliceThickness": 2.5,
      "SmallestImagePixelValue": 0,
      "SoftwareVersions": "syngo MR E11",
      "SpacingBetweenSlices": 2.4999999428612,
      "SpecificCharacterSet": "ISO_IR 100",
      "StudyID": "2",
      "StudyTime": "165342.781000",
      "TransmitCoilName": "Body",
      "VariableFlipAngleFlag": "N",
      "WindowCenterWidthExplanation": "Algo1",
      "dBdt": 0.0},
    "slices": {}
  },
  "time": {
    "samples": {
      "AcquisitionNumber": [1, 2, 3, 4, 5, 6, 7, 8, 9, 10, 11, 12, 13, 14, 15, 16, 17, 18, 19, 20, 21, 22, 23, 24, 25, 26, 27, 28, 29, 30, 31, 32, 33, 34, 35, 36, 37, 38, 39, 40, 41, 42, 43, 44, 45, 46, 47, 48, 49, 50, 51, 52, 53, 54, 55, 56, 57, 58, 59, 60, 61, 62, 63, 64, 65, 66, 67, 68, 69, 70, 71, 72, 73, 74, 75, 76, 77, 78, 79, 80, 81, 82, 83, 84, 85, 86, 87, 88, 89, 90, 91, 92, 93, 94, 95, 96, 97, 98, 99, 100, 101, 102, 103, 104, 105, 106, 107, 108, 109, 110, 111, 112, 113, 114, 115, 116, 117, 118, 119, 120, 121, 122, 123, 124, 125, 126, 127, 128, 129, 130, 131, 132, 133, 134, 135, 136, 137, 138, 139, 140, 141, 142, 143, 144, 145, 146, 147, 148, 149, 150, 151, 152, 153, 154, 155, 156, 157, 158, 159, 160, 161, 162, 163, 164, 165, 166, 167, 168, 169, 170, 171, 172, 173, 174, 175, 176, 177, 178, 179, 180, 181, 182, 183, 184, 185, 186, 187, 188, 189, 190, 191, 192, 193, 194, 195, 196, 197, 198, 199, 200, 201, 202, 203, 204, 205, 206, 207, 208, 209, 210, 211, 212, 213, 214, 215, 216, 217, 218, 219, 220, 221, 222, 223, 224, 225, 226, 227, 228, 229, 230, 231, 232, 233, 234, 235, 236, 237, 238, 239, 240, 241, 242, 243, 244, 245, 246, 247, 248, 249, 250, 251, 252, 253, 254, 255, 256, 257, 258, 259, 260, 261, 262, 263, 264, 265, 266, 267, 268, 269, 270, 271, 272, 273, 274, 275, 276, 277, 278, 279, 280],
      "AcquisitionTime": ["173635.840000", "173637.090000", "173638.340000", "173639.590000", "173640.840000", "173642.090000", "173643.340000", "173644.590000", "173645.840000", "173647.090000", "173648.340000", "173649.590000", "173650.840000", "173652.090000", "173653.340000", "173654.590000", "173655.840000", "173657.090000", "173658.340000", "173659.590000", "173700.840000", "173702.090000", "173703.340000", "173704.590000", "173705.840000", "173707.090000", "173708.340000", "173709.590000", "173710.840000", "173712.090000", "173713.340000", "173714.590000", "173715.840000", "173717.090000", "173718.340000", "173719.590000", "173720.840000", "173722.090000", "173723.340000", "173724.590000", "173725.840000", "173727.090000", "173728.340000", "173729.590000", "173730.840000", "173732.090000", "173733.340000", "173734.590000", "173735.840000", "173737.090000", "173738.340000", "173739.590000", "173740.840000", "173742.090000", "173743.340000", "173744.590000", "173745.840000", "173747.090000", "173748.340000", "173749.590000", "173750.840000", "173752.090000", "173753.340000", "173754.590000", "173755.840000", "173757.090000", "173758.340000", "173759.590000", "173800.840000", "173802.090000", "173803.340000", "173804.590000", "173805.840000", "173807.090000", "173808.340000", "173809.590000", "173810.840000", "173812.090000", "173813.340000", "173814.590000", "173815.840000", "173817.090000", "173818.340000", "173819.590000", "173820.840000", "173822.090000", "173823.340000", "173824.590000", "173825.840000", "173827.090000", "173828.340000", "173829.590000", "173830.840000", "173832.090000", "173833.340000", "173834.590000", "173835.840000", "173837.090000", "173838.340000", "173839.590000", "173840.840000", "173842.090000", "173843.340000", "173844.590000", "173845.840000", "173847.090000", "173848.340000", "173849.590000", "173850.840000", "173852.090000", "173853.340000", "173854.590000", "173855.840000", "173857.090000", "173858.340000", "173859.590000", "173900.840000", "173902.090000", "173903.340000", "173904.590000", "173905.840000", "173907.090000", "173908.340000", "173909.590000", "173910.840000", "173912.090000", "173913.340000", "173914.590000", "173915.840000", "173917.090000", "173918.340000", "173919.590000", "173920.840000", "173922.090000", "173923.340000", "173924.590000", "173925.840000", "173927.090000", "173928.340000", "173929.590000", "173930.840000", "173932.090000", "173933.340000", "173934.590000", "173935.840000", "173937.090000", "173938.340000", "173939.590000", "173940.840000", "173942.090000", "173943.340000", "173944.590000", "173945.840000", "173947.090000", "173948.340000", "173949.590000", "173950.840000", "173952.090000", "173953.340000", "173954.590000", "173955.840000", "173957.090000", "173958.340000", "173959.590000", "174000.840000", "174002.090000", "174003.340000", "174004.590000", "174005.840000", "174007.090000", "174008.340000", "174009.590000", "174010.840000", "174012.090000", "174013.340000", "174014.590000", "174015.840000", "174017.090000", "174018.340000", "174019.590000", "174020.840000", "174022.090000", "174023.340000", "174024.590000", "174025.840000", "174027.090000", "174028.340000", "174029.590000", "174030.840000", "174032.090000", "174033.340000", "174034.590000", "174035.840000", "174037.090000", "174038.340000", "174039.590000", "174040.840000", "174042.090000", "174043.340000", "174044.590000", "174045.840000", "174047.090000", "174048.340000", "174049.590000", "174050.840000", "174052.090000", "174053.340000", "174054.590000", "174055.840000", "174057.090000", "174058.340000", "174059.590000", "174100.840000", "174102.090000", "174103.340000", "174104.590000", "174105.840000", "174107.090000", "174108.340000", "174109.590000", "174110.840000", "174112.090000", "174113.340000", "174114.590000", "174115.840000", "174117.090000", "174118.340000", "174119.590000", "174120.840000", "174122.090000", "174123.340000", "174124.590000", "174125.840000", "174127.090000", "174128.340000", "174129.590000", "174130.840000", "174132.090000", "174133.340000", "174134.590000", "174135.840000", "174137.090000", "174138.340000", "174139.590000", "174140.840000", "174142.090000", "174143.340000", "174144.590000", "174145.840000", "174147.090000", "174148.340000", "174149.590000", "174150.840000", "174152.090000", "174153.340000", "174154.590000", "174155.840000", "174157.090000", "174158.340000", "174159.590000", "174200.840000", "174202.090000", "174203.340000", "174204.590000", "174205.840000", "174207.090000", "174208.340000", "174209.590000", "174210.840000", "174212.090000", "174213.340000", "174214.590000", "174215.840000", "174217.090000", "174218.340000", "174219.590000", "174220.840000", "174222.090000", "174223.340000", "174224.590000"],
      "ContentTime": ["173637.230000", "173638.243000", "173639.508000", "173640.748000", "173641.981000", "173643.279000", "173644.464000", "173645.726000", "173647.017000", "173648.232000", "173649.474000", "173650.720000", "173652.016000", "173653.238000", "173654.492000", "173655.715000", "173656.963000", "173658.248000", "173659.479000", "173700.727000", "173701.971000", "173703.288000", "173704.481000", "173705.746000", "173706.963000", "173708.210000", "173709.492000", "173710.751000", "173712.010000", "173713.261000", "173714.470000", "173715.740000", "173716.982000", "173718.243000", "173719.462000", "173720.707000", "173721.957000", "173723.247000", "173724.466000", "173725.707000", "173726.960000", "173728.228000", "173729.496000", "173730.753000", "173731.992000", "173733.252000", "173734.486000", "173735.759000", "173736.981000", "173738.228000", "173739.475000", "173740.766000", "173741.980000", "173743.227000", "173744.492000", "173745.727000", "173746.975000", "173748.232000", "173749.505000", "173750.723000", "173751.986000", "173753.261000", "173754.537000", "173755.771000", "173756.976000", "173758.218000", "173759.495000", "173800.779000", "173802.012000", "173803.250000", "173804.468000", "173805.762000", "173807.002000", "173808.259000", "173809.472000", "173810.742000", "173812.036000", "173813.221000", "173814.486000", "173815.746000", "173816.960000", "173818.238000", "173819.510000", "173820.711000", "173821.983000", "173823.299000", "173824.481000", "173825.708000", "173826.987000", "173828.222000", "173829.488000", "173830.718000", "173831.951000", "173833.249000", "173834.498000", "173835.727000", "173837.001000", "173838.291000", "173839.476000", "173840.766000", "173842.030000", "173843.255000", "173844.501000", "173845.754000", "173846.989000", "173848.253000", "173849.489000", "173850.782000", "173851.982000", "173853.235000", "173854.460000", "173855.739000", "173857.017000", "173858.244000", "173859.510000", "173900.734000", "173902.008000", "173903.232000", "173904.489000", "173905.753000", "173907.037000", "173908.256000", "173909.515000", "173910.748000", "173912.039000", "173913.238000", "173914.494000", "173915.747000", "173916.996000", "173918.252000", "173919.489000", "173920.769000", "173922.037000", "173923.287000", "173924.506000", "173925.796000", "173927.004000", "173928.231000", "173929.468000", "173930.796000", "173931.982000", "173933.233000", "173934.483000", "173935.779000", "173936.968000", "173938.228000", "173939.493000", "173940.744000", "173941.992000", "173943.262000", "173944.484000", "173945.740000", "173947.031000", "173948.275000", "173949.542000", "173950.761000", "173951.970000", "173953.235000", "173954.494000", "173955.723000", "173956.995000", "173958.229000", "173959.493000", "174000.751000", "174001.986000", "174003.263000", "174004.476000", "174005.786000", "174007.031000", "174008.226000", "174009.550000", "174010.774000", "174011.992000", "174013.256000", "174014.503000", "174015.740000", "174016.986000", "174018.261000", "174019.515000", "174020.732000", "174021.978000", "174023.240000", "174024.494000", "174025.748000", "174026.958000", "174028.263000", "174029.523000", "174030.758000", "174031.955000", "174033.287000", "174034.492000", "174035.752000", "174037.039000", "174038.259000", "174039.480000", "174040.757000", "174041.983000", "174043.268000", "174044.513000", "174045.743000", "174046.976000", "174048.258000", "174049.492000", "174050.725000", "174051.978000", "174053.280000", "174054.517000", "174055.732000", "174056.975000", "174058.212000", "174059.478000", "174100.741000", "174101.987000", "174103.251000", "174104.484000", "174105.742000", "174106.971000", "174108.235000", "174109.478000", "174110.731000", "174112.026000", "174113.256000", "174114.479000", "174115.739000", "174116.981000", "174118.250000", "174119.494000", "174120.720000", "174121.987000", "174123.265000", "174124.476000", "174125.762000", "174127.003000", "174128.232000", "174129.488000", "174130.751000", "174131.994000", "174133.214000", "174134.490000", "174135.725000", "174137.002000", "174138.270000", "174139.501000", "174140.754000", "174141.984000", "174143.275000", "174144.511000", "174145.755000", "174146.995000", "174148.242000", "174149.494000", "174150.710000", "174151.994000", "174153.250000", "174154.500000", "174155.760000", "174156.990000", "174158.214000", "174159.487000", "174200.737000", "174202.015000", "174203.265000", "174204.501000", "174205.735000", "174206.990000", "174208.248000", "174209.481000", "174210.767000", "174212.003000", "174213.255000", "174214.485000", "174215.750000", "174216.989000", "174218.245000", "174219.511000", "174220.714000", "174221.978000", "174223.242000", "174224.499000", "174225.782000"],
      "InstanceCreationTime": ["173637.230000", "173638.243000", "173639.508000", "173640.748000", "173641.981000", "173643.279000", "173644.464000", "173645.726000", "173647.017000", "173648.232000", "173649.474000", "173650.720000", "173652.016000", "173653.238000", "173654.492000", "173655.715000", "173656.963000", "173658.248000", "173659.479000", "173700.727000", "173701.971000", "173703.288000", "173704.481000", "173705.746000", "173706.963000", "173708.210000", "173709.492000", "173710.751000", "173712.010000", "173713.261000", "173714.470000", "173715.740000", "173716.982000", "173718.243000", "173719.462000", "173720.707000", "173721.957000", "173723.247000", "173724.466000", "173725.707000", "173726.960000", "173728.228000", "173729.496000", "173730.753000", "173731.992000", "173733.252000", "173734.486000", "173735.759000", "173736.981000", "173738.228000", "173739.475000", "173740.766000", "173741.980000", "173743.227000", "173744.492000", "173745.727000", "173746.975000", "173748.232000", "173749.505000", "173750.723000", "173751.986000", "173753.261000", "173754.537000", "173755.771000", "173756.976000", "173758.218000", "173759.495000", "173800.779000", "173802.012000", "173803.250000", "173804.468000", "173805.762000", "173807.002000", "173808.259000", "173809.472000", "173810.742000", "173812.036000", "173813.221000", "173814.486000", "173815.746000", "173816.960000", "173818.238000", "173819.510000", "173820.711000", "173821.983000", "173823.299000", "173824.481000", "173825.708000", "173826.987000", "173828.222000", "173829.488000", "173830.718000", "173831.951000", "173833.249000", "173834.498000", "173835.727000", "173837.001000", "173838.291000", "173839.476000", "173840.766000", "173842.030000", "173843.255000", "173844.501000", "173845.754000", "173846.989000", "173848.253000", "173849.489000", "173850.782000", "173851.982000", "173853.235000", "173854.460000", "173855.739000", "173857.017000", "173858.244000", "173859.510000", "173900.734000", "173902.008000", "173903.232000", "173904.489000", "173905.753000", "173907.037000", "173908.256000", "173909.515000", "173910.748000", "173912.039000", "173913.238000", "173914.494000", "173915.747000", "173916.996000", "173918.252000", "173919.489000", "173920.769000", "173922.037000", "173923.287000", "173924.506000", "173925.796000", "173927.004000", "173928.231000", "173929.468000", "173930.796000", "173931.982000", "173933.233000", "173934.483000", "173935.779000", "173936.968000", "173938.228000", "173939.493000", "173940.744000", "173941.992000", "173943.262000", "173944.484000", "173945.740000", "173947.031000", "173948.275000", "173949.542000", "173950.761000", "173951.970000", "173953.235000", "173954.494000", "173955.723000", "173956.995000", "173958.229000", "173959.493000", "174000.751000", "174001.986000", "174003.263000", "174004.476000", "174005.786000", "174007.031000", "174008.226000", "174009.550000", "174010.774000", "174011.992000", "174013.256000", "174014.503000", "174015.740000", "174016.986000", "174018.261000", "174019.515000", "174020.732000", "174021.978000", "174023.240000", "174024.494000", "174025.748000", "174026.958000", "174028.263000", "174029.523000", "174030.758000", "174031.955000", "174033.287000", "174034.492000", "174035.752000", "174037.039000", "174038.259000", "174039.480000", "174040.757000", "174041.983000", "174043.268000", "174044.513000", "174045.743000", "174046.976000", "174048.258000", "174049.492000", "174050.725000", "174051.978000", "174053.280000", "174054.517000", "174055.732000", "174056.975000", "174058.212000", "174059.478000", "174100.741000", "174101.987000", "174103.251000", "174104.484000", "174105.742000", "174106.971000", "174108.235000", "174109.478000", "174110.731000", "174112.026000", "174113.256000", "174114.479000", "174115.739000", "174116.981000", "174118.250000", "174119.494000", "174120.720000", "174121.987000", "174123.265000", "174124.476000", "174125.762000", "174127.003000", "174128.232000", "174129.488000", "174130.751000", "174131.994000", "174133.214000", "174134.490000", "174135.725000", "174137.002000", "174138.270000", "174139.501000", "174140.754000", "174141.984000", "174143.275000", "174144.511000", "174145.755000", "174146.995000", "174148.242000", "174149.494000", "174150.710000", "174151.994000", "174153.250000", "174154.500000", "174155.760000", "174156.990000", "174158.214000", "174159.487000", "174200.737000", "174202.015000", "174203.265000", "174204.501000", "174205.735000", "174206.990000", "174208.248000", "174209.481000", "174210.767000", "174212.003000", "174213.255000", "174214.485000", "174215.750000", "174216.989000", "174218.245000", "174219.511000", "174220.714000", "174221.978000", "174223.242000", "174224.499000", "174225.782000"],
      "InstanceNumber": [1, 2, 3, 4, 5, 6, 7, 8, 9, 10, 11, 12, 13, 14, 15, 16, 17, 18, 19, 20, 21, 22, 23, 24, 25, 26, 27, 28, 29, 30, 31, 32, 33, 34, 35, 36, 37, 38, 39, 40, 41, 42, 43, 44, 45, 46, 47, 48, 49, 50, 51, 52, 53, 54, 55, 56, 57, 58, 59, 60, 61, 62, 63, 64, 65, 66, 67, 68, 69, 70, 71, 72, 73, 74, 75, 76, 77, 78, 79, 80, 81, 82, 83, 84, 85, 86, 87, 88, 89, 90, 91, 92, 93, 94, 95, 96, 97, 98, 99, 100, 101, 102, 103, 104, 105, 106, 107, 108, 109, 110, 111, 112, 113, 114, 115, 116, 117, 118, 119, 120, 121, 122, 123, 124, 125, 126, 127, 128, 129, 130, 131, 132, 133, 134, 135, 136, 137, 138, 139, 140, 141, 142, 143, 144, 145, 146, 147, 148, 149, 150, 151, 152, 153, 154, 155, 156, 157, 158, 159, 160, 161, 162, 163, 164, 165, 166, 167, 168, 169, 170, 171, 172, 173, 174, 175, 176, 177, 178, 179, 180, 181, 182, 183, 184, 185, 186, 187, 188, 189, 190, 191, 192, 193, 194, 195, 196, 197, 198, 199, 200, 201, 202, 203, 204, 205, 206, 207, 208, 209, 210, 211, 212, 213, 214, 215, 216, 217, 218, 219, 220, 221, 222, 223, 224, 225, 226, 227, 228, 229, 230, 231, 232, 233, 234, 235, 236, 237, 238, 239, 240, 241, 242, 243, 244, 245, 246, 247, 248, 249, 250, 251, 252, 253, 254, 255, 256, 257, 258, 259, 260, 261, 262, 263, 264, 265, 266, 267, 268, 269, 270, 271, 272, 273, 274, 275, 276, 277, 278, 279, 280],
      "LargestImagePixelValue": [773, 745, 724, 940, 906, 888, 933, 865, 953, 805, 820, 917, 1039, 788, 857, 784, 706, 718, 759, 854, 771, 707, 742, 878, 771, 706, 783, 858, 736, 791, 839, 711, 799, 820, 704, 717, 767, 711, 844, 858, 700, 1120, 706, 712, 940, 716, 707, 905, 751, 1125, 732, 801, 820, 710, 709, 994, 852, 945, 717, 755, 719, 769, 707, 758, 771, 894, 814, 856, 763, 758, 831, 706, 915, 717, 727, 857, 710, 807, 757, 734, 1033, 753, 821, 823, 707, 862, 763, 705, 867, 846, 740, 899, 769, 707, 962, 713, 710, 900, 748, 709, 999, 782, 710, 865, 832, 802, 811, 921, 757, 793, 1033, 816, 740, 731, 875, 776, 717, 712, 1001, 854, 767, 953, 940, 789, 774, 845, 796, 773, 794, 739, 758, 890, 807, 760, 758, 1091, 922, 755, 788, 879, 805, 791, 715, 709, 1037, 750, 713, 981, 748, 713, 963, 716, 715, 834, 721, 712, 918, 767, 714, 899, 738, 718, 996, 852, 711, 712, 939, 856, 839, 776, 763, 785, 846, 781, 782, 791, 770, 833, 731, 715, 844, 955, 789, 823, 816, 711, 775, 909, 751, 710, 797, 1034, 758, 741, 743, 1110, 823, 711, 796, 759, 714, 712, 1102, 822, 713, 1125, 710, 711, 782, 711, 704, 1003, 776, 708, 1009, 715, 711, 865, 740, 781, 833, 736, 863, 839, 709, 898, 735, 710, 1089, 740, 717, 860, 829, 710, 883, 807, 706, 907, 709, 784, 798, 705, 705, 888, 761, 854, 811, 736, 917, 796, 709, 1041, 773, 704, 996, 758, 707, 1075, 789, 797, 902, 712, 712, 915, 742, 774, 987, 781, 733, 807, 842, 792, 714, 708, 713, 719, 916, 806, 794, 1065],
      "WindowCenter": [349.0, 348.0, 347.0, 351.0, 350.0, 349.0, 350.0, 349.0, 350.0, 348.0, 349.0, 350.0, 352.0, 349.0, 350.0, 349.0, 348.0, 348.0, 348.0, 349.0, 348.0, 347.0, 348.0, 349.0, 348.0, 347.0, 349.0, 350.0, 348.0, 349.0, 349.0, 347.0, 349.0, 349.0, 347.0, 348.0, 349.0, 349.0, 350.0, 350.0, 347.0, 352.0, 346.0, 347.0, 351.0, 348.0, 348.0, 352.0, 349.0, 352.0, 347.0, 348.0, 349.0, 348.0, 350.0, 354.0, 351.0, 350.0, 346.0, 346.0, 345.0, 347.0, 348.0, 349.0, 350.0, 351.0, 349.0, 348.0, 346.0, 346.0, 347.0, 346.0, 350.0, 348.0, 348.0, 349.0, 347.0, 348.0, 348.0, 348.0, 352.0, 348.0, 349.0, 349.0, 347.0, 349.0, 348.0, 347.0, 351.0, 350.0, 348.0, 350.0, 348.0, 346.0, 350.0, 347.0, 347.0, 351.0, 348.0, 347.0, 352.0, 349.0, 348.0, 350.0, 349.0, 348.0, 349.0, 350.0, 348.0, 348.0, 351.0, 348.0, 347.0, 347.0, 349.0, 348.0, 348.0, 349.0, 353.0, 351.0, 348.0, 351.0, 350.0, 348.0, 348.0, 349.0, 348.0, 348.0, 348.0, 347.0, 348.0, 351.0, 350.0, 350.0, 349.0, 353.0, 350.0, 347.0, 348.0, 349.0, 348.0, 349.0, 347.0, 347.0, 351.0, 347.0, 346.0, 350.0, 347.0, 347.0, 351.0, 348.0, 348.0, 350.0, 348.0, 348.0, 351.0, 349.0, 347.0, 350.0, 347.0, 346.0, 351.0, 349.0, 347.0, 347.0, 350.0, 349.0, 349.0, 348.0, 348.0, 348.0, 348.0, 348.0, 348.0, 348.0, 348.0, 350.0, 349.0, 348.0, 350.0, 351.0, 348.0, 348.0, 347.0, 346.0, 348.0, 350.0, 348.0, 347.0, 348.0, 352.0, 348.0, 349.0, 348.0, 352.0, 349.0, 347.0, 349.0, 348.0, 349.0, 349.0, 353.0, 349.0, 346.0, 351.0, 346.0, 346.0, 347.0, 346.0, 346.0, 351.0, 348.0, 347.0, 351.0, 347.0, 347.0, 350.0, 348.0, 348.0, 349.0, 348.0, 349.0, 349.0, 346.0, 349.0, 347.0, 347.0, 351.0, 347.0, 346.0, 349.0, 349.0, 348.0, 350.0, 348.0, 346.0, 349.0, 346.0, 348.0, 349.0, 347.0, 349.0, 351.0, 349.0, 350.0, 349.0, 347.0, 349.0, 348.0, 346.0, 352.0, 348.0, 347.0, 352.0, 348.0, 347.0, 352.0, 349.0, 348.0, 349.0, 347.0, 348.0, 352.0, 349.0, 349.0, 351.0, 348.0, 346.0, 348.0, 348.0, 348.0, 346.0, 347.0, 349.0, 349.0, 352.0, 349.0, 348.0, 351.0],
      "WindowWidth": [750.0, 747.0, 746.0, 750.0, 748.0, 748.0, 748.0, 747.0, 749.0, 745.0, 747.0, 750.0, 751.0, 748.0, 749.0, 748.0, 746.0, 746.0, 746.0, 748.0, 747.0, 745.0, 746.0, 748.0, 747.0, 745.0, 748.0, 749.0, 746.0, 747.0, 747.0, 745.0, 747.0, 747.0, 745.0, 746.0, 748.0, 748.0, 750.0, 750.0, 745.0, 751.0, 744.0, 745.0, 751.0, 747.0, 747.0, 752.0, 748.0, 752.0, 745.0, 745.0, 747.0, 747.0, 750.0, 756.0, 751.0, 750.0, 743.0, 743.0, 741.0, 745.0, 746.0, 749.0, 750.0, 751.0, 747.0, 746.0, 743.0, 742.0, 745.0, 743.0, 748.0, 746.0, 746.0, 748.0, 745.0, 747.0, 746.0, 746.0, 751.0, 747.0, 747.0, 747.0, 744.0, 748.0, 747.0, 746.0, 751.0, 750.0, 746.0, 749.0, 745.0, 743.0, 749.0, 745.0, 745.0, 750.0, 747.0, 746.0, 752.0, 748.0, 746.0, 750.0, 748.0, 747.0, 747.0, 749.0, 746.0, 746.0, 750.0, 746.0, 745.0, 745.0, 747.0, 746.0, 746.0, 748.0, 755.0, 751.0, 746.0, 750.0, 749.0, 745.0, 745.0, 747.0, 746.0, 745.0, 746.0, 745.0, 747.0, 750.0, 749.0, 750.0, 748.0, 753.0, 749.0, 745.0, 746.0, 747.0, 747.0, 748.0, 745.0, 744.0, 750.0, 745.0, 743.0, 748.0, 745.0, 744.0, 750.0, 746.0, 747.0, 750.0, 747.0, 747.0, 750.0, 747.0, 746.0, 749.0, 745.0, 744.0, 750.0, 748.0, 745.0, 745.0, 749.0, 747.0, 747.0, 746.0, 746.0, 746.0, 747.0, 745.0, 745.0, 746.0, 747.0, 749.0, 748.0, 747.0, 749.0, 750.0, 746.0, 745.0, 745.0, 744.0, 745.0, 749.0, 747.0, 745.0, 747.0, 752.0, 747.0, 748.0, 747.0, 753.0, 748.0, 745.0, 748.0, 747.0, 748.0, 748.0, 753.0, 747.0, 743.0, 749.0, 743.0, 743.0, 744.0, 744.0, 744.0, 751.0, 747.0, 744.0, 751.0, 745.0, 745.0, 749.0, 747.0, 747.0, 748.0, 746.0, 748.0, 747.0, 743.0, 748.0, 745.0, 744.0, 750.0, 745.0, 744.0, 747.0, 748.0, 747.0, 750.0, 747.0, 743.0, 747.0, 743.0, 746.0, 748.0, 746.0, 748.0, 752.0, 748.0, 749.0, 748.0, 745.0, 748.0, 745.0, 744.0, 751.0, 747.0, 745.0, 752.0, 747.0, 746.0, 753.0, 748.0, 747.0, 748.0, 746.0, 746.0, 752.0, 748.0, 748.0, 750.0, 745.0, 744.0, 745.0, 746.0, 746.0, 744.0, 746.0, 748.0, 748.0, 752.0, 747.0, 747.0, 750.0]
    },
    "slices": {}
  }
}