{
  "AcquisitionMatrixPE": 96,
  "AcquisitionNumber": 1,
  "AcquisitionTime": "10:48:50.210000",
  "BandwidthPerPixelPhaseEncode": 18.939,
  "BaseResolution": 96,
  "BodyPartExamined": "BRAIN",
  "ConsistencyInfo": "N4_VE11C_LATEST_20160120",
  "ConversionSoftware": "dcm2niix",
  "ConversionSoftwareVersion": "v1.0.20170923 (OpenJPEG build) GCC6.3.0",
  "DerivedVendorReportedEchoSpacing": 0.000550011,
  "DeviceSerialNumber": "66112",
  "DwellTime": 2.3e-06,
  "EchoTime": 0.033,
  "EchoTrainLength": 96,
  "EffectiveEchoSpacing": 0.000550011,
  "FlipAngle": 64,
  "ImageType": [
    "ORIGINAL",
    "PRIMARY",
    "FMRI",
    "NONE",
    "ND",
    "NORM",
    "MOSAIC"
],
  "InstitutionAddress": "Maynard_3_Hanover_NH_US_03755",
  "InstitutionName": "Dartmouth_College_-_PBS",
  "MagneticFieldStrength": 3,
  "Manufacturer": "Siemens",
  "ManufacturersModelName": "Prisma",
  "Modality": "MR",
  "MultibandAccelerationFactor": 4,
  "PartialFourier": 1,
  "PercentPhaseFOV": 100,
  "PhaseEncodingDirection": "j-",
  "PhaseEncodingSteps": 96,
  "PhaseResolution": 1,
  "ProcedureStepDescription": "Gobbini_Matteo_1017_famface-angles",
  "ProtocolName": "func_run-03_task-str1back",
  "PulseSequenceDetails": "%SiemensSeq%_ep2d_bold",
  "ReceiveCoilActiveElements": "HEA;HEP",
  "ReceiveCoilName": "Head_32",
  "ReconMatrixPE": 96,
  "RepetitionTime": 1.25,
  "ScanOptions": "FS",
  "ScanningSequence": "EP",
  "SequenceName": "_epfid2d1_96",
  "SequenceVariant": "SK",
  "SeriesDescription": "func_run-03_task-str1back",
  "SliceTiming": [0.8775, 0, 0.615, 0.0875, 0.7025, 0.175, 0.79, 0.3525, 0.965, 0.44, 1.055, 0.5275, 1.1425, 0.2625, 0.8775, 0, 0.615, 0.0875, 0.7025, 0.175, 0.79, 0.3525, 0.965, 0.44, 1.055, 0.5275, 1.1425, 0.2625, 0.8775, 0, 0.615, 0.0875, 0.7025, 0.175, 0.79, 0.3525, 0.965, 0.44, 1.055, 0.5275, 1.1425, 0.2625, 0.8775, 0, 0.615, 0.0875, 0.7025, 0.175, 0.79, 0.3525, 0.965, 0.44, 1.055, 0.5275, 1.1425, 0.2625],
  "SoftwareVersions": "syngo_MR_E11",
  "StationName": "AWP66112",
  "TaskName": "str1back",
  "TotalReadoutTime": 0.0522511,
  "dcmmeta_affine": [
    [-2.492647886276245, 0.04742610082030296, 0.1856268346309662, 115.20972442626953],
    [0.07616527378559113, 2.4678611755371094, 0.3922502100467682, -110.462890625],
    [0.17579935491085052, -0.3967519998550415, 2.462048292160034, -44.667640686035156],
    [0.0, 0.0, 0.0, 1.0]
],
  "dcmmeta_reorient_transform": [
    [0.0, -1.0, 0.0, 95.0],
    [1.0, 0.0, 0.0, 0.0],
    [0.0, 0.0, 1.0, 0.0],
    [0.0, 0.0, 0.0, 1.0]
],
  "dcmmeta_shape": [96, 96, 56, 280],
  "dcmmeta_slice_dim": 2,
  "dcmmeta_version": 0.6,
  "global": {
    "const": {
      "AccessionNumber": "A000491",
      "AcquisitionMatrix": [96, 0, 0, 96],
      "AngioFlag": "N",
      "BitsAllocated": 16,
      "BitsStored": 12,
      "BodyPartExamined": "BRAIN",
      "Columns": 768,
      "EchoNumbers": 1,
      "EchoTime": 33.0,
      "EchoTrainLength": 96,
      "FlipAngle": 64.0,
      "HighBit": 11,
      "ImageOrientationPatient": [0.99705915091762, -0.0304661089803, 0.07031973958309, 0.01897044058389, 0.98714445611666, 0.15870080384864],
      "ImagePositionPatient": [-973.18006052089, -927.59372934891, -274.7363391261],
      "ImageType": [
        "ORIGINAL",
        "PRIMARY",
        "FMRI",
        "NONE",
        "ND",
        "NORM",
        "MOSAIC"
],
      "ImagedNucleus": "1H",
      "ImagingFrequency": 123.252535,
      "InPlanePhaseEncodingDirection": "COL",
      "MRAcquisitionType": "2D",
      "MagneticFieldStrength": 3.0,
      "Manufacturer": "SIEMENS",
      "ManufacturerModelName": "Prisma",
      "Modality": "MR",
      "NumberOfAverages": 1.0,
      "NumberOfPhaseEncodingSteps": 96,
      "PercentPhaseFieldOfView": 100.0,
      "PercentSampling": 100.0,
      "PerformedProcedureStepStartTime": "102444.623000",
      "PhotometricInterpretation": "MONOCHROME2",
      "PixelBandwidth": 2265.0,
      "PixelRepresentation": 0,
      "PixelSpacing": [2.5, 2.5],
      "PositionReferenceIndicator": "",
      "ProtocolName": "func_run-03_task-str1back",
      "RepetitionTime": 1250.0,
      "Rows": 768,
      "SAR": 0.04941021401557,
      "SamplesPerPixel": 1,
      "ScanOptions": "FS",
      "ScanningSequence": "EP",
      "SequenceName": "*epfid2d1_96",
      "SequenceVariant": "SK",
      "SeriesDescription": "func_run-03_task-str1back",
      "SeriesNumber": 25,
      "SeriesTime": "104851.819000",
      "SliceLocation": -52.766789531645,
      "SliceThickness": 2.5,
      "SmallestImagePixelValue": 0,
      "SoftwareVersions": "syngo MR E11",
      "SpacingBetweenSlices": 2.4999999199391,
      "SpecificCharacterSet": "ISO_IR 100",
      "StudyID": "2",
      "StudyTime": "102444.520000",
      "TransmitCoilName": "Body",
      "VariableFlipAngleFlag": "N",
      "WindowCenterWidthExplanation": "Algo1",
      "dBdt": 0.0},
    "slices": {}
  },
  "time": {
    "samples": {
      "AcquisitionNumber": [1, 2, 3, 4, 5, 6, 7, 8, 9, 10, 11, 12, 13, 14, 15, 16, 17, 18, 19, 20, 21, 22, 23, 24, 25, 26, 27, 28, 29, 30, 31, 32, 33, 34, 35, 36, 37, 38, 39, 40, 41, 42, 43, 44, 45, 46, 47, 48, 49, 50, 51, 52, 53, 54, 55, 56, 57, 58, 59, 60, 61, 62, 63, 64, 65, 66, 67, 68, 69, 70, 71, 72, 73, 74, 75, 76, 77, 78, 79, 80, 81, 82, 83, 84, 85, 86, 87, 88, 89, 90, 91, 92, 93, 94, 95, 96, 97, 98, 99, 100, 101, 102, 103, 104, 105, 106, 107, 108, 109, 110, 111, 112, 113, 114, 115, 116, 117, 118, 119, 120, 121, 122, 123, 124, 125, 126, 127, 128, 129, 130, 131, 132, 133, 134, 135, 136, 137, 138, 139, 140, 141, 142, 143, 144, 145, 146, 147, 148, 149, 150, 151, 152, 153, 154, 155, 156, 157, 158, 159, 160, 161, 162, 163, 164, 165, 166, 167, 168, 169, 170, 171, 172, 173, 174, 175, 176, 177, 178, 179, 180, 181, 182, 183, 184, 185, 186, 187, 188, 189, 190, 191, 192, 193, 194, 195, 196, 197, 198, 199, 200, 201, 202, 203, 204, 205, 206, 207, 208, 209, 210, 211, 212, 213, 214, 215, 216, 217, 218, 219, 220, 221, 222, 223, 224, 225, 226, 227, 228, 229, 230, 231, 232, 233, 234, 235, 236, 237, 238, 239, 240, 241, 242, 243, 244, 245, 246, 247, 248, 249, 250, 251, 252, 253, 254, 255, 256, 257, 258, 259, 260, 261, 262, 263, 264, 265, 266, 267, 268, 269, 270, 271, 272, 273, 274, 275, 276, 277, 278, 279, 280],
      "AcquisitionTime": ["104850.210000", "104851.460000", "104852.710000", "104853.960000", "104855.210000", "104856.460000", "104857.710000", "104858.960000", "104900.210000", "104901.460000", "104902.710000", "104903.960000", "104905.210000", "104906.460000", "104907.710000", "104908.960000", "104910.210000", "104911.460000", "104912.710000", "104913.960000", "104915.210000", "104916.460000", "104917.710000", "104918.960000", "104920.210000", "104921.460000", "104922.710000", "104923.960000", "104925.210000", "104926.460000", "104927.710000", "104928.960000", "104930.210000", "104931.460000", "104932.710000", "104933.960000", "104935.210000", "104936.460000", "104937.710000", "104938.960000", "104940.210000", "104941.460000", "104942.710000", "104943.960000", "104945.210000", "104946.460000", "104947.710000", "104948.960000", "104950.210000", "104951.460000", "104952.710000", "104953.960000", "104955.210000", "104956.460000", "104957.710000", "104958.960000", "105000.210000", "105001.460000", "105002.710000", "105003.960000", "105005.210000", "105006.460000", "105007.710000", "105008.960000", "105010.210000", "105011.460000", "105012.710000", "105013.960000", "105015.210000", "105016.460000", "105017.710000", "105018.960000", "105020.210000", "105021.460000", "105022.710000", "105023.960000", "105025.210000", "105026.460000", "105027.710000", "105028.960000", "105030.210000", "105031.460000", "105032.710000", "105033.960000", "105035.210000", "105036.460000", "105037.710000", "105038.960000", "105040.210000", "105041.460000", "105042.710000", "105043.960000", "105045.210000", "105046.460000", "105047.710000", "105048.960000", "105050.210000", "105051.460000", "105052.710000", "105053.960000", "105055.210000", "105056.460000", "105057.710000", "105058.960000", "105100.210000", "105101.460000", "105102.710000", "105103.960000", "105105.210000", "105106.460000", "105107.710000", "105108.960000", "105110.210000", "105111.460000", "105112.710000", "105113.960000", "105115.210000", "105116.460000", "105117.710000", "105118.960000", "105120.210000", "105121.460000", "105122.710000", "105123.960000", "105125.210000", "105126.460000", "105127.710000", "105128.960000", "105130.210000", "105131.460000", "105132.710000", "105133.960000", "105135.210000", "105136.460000", "105137.710000", "105138.960000", "105140.210000", "105141.460000", "105142.710000", "105143.960000", "105145.210000", "105146.460000", "105147.710000", "105148.960000", "105150.210000", "105151.460000", "105152.710000", "105153.960000", "105155.210000", "105156.460000", "105157.710000", "105158.960000", "105200.210000", "105201.460000", "105202.710000", "105203.960000", "105205.210000", "105206.460000", "105207.710000", "105208.960000", "105210.210000", "105211.460000", "105212.710000", "105213.960000", "105215.210000", "105216.460000", "105217.710000", "105218.960000", "105220.210000", "105221.460000", "105222.710000", "105223.960000", "105225.210000", "105226.460000", "105227.710000", "105228.960000", "105230.210000", "105231.460000", "105232.710000", "105233.960000", "105235.210000", "105236.460000", "105237.710000", "105238.960000", "105240.210000", "105241.460000", "105242.710000", "105243.960000", "105245.210000", "105246.460000", "105247.710000", "105248.960000", "105250.210000", "105251.460000", "105252.710000", "105253.960000", "105255.210000", "105256.460000", "105257.710000", "105258.960000", "105300.210000", "105301.460000", "105302.710000", "105303.960000", "105305.210000", "105306.460000", "105307.710000", "105308.960000", "105310.210000", "105311.460000", "105312.710000", "105313.960000", "105315.210000", "105316.460000", "105317.710000", "105318.960000", "105320.210000", "105321.460000", "105322.710000", "105323.960000", "105325.210000", "105326.460000", "105327.710000", "105328.960000", "105330.210000", "105331.460000", "105332.710000", "105333.960000", "105335.210000", "105336.460000", "105337.710000", "105338.960000", "105340.210000", "105341.460000", "105342.710000", "105343.960000", "105345.210000", "105346.460000", "105347.710000", "105348.960000", "105350.210000", "105351.460000", "105352.710000", "105353.960000", "105355.210000", "105356.460000", "105357.710000", "105358.960000", "105400.210000", "105401.460000", "105402.710000", "105403.960000", "105405.210000", "105406.460000", "105407.710000", "105408.960000", "105410.210000", "105411.460000", "105412.710000", "105413.960000", "105415.210000", "105416.460000", "105417.710000", "105418.960000", "105420.210000", "105421.460000", "105422.710000", "105423.960000", "105425.210000", "105426.460000", "105427.710000", "105428.960000", "105430.210000", "105431.460000", "105432.710000", "105433.960000", "105435.210000", "105436.460000", "105437.710000", "105438.960000"],
      "ContentTime": ["104851.823000", "104852.858000", "104854.089000", "104855.305000", "104856.581000", "104857.801000", "104859.050000", "104900.326000", "104901.568000", "104902.837000", "104904.049000", "104905.287000", "104906.527000", "104907.822000", "104909.039000", "104910.308000", "104911.570000", "104912.799000", "104914.053000", "104915.286000", "104916.537000", "104917.776000", "104919.031000", "104920.276000", "104921.580000", "104922.808000", "104924.074000", "104925.301000", "104926.594000", "104927.800000", "104929.067000", "104930.291000", "104931.546000", "104932.784000", "104934.095000", "104935.277000", "104936.573000", "104937.831000", "104939.052000", "104940.295000", "104941.562000", "104942.804000", "104944.049000", "104945.283000", "104946.529000", "104947.835000", "104949.050000", "104950.266000", "104951.563000", "104952.786000", "104954.036000", "104955.350000", "104956.545000", "104957.772000", "104959.094000", "105000.305000", "105001.565000", "105002.794000", "105004.048000", "105005.315000", "105006.534000", "105007.801000", "105009.032000", "105010.277000", "105011.559000", "105012.822000", "105014.030000", "105015.309000", "105016.555000", "105017.789000", "105019.072000", "105020.287000", "105021.574000", "105022.809000", "105024.046000", "105025.271000", "105026.541000", "105027.814000", "105029.035000", "105030.279000", "105031.527000", "105032.787000", "105034.038000", "105035.328000", "105036.553000", "105037.806000", "105039.029000", "105040.310000", "105041.565000", "105042.809000", "105044.020000", "105045.337000", "105046.570000", "105047.814000", "105049.050000", "105050.283000", "105051.539000", "105052.828000", "105054.072000", "105055.289000", "105056.573000", "105057.764000", "105059.068000", "105100.323000", "105101.557000", "105102.869000", "105104.095000", "105105.299000", "105106.571000", "105107.805000", "105109.063000", "105110.340000", "105111.585000", "105112.844000", "105114.062000", "105115.309000", "105116.574000", "105117.775000", "105119.044000", "105120.327000", "105121.563000", "105122.841000", "105124.090000", "105125.324000", "105126.598000", "105127.928000", "105129.069000", "105130.334000", "105131.564000", "105132.800000", "105134.073000", "105135.309000", "105136.558000", "105137.782000", "105139.044000", "105140.341000", "105141.557000", "105142.807000", "105144.080000", "105145.314000", "105146.643000", "105147.804000", "105149.032000", "105150.291000", "105151.543000", "105152.848000", "105154.026000", "105155.300000", "105156.579000", "105157.894000", "105159.047000", "105200.342000", "105201.553000", "105202.821000", "105204.063000", "105205.314000", "105206.532000", "105207.794000", "105209.045000", "105210.284000", "105211.554000", "105212.801000", "105214.049000", "105215.331000", "105216.548000", "105217.796000", "105219.052000", "105220.334000", "105221.573000", "105222.827000", "105224.057000", "105225.334000", "105226.559000", "105227.808000", "105229.067000", "105230.291000", "105231.563000", "105232.836000", "105234.077000", "105235.304000", "105236.587000", "105237.800000", "105239.054000", "105240.298000", "105241.525000", "105242.815000", "105244.055000", "105245.302000", "105246.561000", "105247.797000", "105249.054000", "105250.357000", "105251.568000", "105252.793000", "105254.059000", "105255.289000", "105256.541000", "105257.803000", "105259.048000", "105300.284000", "105301.543000", "105302.794000", "105304.042000", "105305.283000", "105306.583000", "105307.817000", "105309.070000", "105310.309000", "105311.562000", "105312.794000", "105314.059000", "105315.314000", "105316.541000", "105317.818000", "105319.092000", "105320.298000", "105321.573000", "105322.795000", "105324.039000", "105325.292000", "105326.555000", "105327.806000", "105329.050000", "105330.321000", "105331.530000", "105332.810000", "105334.070000", "105335.309000", "105336.547000", "105337.831000", "105339.071000", "105340.295000", "105341.561000", "105342.830000", "105344.064000", "105345.289000", "105346.555000", "105347.786000", "105349.048000", "105350.319000", "105351.623000", "105352.795000", "105354.156000", "105355.334000", "105356.547000", "105357.804000", "105359.053000", "105400.297000", "105401.539000", "105402.803000", "105404.051000", "105405.337000", "105406.546000", "105407.793000", "105409.048000", "105410.292000", "105411.568000", "105412.807000", "105414.045000", "105415.287000", "105416.557000", "105417.820000", "105419.057000", "105420.307000", "105421.546000", "105422.800000", "105424.041000", "105425.337000", "105426.551000", "105427.799000", "105429.079000", "105430.308000", "105431.539000", "105432.833000", "105434.067000", "105435.313000", "105436.566000", "105437.841000", "105439.046000", "105440.339000"],
      "InstanceCreationTime": ["104851.823000", "104852.858000", "104854.089000", "104855.305000", "104856.581000", "104857.801000", "104859.050000", "104900.326000", "104901.568000", "104902.837000", "104904.049000", "104905.287000", "104906.527000", "104907.822000", "104909.039000", "104910.308000", "104911.570000", "104912.799000", "104914.053000", "104915.286000", "104916.537000", "104917.776000", "104919.031000", "104920.276000", "104921.580000", "104922.808000", "104924.074000", "104925.301000", "104926.594000", "104927.800000", "104929.067000", "104930.291000", "104931.546000", "104932.784000", "104934.095000", "104935.277000", "104936.573000", "104937.831000", "104939.052000", "104940.295000", "104941.562000", "104942.804000", "104944.049000", "104945.283000", "104946.529000", "104947.835000", "104949.050000", "104950.266000", "104951.563000", "104952.786000", "104954.036000", "104955.350000", "104956.545000", "104957.772000", "104959.094000", "105000.305000", "105001.565000", "105002.794000", "105004.048000", "105005.315000", "105006.534000", "105007.801000", "105009.032000", "105010.277000", "105011.559000", "105012.822000", "105014.030000", "105015.309000", "105016.555000", "105017.789000", "105019.072000", "105020.287000", "105021.574000", "105022.809000", "105024.046000", "105025.271000", "105026.541000", "105027.814000", "105029.035000", "105030.279000", "105031.527000", "105032.787000", "105034.038000", "105035.328000", "105036.553000", "105037.806000", "105039.029000", "105040.310000", "105041.565000", "105042.809000", "105044.020000", "105045.337000", "105046.570000", "105047.814000", "105049.050000", "105050.283000", "105051.539000", "105052.828000", "105054.072000", "105055.289000", "105056.573000", "105057.764000", "105059.068000", "105100.323000", "105101.557000", "105102.869000", "105104.095000", "105105.299000", "105106.571000", "105107.805000", "105109.063000", "105110.340000", "105111.585000", "105112.844000", "105114.062000", "105115.309000", "105116.574000", "105117.775000", "105119.044000", "105120.327000", "105121.563000", "105122.841000", "105124.090000", "105125.324000", "105126.598000", "105127.928000", "105129.069000", "105130.334000", "105131.564000", "105132.800000", "105134.073000", "105135.309000", "105136.558000", "105137.782000", "105139.044000", "105140.341000", "105141.557000", "105142.807000", "105144.080000", "105145.314000", "105146.643000", "105147.804000", "105149.032000", "105150.291000", "105151.543000", "105152.848000", "105154.026000", "105155.300000", "105156.579000", "105157.894000", "105159.047000", "105200.342000", "105201.553000", "105202.821000", "105204.063000", "105205.314000", "105206.532000", "105207.794000", "105209.045000", "105210.284000", "105211.554000", "105212.801000", "105214.049000", "105215.331000", "105216.548000", "105217.796000", "105219.052000", "105220.334000", "105221.573000", "105222.827000", "105224.057000", "105225.334000", "105226.559000", "105227.808000", "105229.067000", "105230.291000", "105231.563000", "105232.836000", "105234.077000", "105235.304000", "105236.587000", "105237.800000", "105239.054000", "105240.298000", "105241.525000", "105242.815000", "105244.055000", "105245.302000", "105246.561000", "105247.797000", "105249.054000", "105250.357000", "105251.568000", "105252.793000", "105254.059000", "105255.289000", "105256.541000", "105257.803000", "105259.048000", "105300.284000", "105301.543000", "105302.794000", "105304.042000", "105305.283000", "105306.583000", "105307.817000", "105309.070000", "105310.309000", "105311.562000", "105312.794000", "105314.059000", "105315.314000", "105316.541000", "105317.818000", "105319.092000", "105320.298000", "105321.573000", "105322.795000", "105324.039000", "105325.292000", "105326.555000", "105327.806000", "105329.050000", "105330.321000", "105331.530000", "105332.810000", "105334.070000", "105335.309000", "105336.547000", "105337.831000", "105339.071000", "105340.295000", "105341.561000", "105342.830000", "105344.064000", "105345.289000", "105346.555000", "105347.786000", "105349.048000", "105350.319000", "105351.623000", "105352.795000", "105354.156000", "105355.334000", "105356.547000", "105357.804000", "105359.053000", "105400.297000", "105401.539000", "105402.803000", "105404.051000", "105405.337000", "105406.546000", "105407.793000", "105409.048000", "105410.292000", "105411.568000", "105412.807000", "105414.045000", "105415.287000", "105416.557000", "105417.820000", "105419.057000", "105420.307000", "105421.546000", "105422.800000", "105424.041000", "105425.337000", "105426.551000", "105427.799000", "105429.079000", "105430.308000", "105431.539000", "105432.833000", "105434.067000", "105435.313000", "105436.566000", "105437.841000", "105439.046000", "105440.339000"],
      "InstanceNumber": [1, 2, 3, 4, 5, 6, 7, 8, 9, 10, 11, 12, 13, 14, 15, 16, 17, 18, 19, 20, 21, 22, 23, 24, 25, 26, 27, 28, 29, 30, 31, 32, 33, 34, 35, 36, 37, 38, 39, 40, 41, 42, 43, 44, 45, 46, 47, 48, 49, 50, 51, 52, 53, 54, 55, 56, 57, 58, 59, 60, 61, 62, 63, 64, 65, 66, 67, 68, 69, 70, 71, 72, 73, 74, 75, 76, 77, 78, 79, 80, 81, 82, 83, 84, 85, 86, 87, 88, 89, 90, 91, 92, 93, 94, 95, 96, 97, 98, 99, 100, 101, 102, 103, 104, 105, 106, 107, 108, 109, 110, 111, 112, 113, 114, 115, 116, 117, 118, 119, 120, 121, 122, 123, 124, 125, 126, 127, 128, 129, 130, 131, 132, 133, 134, 135, 136, 137, 138, 139, 140, 141, 142, 143, 144, 145, 146, 147, 148, 149, 150, 151, 152, 153, 154, 155, 156, 157, 158, 159, 160, 161, 162, 163, 164, 165, 166, 167, 168, 169, 170, 171, 172, 173, 174, 175, 176, 177, 178, 179, 180, 181, 182, 183, 184, 185, 186, 187, 188, 189, 190, 191, 192, 193, 194, 195, 196, 197, 198, 199, 200, 201, 202, 203, 204, 205, 206, 207, 208, 209, 210, 211, 212, 213, 214, 215, 216, 217, 218, 219, 220, 221, 222, 223, 224, 225, 226, 227, 228, 229, 230, 231, 232, 233, 234, 235, 236, 237, 238, 239, 240, 241, 242, 243, 244, 245, 246, 247, 248, 249, 250, 251, 252, 253, 254, 255, 256, 257, 258, 259, 260, 261, 262, 263, 264, 265, 266, 267, 268, 269, 270, 271, 272, 273, 274, 275, 276, 277, 278, 279, 280],
      "LargestImagePixelValue": [1163, 1008, 1141, 965, 1159, 941, 1167, 926, 1122, 1111, 1086, 1164, 1087, 1151, 1077, 930, 1142, 922, 1179, 938, 1132, 973, 1159, 946, 1155, 1099, 1226, 1062, 1000, 1119, 962, 1165, 997, 1180, 979, 1173, 967, 1154, 978, 1147, 1071, 1190, 1063, 1131, 1161, 1114, 1039, 1137, 1059, 1136, 949, 1112, 1141, 1056, 1072, 1052, 930, 1096, 910, 1178, 908, 1085, 1121, 1042, 1164, 1142, 1131, 951, 1137, 1060, 1046, 1027, 1043, 1053, 1008, 1041, 968, 1044, 1030, 1021, 1072, 1012, 1130, 909, 1067, 948, 1120, 1006, 1140, 1108, 1031, 1139, 940, 1081, 911, 1058, 962, 1061, 1043, 1069, 1083, 933, 1096, 1098, 995, 1090, 879, 1078, 931, 1070, 886, 1086, 942, 1067, 939, 1078, 1065, 1102, 1045, 1033, 1029, 1037, 1071, 1113, 1095, 1061, 971, 1060, 923, 1062, 920, 1070, 943, 1054, 999, 1105, 1041, 1147, 983, 1044, 892, 1060, 927, 1068, 957, 1103, 938, 1140, 948, 1150, 969, 1130, 944, 1100, 1081, 1074, 1100, 888, 1050, 889, 1024, 1113, 1038, 1058, 976, 1103, 935, 1105, 882, 1087, 948, 1035, 1078, 1027, 1138, 1040, 1099, 991, 1084, 951, 1083, 862, 1089, 1040, 918, 1096, 1046, 1181, 1058, 1210, 989, 1110, 909, 1069, 1037, 1080, 1070, 1086, 1022, 972, 1044, 1095, 1076, 1087, 1063, 1097, 1056, 1103, 1010, 1154, 903, 1059, 957, 1053, 1025, 1018, 1098, 988, 1129, 1024, 1099, 1027, 1072, 1100, 1082, 1082, 880, 1042, 863, 1060, 901, 1068, 940, 1088, 983, 1026, 1103, 1002, 1075, 996, 1091, 863, 1065, 892, 1054, 1059, 954, 1143, 1023, 1220, 978, 1129, 889, 1064, 891, 1073, 925, 1077, 889, 1070, 881, 1073, 911, 1055, 1057, 1050, 940, 1119, 929, 1114, 995, 1120, 978, 1203, 961, 1131, 1030, 1085, 1120, 1118],
      "WindowCenter": [402.0, 400.0, 401.0, 399.0, 400.0, 397.0, 399.0, 397.0, 399.0, 399.0, 398.0, 399.0, 398.0, 399.0, 399.0, 398.0, 400.0, 398.0, 401.0, 399.0, 400.0, 399.0, 400.0, 398.0, 400.0, 400.0, 401.0, 400.0, 400.0, 401.0, 399.0, 401.0, 400.0, 401.0, 399.0, 401.0, 399.0, 401.0, 399.0, 401.0, 400.0, 401.0, 400.0, 401.0, 400.0, 398.0, 398.0, 401.0, 401.0, 401.0, 399.0, 399.0, 399.0, 398.0, 398.0, 399.0, 398.0, 400.0, 399.0, 403.0, 400.0, 401.0, 401.0, 400.0, 399.0, 398.0, 397.0, 395.0, 397.0, 396.0, 395.0, 397.0, 397.0, 398.0, 398.0, 399.0, 398.0, 400.0, 400.0, 400.0, 401.0, 400.0, 401.0, 399.0, 401.0, 400.0, 402.0, 400.0, 401.0, 401.0, 400.0, 401.0, 398.0, 400.0, 398.0, 400.0, 399.0, 400.0, 399.0, 400.0, 400.0, 398.0, 400.0, 400.0, 399.0, 400.0, 397.0, 400.0, 398.0, 399.0, 397.0, 399.0, 398.0, 399.0, 399.0, 400.0, 400.0, 400.0, 400.0, 400.0, 400.0, 400.0, 400.0, 401.0, 400.0, 400.0, 399.0, 400.0, 398.0, 400.0, 399.0, 402.0, 400.0, 402.0, 401.0, 401.0, 400.0, 401.0, 398.0, 399.0, 397.0, 399.0, 397.0, 399.0, 398.0, 400.0, 398.0, 401.0, 399.0, 401.0, 399.0, 401.0, 399.0, 400.0, 400.0, 400.0, 400.0, 396.0, 399.0, 397.0, 399.0, 400.0, 399.0, 400.0, 400.0, 401.0, 400.0, 401.0, 398.0, 400.0, 399.0, 400.0, 400.0, 400.0, 402.0, 401.0, 401.0, 400.0, 401.0, 399.0, 400.0, 398.0, 402.0, 402.0, 401.0, 403.0, 401.0, 401.0, 399.0, 399.0, 396.0, 397.0, 396.0, 398.0, 398.0, 399.0, 399.0, 400.0, 400.0, 400.0, 400.0, 401.0, 401.0, 400.0, 401.0, 401.0, 402.0, 402.0, 400.0, 401.0, 398.0, 400.0, 399.0, 400.0, 400.0, 400.0, 401.0, 400.0, 400.0, 399.0, 400.0, 398.0, 399.0, 399.0, 399.0, 399.0, 397.0, 399.0, 397.0, 400.0, 399.0, 400.0, 399.0, 400.0, 398.0, 399.0, 399.0, 398.0, 400.0, 399.0, 401.0, 397.0, 400.0, 399.0, 402.0, 402.0, 400.0, 402.0, 400.0, 400.0, 397.0, 398.0, 396.0, 398.0, 396.0, 399.0, 397.0, 399.0, 397.0, 400.0, 398.0, 400.0, 398.0, 400.0, 400.0, 400.0, 400.0, 402.0, 401.0, 402.0, 401.0, 402.0, 399.0, 400.0, 397.0, 399.0, 398.0, 398.0, 399.0, 399.0],
      "WindowWidth": [852.0, 847.0, 848.0, 845.0, 846.0, 843.0, 846.0, 842.0, 845.0, 844.0, 844.0, 844.0, 844.0, 845.0, 845.0, 845.0, 847.0, 845.0, 848.0, 845.0, 847.0, 845.0, 847.0, 844.0, 846.0, 847.0, 849.0, 846.0, 846.0, 848.0, 845.0, 849.0, 846.0, 848.0, 845.0, 848.0, 846.0, 848.0, 846.0, 848.0, 847.0, 849.0, 847.0, 849.0, 846.0, 842.0, 843.0, 848.0, 849.0, 849.0, 845.0, 845.0, 844.0, 843.0, 844.0, 845.0, 844.0, 846.0, 847.0, 851.0, 847.0, 849.0, 849.0, 847.0, 845.0, 843.0, 842.0, 839.0, 841.0, 839.0, 838.0, 841.0, 842.0, 843.0, 844.0, 845.0, 844.0, 847.0, 848.0, 848.0, 849.0, 848.0, 849.0, 846.0, 849.0, 847.0, 850.0, 848.0, 848.0, 848.0, 847.0, 848.0, 844.0, 846.0, 844.0, 846.0, 845.0, 846.0, 846.0, 847.0, 847.0, 843.0, 847.0, 846.0, 845.0, 846.0, 843.0, 846.0, 844.0, 845.0, 843.0, 845.0, 843.0, 845.0, 845.0, 847.0, 847.0, 847.0, 846.0, 847.0, 846.0, 848.0, 847.0, 848.0, 847.0, 847.0, 846.0, 847.0, 845.0, 848.0, 847.0, 850.0, 848.0, 850.0, 848.0, 849.0, 848.0, 848.0, 844.0, 845.0, 843.0, 845.0, 842.0, 844.0, 844.0, 846.0, 845.0, 848.0, 846.0, 848.0, 846.0, 848.0, 845.0, 847.0, 846.0, 846.0, 846.0, 841.0, 845.0, 843.0, 845.0, 847.0, 846.0, 847.0, 847.0, 849.0, 847.0, 848.0, 844.0, 847.0, 845.0, 847.0, 848.0, 846.0, 850.0, 849.0, 849.0, 848.0, 848.0, 846.0, 846.0, 844.0, 850.0, 852.0, 850.0, 852.0, 849.0, 849.0, 846.0, 845.0, 840.0, 842.0, 840.0, 843.0, 844.0, 845.0, 845.0, 846.0, 846.0, 847.0, 847.0, 848.0, 848.0, 848.0, 848.0, 848.0, 850.0, 850.0, 848.0, 848.0, 844.0, 847.0, 846.0, 847.0, 847.0, 848.0, 849.0, 847.0, 847.0, 845.0, 846.0, 844.0, 845.0, 845.0, 845.0, 845.0, 842.0, 845.0, 843.0, 847.0, 845.0, 848.0, 845.0, 847.0, 844.0, 845.0, 846.0, 844.0, 847.0, 846.0, 848.0, 843.0, 847.0, 845.0, 850.0, 850.0, 848.0, 851.0, 847.0, 846.0, 842.0, 843.0, 840.0, 843.0, 841.0, 844.0, 842.0, 845.0, 842.0, 846.0, 844.0, 847.0, 844.0, 846.0, 846.0, 846.0, 847.0, 851.0, 849.0, 851.0, 850.0, 850.0, 846.0, 847.0, 842.0, 844.0, 842.0, 843.0, 844.0, 845.0]
    },
    "slices": {}
  }
}