{
  "AcquisitionMatrixPE": 96,
  "AcquisitionNumber": 1,
  "AcquisitionTime": "10:55:20.862500",
  "BandwidthPerPixelPhaseEncode": 18.939,
  "BaseResolution": 96,
  "BodyPartExamined": "BRAIN",
  "ConsistencyInfo": "N4_VE11C_LATEST_20160120",
  "ConversionSoftware": "dcm2niix",
  "ConversionSoftwareVersion": "v1.0.20170923 (OpenJPEG build) GCC6.3.0",
  "DerivedVendorReportedEchoSpacing": 0.000550011,
  "DeviceSerialNumber": "66112",
  "DwellTime": 2.3e-06,
  "EchoTime": 0.033,
  "EchoTrainLength": 96,
  "EffectiveEchoSpacing": 0.000550011,
  "FlipAngle": 64,
  "ImageType": [
    "ORIGINAL",
    "PRIMARY",
    "FMRI",
    "NONE",
    "ND",
    "NORM",
    "MOSAIC"
],
  "InstitutionAddress": "Maynard_3_Hanover_NH_US_03755",
  "InstitutionName": "Dartmouth_College_-_PBS",
  "MagneticFieldStrength": 3,
  "Manufacturer": "Siemens",
  "ManufacturersModelName": "Prisma",
  "Modality": "MR",
  "MultibandAccelerationFactor": 4,
  "PartialFourier": 1,
  "PercentPhaseFOV": 100,
  "PhaseEncodingDirection": "j-",
  "PhaseEncodingSteps": 96,
  "PhaseResolution": 1,
  "ProcedureStepDescription": "Gobbini_Matteo_1017_famface-angles",
  "ProtocolName": "func_run-04_task-fam1back",
  "PulseSequenceDetails": "%SiemensSeq%_ep2d_bold",
  "ReceiveCoilActiveElements": "HEA;HEP",
  "ReceiveCoilName": "Head_32",
  "ReconMatrixPE": 96,
  "RepetitionTime": 1.25,
  "ScanOptions": "FS",
  "ScanningSequence": "EP",
  "SequenceName": "_epfid2d1_96",
  "SequenceVariant": "SK",
  "SeriesDescription": "func_run-04_task-fam1back",
  "SliceTiming": [0.8775, 0, 0.615, 0.0875, 0.7025, 0.175, 0.79, 0.35, 0.965, 0.4375, 1.0525, 0.525, 1.14, 0.2625, 0.8775, 0, 0.615, 0.0875, 0.7025, 0.175, 0.79, 0.35, 0.965, 0.4375, 1.0525, 0.525, 1.14, 0.2625, 0.8775, 0, 0.615, 0.0875, 0.7025, 0.175, 0.79, 0.35, 0.965, 0.4375, 1.0525, 0.525, 1.14, 0.2625, 0.8775, 0, 0.615, 0.0875, 0.7025, 0.175, 0.79, 0.35, 0.965, 0.4375, 1.0525, 0.525, 1.14, 0.2625],
  "SoftwareVersions": "syngo_MR_E11",
  "StationName": "AWP66112",
  "TaskName": "fam1back",
  "TotalReadoutTime": 0.0522511,
  "dcmmeta_affine": [
    [-2.492647886276245, 0.04742610082030296, 0.1856268346309662, 115.20972442626953],
    [0.07616527378559113, 2.4678611755371094, 0.3922502100467682, -110.462890625],
    [0.17579935491085052, -0.3967519998550415, 2.462048292160034, -44.667640686035156],
    [0.0, 0.0, 0.0, 1.0]
],
  "dcmmeta_reorient_transform": [
    [0.0, -1.0, 0.0, 95.0],
    [1.0, 0.0, 0.0, 0.0],
    [0.0, 0.0, 1.0, 0.0],
    [0.0, 0.0, 0.0, 1.0]
],
  "dcmmeta_shape": [96, 96, 56, 280],
  "dcmmeta_slice_dim": 2,
  "dcmmeta_version": 0.6,
  "global": {
    "const": {
      "AccessionNumber": "A000491",
      "AcquisitionMatrix": [96, 0, 0, 96],
      "AngioFlag": "N",
      "BitsAllocated": 16,
      "BitsStored": 12,
      "BodyPartExamined": "BRAIN",
      "Columns": 768,
      "EchoNumbers": 1,
      "EchoTime": 33.0,
      "EchoTrainLength": 96,
      "FlipAngle": 64.0,
      "HighBit": 11,
      "ImageOrientationPatient": [0.99705915091762, -0.0304661089803, 0.07031973958309, 0.01897044058389, 0.98714445611666, 0.15870080384864],
      "ImagePositionPatient": [-973.18006052089, -927.59372934891, -274.7363391261],
      "ImageType": [
        "ORIGINAL",
        "PRIMARY",
        "FMRI",
        "NONE",
        "ND",
        "NORM",
        "MOSAIC"
],
      "ImagedNucleus": "1H",
      "ImagingFrequency": 123.252534,
      "InPlanePhaseEncodingDirection": "COL",
      "MRAcquisitionType": "2D",
      "MagneticFieldStrength": 3.0,
      "Manufacturer": "SIEMENS",
      "ManufacturerModelName": "Prisma",
      "Modality": "MR",
      "NumberOfAverages": 1.0,
      "NumberOfPhaseEncodingSteps": 96,
      "PercentPhaseFieldOfView": 100.0,
      "PercentSampling": 100.0,
      "PerformedProcedureStepStartTime": "102444.623000",
      "PhotometricInterpretation": "MONOCHROME2",
      "PixelBandwidth": 2265.0,
      "PixelRepresentation": 0,
      "PixelSpacing": [2.5, 2.5],
      "PositionReferenceIndicator": "",
      "ProtocolName": "func_run-04_task-fam1back",
      "RepetitionTime": 1250.0,
      "Rows": 768,
      "SAR": 0.04941021401557,
      "SamplesPerPixel": 1,
      "ScanOptions": "FS",
      "ScanningSequence": "EP",
      "SequenceName": "*epfid2d1_96",
      "SequenceVariant": "SK",
      "SeriesDescription": "func_run-04_task-fam1back",
      "SeriesNumber": 32,
      "SeriesTime": "105522.584000",
      "SliceLocation": -52.766789531645,
      "SliceThickness": 2.5,
      "SmallestImagePixelValue": 0,
      "SoftwareVersions": "syngo MR E11",
      "SpacingBetweenSlices": 2.4999999199391,
      "SpecificCharacterSet": "ISO_IR 100",
      "StudyID": "2",
      "StudyTime": "102444.520000",
      "TransmitCoilName": "Body",
      "VariableFlipAngleFlag": "N",
      "WindowCenterWidthExplanation": "Algo1",
      "dBdt": 0.0},
    "slices": {}
  },
  "time": {
    "samples": {
      "AcquisitionNumber": [1, 2, 3, 4, 5, 6, 7, 8, 9, 10, 11, 12, 13, 14, 15, 16, 17, 18, 19, 20, 21, 22, 23, 24, 25, 26, 27, 28, 29, 30, 31, 32, 33, 34, 35, 36, 37, 38, 39, 40, 41, 42, 43, 44, 45, 46, 47, 48, 49, 50, 51, 52, 53, 54, 55, 56, 57, 58, 59, 60, 61, 62, 63, 64, 65, 66, 67, 68, 69, 70, 71, 72, 73, 74, 75, 76, 77, 78, 79, 80, 81, 82, 83, 84, 85, 86, 87, 88, 89, 90, 91, 92, 93, 94, 95, 96, 97, 98, 99, 100, 101, 102, 103, 104, 105, 106, 107, 108, 109, 110, 111, 112, 113, 114, 115, 116, 117, 118, 119, 120, 121, 122, 123, 124, 125, 126, 127, 128, 129, 130, 131, 132, 133, 134, 135, 136, 137, 138, 139, 140, 141, 142, 143, 144, 145, 146, 147, 148, 149, 150, 151, 152, 153, 154, 155, 156, 157, 158, 159, 160, 161, 162, 163, 164, 165, 166, 167, 168, 169, 170, 171, 172, 173, 174, 175, 176, 177, 178, 179, 180, 181, 182, 183, 184, 185, 186, 187, 188, 189, 190, 191, 192, 193, 194, 195, 196, 197, 198, 199, 200, 201, 202, 203, 204, 205, 206, 207, 208, 209, 210, 211, 212, 213, 214, 215, 216, 217, 218, 219, 220, 221, 222, 223, 224, 225, 226, 227, 228, 229, 230, 231, 232, 233, 234, 235, 236, 237, 238, 239, 240, 241, 242, 243, 244, 245, 246, 247, 248, 249, 250, 251, 252, 253, 254, 255, 256, 257, 258, 259, 260, 261, 262, 263, 264, 265, 266, 267, 268, 269, 270, 271, 272, 273, 274, 275, 276, 277, 278, 279, 280],
      "AcquisitionTime": ["105520.862500", "105522.112500", "105523.362500", "105524.612500", "105525.862500", "105527.112500", "105528.362500", "105529.612500", "105530.862500", "105532.112500", "105533.362500", "105534.612500", "105535.862500", "105537.112500", "105538.362500", "105539.612500", "105540.862500", "105542.112500", "105543.362500", "105544.612500", "105545.862500", "105547.112500", "105548.362500", "105549.612500", "105550.862500", "105552.112500", "105553.362500", "105554.612500", "105555.862500", "105557.112500", "105558.362500", "105559.612500", "105600.862500", "105602.112500", "105603.362500", "105604.612500", "105605.862500", "105607.112500", "105608.362500", "105609.612500", "105610.862500", "105612.112500", "105613.362500", "105614.612500", "105615.862500", "105617.112500", "105618.362500", "105619.612500", "105620.862500", "105622.112500", "105623.362500", "105624.612500", "105625.862500", "105627.112500", "105628.362500", "105629.612500", "105630.862500", "105632.112500", "105633.362500", "105634.612500", "105635.862500", "105637.112500", "105638.362500", "105639.612500", "105640.862500", "105642.112500", "105643.362500", "105644.612500", "105645.862500", "105647.112500", "105648.362500", "105649.612500", "105650.862500", "105652.112500", "105653.362500", "105654.612500", "105655.862500", "105657.112500", "105658.362500", "105659.612500", "105700.862500", "105702.112500", "105703.362500", "105704.612500", "105705.862500", "105707.112500", "105708.362500", "105709.612500", "105710.862500", "105712.112500", "105713.362500", "105714.612500", "105715.862500", "105717.112500", "105718.362500", "105719.612500", "105720.862500", "105722.112500", "105723.362500", "105724.612500", "105725.862500", "105727.112500", "105728.362500", "105729.612500", "105730.862500", "105732.112500", "105733.362500", "105734.612500", "105735.862500", "105737.112500", "105738.362500", "105739.612500", "105740.862500", "105742.112500", "105743.362500", "105744.612500", "105745.862500", "105747.112500", "105748.362500", "105749.612500", "105750.862500", "105752.112500", "105753.362500", "105754.612500", "105755.862500", "105757.112500", "105758.362500", "105759.612500", "105800.862500", "105802.112500", "105803.362500", "105804.612500", "105805.862500", "105807.112500", "105808.362500", "105809.612500", "105810.862500", "105812.112500", "105813.362500", "105814.612500", "105815.862500", "105817.112500", "105818.362500", "105819.612500", "105820.862500", "105822.112500", "105823.362500", "105824.612500", "105825.862500", "105827.112500", "105828.362500", "105829.612500", "105830.862500", "105832.112500", "105833.362500", "105834.612500", "105835.862500", "105837.112500", "105838.362500", "105839.612500", "105840.862500", "105842.112500", "105843.362500", "105844.612500", "105845.862500", "105847.112500", "105848.362500", "105849.612500", "105850.862500", "105852.112500", "105853.362500", "105854.612500", "105855.862500", "105857.112500", "105858.362500", "105859.612500", "105900.862500", "105902.112500", "105903.362500", "105904.612500", "105905.862500", "105907.112500", "105908.362500", "105909.612500", "105910.862500", "105912.112500", "105913.362500", "105914.612500", "105915.862500", "105917.112500", "105918.362500", "105919.612500", "105920.862500", "105922.112500", "105923.362500", "105924.612500", "105925.862500", "105927.112500", "105928.362500", "105929.612500", "105930.862500", "105932.112500", "105933.362500", "105934.612500", "105935.862500", "105937.112500", "105938.362500", "105939.612500", "105940.862500", "105942.112500", "105943.362500", "105944.612500", "105945.862500", "105947.112500", "105948.362500", "105949.612500", "105950.862500", "105952.112500", "105953.362500", "105954.612500", "105955.862500", "105957.112500", "105958.362500", "105959.612500", "110000.862500", "110002.112500", "110003.362500", "110004.612500", "110005.862500", "110007.112500", "110008.362500", "110009.612500", "110010.862500", "110012.112500", "110013.362500", "110014.612500", "110015.862500", "110017.112500", "110018.362500", "110019.612500", "110020.862500", "110022.112500", "110023.362500", "110024.612500", "110025.862500", "110027.112500", "110028.362500", "110029.612500", "110030.862500", "110032.112500", "110033.362500", "110034.612500", "110035.862500", "110037.112500", "110038.362500", "110039.612500", "110040.862500", "110042.112500", "110043.362500", "110044.612500", "110045.862500", "110047.112500", "110048.362500", "110049.612500", "110050.862500", "110052.112500", "110053.362500", "110054.612500", "110055.862500", "110057.112500", "110058.362500", "110059.612500", "110100.862500", "110102.112500", "110103.362500", "110104.612500", "110105.862500", "110107.112500", "110108.362500", "110109.612500"],
      "ContentTime": ["105522.588000", "105523.669000", "105524.889000", "105526.170000", "105527.417000", "105528.632000", "105529.876000", "105531.152000", "105532.420000", "105533.638000", "105534.923000", "105536.145000", "105537.397000", "105538.651000", "105539.914000", "105541.140000", "105542.413000", "105543.649000", "105544.888000", "105546.145000", "105547.398000", "105548.632000", "105549.867000", "105551.141000", "105552.417000", "105553.659000", "105554.887000", "105556.147000", "105557.420000", "105558.662000", "105559.886000", "105601.141000", "105602.387000", "105603.642000", "105604.902000", "105606.154000", "105607.375000", "105608.648000", "105609.883000", "105611.152000", "105612.466000", "105613.659000", "105614.871000", "105616.142000", "105617.386000", "105618.626000", "105619.916000", "105621.170000", "105622.417000", "105623.677000", "105624.886000", "105626.158000", "105627.383000", "105628.656000", "105629.903000", "105631.218000", "105632.403000", "105633.638000", "105634.882000", "105636.138000", "105637.392000", "105638.696000", "105639.888000", "105641.145000", "105642.427000", "105643.669000", "105644.904000", "105646.135000", "105647.374000", "105648.691000", "105649.941000", "105651.129000", "105652.409000", "105653.681000", "105654.894000", "105656.128000", "105657.396000", "105658.654000", "105659.922000", "105701.159000", "105702.405000", "105703.641000", "105704.895000", "105706.152000", "105707.391000", "105708.639000", "105709.911000", "105711.142000", "105712.396000", "105713.680000", "105714.881000", "105716.146000", "105717.388000", "105718.654000", "105719.912000", "105721.184000", "105722.431000", "105723.665000", "105724.939000", "105726.170000", "105727.439000", "105728.628000", "105729.924000", "105731.173000", "105732.484000", "105733.667000", "105734.909000", "105736.135000", "105737.403000", "105738.680000", "105739.922000", "105741.202000", "105742.416000", "105743.682000", "105744.897000", "105746.168000", "105747.414000", "105748.655000", "105749.900000", "105751.178000", "105752.416000", "105753.665000", "105754.893000", "105756.181000", "105757.414000", "105758.659000", "105759.892000", "105801.159000", "105802.387000", "105803.649000", "105804.889000", "105806.141000", "105807.448000", "105808.645000", "105809.922000", "105811.156000", "105812.395000", "105813.666000", "105814.906000", "105816.159000", "105817.403000", "105818.679000", "105819.892000", "105821.157000", "105822.407000", "105823.650000", "105824.916000", "105826.167000", "105827.392000", "105828.609000", "105829.901000", "105831.169000", "105832.398000", "105833.651000", "105834.896000", "105836.156000", "105837.409000", "105838.682000", "105839.921000", "105841.101000", "105842.395000", "105843.671000", "105844.952000", "105846.154000", "105847.413000", "105848.634000", "105849.889000", "105851.144000", "105852.407000", "105853.648000", "105854.910000", "105856.141000", "105857.393000", "105858.640000", "105859.897000", "105901.127000", "105902.386000", "105903.631000", "105904.878000", "105906.133000", "105907.415000", "105908.649000", "105909.910000", "105911.162000", "105912.396000", "105913.646000", "105914.897000", "105916.151000", "105917.398000", "105918.749000", "105919.918000", "105921.137000", "105922.382000", "105923.649000", "105924.877000", "105926.149000", "105927.455000", "105928.668000", "105929.899000", "105931.172000", "105932.399000", "105933.652000", "105934.880000", "105936.154000", "105937.399000", "105938.641000", "105939.906000", "105941.138000", "105942.414000", "105943.645000", "105944.953000", "105946.150000", "105947.367000", "105948.655000", "105949.883000", "105951.196000", "105952.409000", "105953.677000", "105954.894000", "105956.150000", "105957.390000", "105958.644000", "105959.912000", "110001.162000", "110002.405000", "110003.667000", "110004.899000", "110006.157000", "110007.428000", "110008.681000", "110009.941000", "110011.185000", "110012.386000", "110013.656000", "110014.927000", "110016.160000", "110017.420000", "110018.662000", "110019.900000", "110021.137000", "110022.374000", "110023.653000", "110024.863000", "110026.149000", "110027.436000", "110028.667000", "110029.894000", "110031.129000", "110032.441000", "110033.695000", "110034.897000", "110036.132000", "110037.389000", "110038.661000", "110039.905000", "110041.159000", "110042.393000", "110043.633000", "110044.915000", "110046.146000", "110047.380000", "110048.657000", "110049.893000", "110051.148000", "110052.407000", "110053.681000", "110054.898000", "110056.153000", "110057.405000", "110058.649000", "110059.920000", "110101.152000", "110102.400000", "110103.663000", "110104.884000", "110106.168000", "110107.386000", "110108.658000", "110109.926000", "110111.189000"],
      "InstanceCreationTime": ["105522.588000", "105523.669000", "105524.889000", "105526.170000", "105527.417000", "105528.632000", "105529.876000", "105531.152000", "105532.420000", "105533.638000", "105534.923000", "105536.145000", "105537.397000", "105538.651000", "105539.914000", "105541.140000", "105542.413000", "105543.649000", "105544.888000", "105546.145000", "105547.398000", "105548.632000", "105549.867000", "105551.141000", "105552.417000", "105553.659000", "105554.887000", "105556.147000", "105557.420000", "105558.662000", "105559.886000", "105601.141000", "105602.387000", "105603.642000", "105604.902000", "105606.154000", "105607.375000", "105608.648000", "105609.883000", "105611.152000", "105612.466000", "105613.659000", "105614.871000", "105616.142000", "105617.386000", "105618.626000", "105619.916000", "105621.170000", "105622.417000", "105623.677000", "105624.886000", "105626.158000", "105627.383000", "105628.656000", "105629.903000", "105631.218000", "105632.403000", "105633.638000", "105634.882000", "105636.138000", "105637.392000", "105638.696000", "105639.888000", "105641.145000", "105642.427000", "105643.669000", "105644.904000", "105646.135000", "105647.374000", "105648.691000", "105649.941000", "105651.129000", "105652.409000", "105653.681000", "105654.894000", "105656.128000", "105657.396000", "105658.654000", "105659.922000", "105701.159000", "105702.405000", "105703.641000", "105704.895000", "105706.152000", "105707.391000", "105708.639000", "105709.911000", "105711.142000", "105712.396000", "105713.680000", "105714.881000", "105716.146000", "105717.388000", "105718.654000", "105719.912000", "105721.184000", "105722.431000", "105723.665000", "105724.939000", "105726.170000", "105727.439000", "105728.628000", "105729.924000", "105731.173000", "105732.484000", "105733.667000", "105734.909000", "105736.135000", "105737.403000", "105738.680000", "105739.922000", "105741.202000", "105742.416000", "105743.682000", "105744.897000", "105746.168000", "105747.414000", "105748.655000", "105749.900000", "105751.178000", "105752.416000", "105753.665000", "105754.893000", "105756.181000", "105757.414000", "105758.659000", "105759.892000", "105801.159000", "105802.387000", "105803.649000", "105804.889000", "105806.141000", "105807.448000", "105808.645000", "105809.922000", "105811.156000", "105812.395000", "105813.666000", "105814.906000", "105816.159000", "105817.403000", "105818.679000", "105819.892000", "105821.157000", "105822.407000", "105823.650000", "105824.916000", "105826.167000", "105827.392000", "105828.609000", "105829.901000", "105831.169000", "105832.398000", "105833.651000", "105834.896000", "105836.156000", "105837.409000", "105838.682000", "105839.921000", "105841.101000", "105842.395000", "105843.671000", "105844.952000", "105846.154000", "105847.413000", "105848.634000", "105849.889000", "105851.144000", "105852.407000", "105853.648000", "105854.910000", "105856.141000", "105857.393000", "105858.640000", "105859.897000", "105901.127000", "105902.386000", "105903.631000", "105904.878000", "105906.133000", "105907.415000", "105908.649000", "105909.910000", "105911.162000", "105912.396000", "105913.646000", "105914.897000", "105916.151000", "105917.398000", "105918.749000", "105919.918000", "105921.137000", "105922.382000", "105923.649000", "105924.877000", "105926.149000", "105927.455000", "105928.668000", "105929.899000", "105931.172000", "105932.399000", "105933.652000", "105934.880000", "105936.154000", "105937.399000", "105938.641000", "105939.906000", "105941.138000", "105942.414000", "105943.645000", "105944.953000", "105946.150000", "105947.367000", "105948.655000", "105949.883000", "105951.196000", "105952.409000", "105953.677000", "105954.894000", "105956.150000", "105957.390000", "105958.644000", "105959.912000", "110001.162000", "110002.405000", "110003.667000", "110004.899000", "110006.157000", "110007.428000", "110008.681000", "110009.941000", "110011.185000", "110012.386000", "110013.656000", "110014.927000", "110016.160000", "110017.420000", "110018.662000", "110019.900000", "110021.137000", "110022.374000", "110023.653000", "110024.863000", "110026.149000", "110027.436000", "110028.667000", "110029.894000", "110031.129000", "110032.441000", "110033.695000", "110034.897000", "110036.132000", "110037.389000", "110038.661000", "110039.905000", "110041.159000", "110042.393000", "110043.633000", "110044.915000", "110046.146000", "110047.380000", "110048.657000", "110049.893000", "110051.148000", "110052.407000", "110053.681000", "110054.898000", "110056.153000", "110057.405000", "110058.649000", "110059.920000", "110101.152000", "110102.400000", "110103.663000", "110104.884000", "110106.168000", "110107.386000", "110108.658000", "110109.926000", "110111.189000"],
      "InstanceNumber": [1, 2, 3, 4, 5, 6, 7, 8, 9, 10, 11, 12, 13, 14, 15, 16, 17, 18, 19, 20, 21, 22, 23, 24, 25, 26, 27, 28, 29, 30, 31, 32, 33, 34, 35, 36, 37, 38, 39, 40, 41, 42, 43, 44, 45, 46, 47, 48, 49, 50, 51, 52, 53, 54, 55, 56, 57, 58, 59, 60, 61, 62, 63, 64, 65, 66, 67, 68, 69, 70, 71, 72, 73, 74, 75, 76, 77, 78, 79, 80, 81, 82, 83, 84, 85, 86, 87, 88, 89, 90, 91, 92, 93, 94, 95, 96, 97, 98, 99, 100, 101, 102, 103, 104, 105, 106, 107, 108, 109, 110, 111, 112, 113, 114, 115, 116, 117, 118, 119, 120, 121, 122, 123, 124, 125, 126, 127, 128, 129, 130, 131, 132, 133, 134, 135, 136, 137, 138, 139, 140, 141, 142, 143, 144, 145, 146, 147, 148, 149, 150, 151, 152, 153, 154, 155, 156, 157, 158, 159, 160, 161, 162, 163, 164, 165, 166, 167, 168, 169, 170, 171, 172, 173, 174, 175, 176, 177, 178, 179, 180, 181, 182, 183, 184, 185, 186, 187, 188, 189, 190, 191, 192, 193, 194, 195, 196, 197, 198, 199, 200, 201, 202, 203, 204, 205, 206, 207, 208, 209, 210, 211, 212, 213, 214, 215, 216, 217, 218, 219, 220, 221, 222, 223, 224, 225, 226, 227, 228, 229, 230, 231, 232, 233, 234, 235, 236, 237, 238, 239, 240, 241, 242, 243, 244, 245, 246, 247, 248, 249, 250, 251, 252, 253, 254, 255, 256, 257, 258, 259, 260, 261, 262, 263, 264, 265, 266, 267, 268, 269, 270, 271, 272, 273, 274, 275, 276, 277, 278, 279, 280],
      "LargestImagePixelValue": [969, 1184, 984, 1174, 1204, 1006, 1153, 905, 1131, 900, 1136, 861, 1142, 864, 1082, 860, 1090, 878, 1104, 877, 1173, 891, 1134, 933, 1136, 982, 1165, 1045, 1186, 885, 1103, 887, 1082, 897, 1123, 1040, 1084, 1124, 1066, 1099, 1087, 1150, 1090, 1035, 1107, 991, 1132, 914, 1160, 919, 1069, 888, 1134, 1006, 1096, 1116, 1056, 1077, 1050, 985, 1125, 1033, 1130, 952, 1101, 973, 1071, 1151, 992, 1150, 1172, 1138, 1075, 1043, 1041, 1051, 1096, 937, 1108, 920, 1124, 1043, 940, 1112, 1012, 1101, 1135, 1097, 1085, 1037, 1101, 1068, 902, 1107, 937, 1161, 1137, 1158, 1078, 1059, 936, 1101, 914, 1107, 909, 1119, 1131, 1167, 1175, 1229, 1086, 994, 1104, 1144, 1077, 969, 1142, 934, 1138, 921, 1160, 914, 1114, 910, 1100, 917, 1126, 914, 1143, 881, 1098, 890, 1123, 906, 1111, 898, 1099, 909, 1131, 1018, 916, 1170, 938, 1186, 1135, 1113, 1125, 1088, 1177, 1116, 938, 1075, 915, 1127, 976, 1093, 1035, 1123, 931, 1171, 915, 1207, 885, 1219, 901, 1172, 947, 1214, 1201, 1121, 1134, 897, 1138, 972, 1120, 1016, 1168, 1144, 1183, 1134, 1123, 1163, 1039, 1113, 952, 1115, 957, 1137, 1100, 1143, 1102, 1151, 1031, 1139, 966, 1146, 1114, 1134, 1130, 1192, 1155, 1192, 1101, 1195, 1144, 1110, 1102, 939, 1128, 1195, 946, 1173, 920, 1158, 930, 1110, 894, 1132, 909, 1146, 922, 1188, 1179, 1134, 1144, 917, 1159, 907, 1104, 1017, 1138, 966, 1236, 1184, 955, 1119, 936, 1154, 927, 1144, 1036, 1156, 984, 1144, 936, 1087, 903, 1133, 928, 1151, 940, 1133, 968, 1102, 1052, 1100, 936, 1114, 924, 1086, 926, 1084, 936, 1132, 977, 1079, 927, 1064, 981, 1139, 968, 1133, 1010, 1139, 973, 1077, 936, 1101, 931, 1100],
      "WindowCenter": [402.0, 402.0, 399.0, 399.0, 398.0, 396.0, 397.0, 396.0, 399.0, 397.0, 400.0, 398.0, 400.0, 397.0, 400.0, 398.0, 401.0, 399.0, 401.0, 399.0, 402.0, 399.0, 402.0, 399.0, 401.0, 399.0, 401.0, 400.0, 401.0, 397.0, 400.0, 398.0, 400.0, 398.0, 400.0, 399.0, 400.0, 400.0, 400.0, 401.0, 400.0, 401.0, 400.0, 400.0, 400.0, 399.0, 400.0, 399.0, 401.0, 399.0, 400.0, 398.0, 400.0, 399.0, 399.0, 399.0, 399.0, 400.0, 400.0, 400.0, 401.0, 401.0, 401.0, 399.0, 400.0, 400.0, 401.0, 402.0, 401.0, 400.0, 400.0, 399.0, 399.0, 399.0, 399.0, 400.0, 400.0, 398.0, 400.0, 398.0, 401.0, 401.0, 400.0, 402.0, 401.0, 401.0, 401.0, 400.0, 400.0, 400.0, 401.0, 402.0, 400.0, 402.0, 400.0, 401.0, 400.0, 400.0, 399.0, 400.0, 399.0, 400.0, 399.0, 401.0, 399.0, 401.0, 401.0, 401.0, 401.0, 401.0, 400.0, 399.0, 400.0, 400.0, 400.0, 399.0, 401.0, 399.0, 400.0, 399.0, 400.0, 398.0, 400.0, 399.0, 401.0, 399.0, 400.0, 399.0, 400.0, 398.0, 400.0, 399.0, 401.0, 398.0, 401.0, 398.0, 400.0, 398.0, 401.0, 400.0, 400.0, 402.0, 399.0, 402.0, 401.0, 400.0, 400.0, 400.0, 400.0, 399.0, 397.0, 399.0, 397.0, 399.0, 397.0, 399.0, 399.0, 400.0, 399.0, 401.0, 399.0, 402.0, 399.0, 402.0, 399.0, 402.0, 399.0, 401.0, 401.0, 400.0, 400.0, 398.0, 400.0, 399.0, 401.0, 400.0, 402.0, 401.0, 401.0, 401.0, 400.0, 400.0, 398.0, 399.0, 398.0, 399.0, 398.0, 399.0, 400.0, 401.0, 400.0, 401.0, 400.0, 401.0, 399.0, 402.0, 402.0, 402.0, 402.0, 403.0, 401.0, 401.0, 400.0, 401.0, 401.0, 401.0, 401.0, 400.0, 402.0, 401.0, 399.0, 401.0, 397.0, 400.0, 398.0, 400.0, 398.0, 401.0, 399.0, 400.0, 398.0, 400.0, 400.0, 400.0, 400.0, 398.0, 401.0, 399.0, 400.0, 400.0, 401.0, 400.0, 402.0, 401.0, 399.0, 401.0, 399.0, 401.0, 399.0, 401.0, 400.0, 401.0, 400.0, 401.0, 399.0, 400.0, 398.0, 401.0, 399.0, 401.0, 399.0, 401.0, 399.0, 400.0, 400.0, 400.0, 398.0, 400.0, 397.0, 399.0, 398.0, 400.0, 399.0, 401.0, 399.0, 400.0, 400.0, 401.0, 400.0, 401.0, 399.0, 401.0, 399.0, 399.0, 398.0, 399.0, 398.0, 399.0, 398.0, 400.0],
      "WindowWidth": [851.0, 851.0, 845.0, 845.0, 843.0, 840.0, 842.0, 840.0, 845.0, 842.0, 847.0, 843.0, 847.0, 843.0, 847.0, 845.0, 849.0, 846.0, 849.0, 847.0, 851.0, 847.0, 850.0, 846.0, 849.0, 846.0, 848.0, 846.0, 848.0, 843.0, 846.0, 843.0, 846.0, 844.0, 847.0, 846.0, 846.0, 847.0, 846.0, 848.0, 847.0, 849.0, 847.0, 848.0, 847.0, 845.0, 847.0, 845.0, 848.0, 845.0, 847.0, 844.0, 847.0, 845.0, 846.0, 845.0, 846.0, 847.0, 848.0, 847.0, 848.0, 848.0, 848.0, 845.0, 847.0, 846.0, 849.0, 850.0, 848.0, 847.0, 847.0, 845.0, 844.0, 845.0, 845.0, 846.0, 846.0, 845.0, 847.0, 844.0, 848.0, 849.0, 848.0, 851.0, 848.0, 849.0, 849.0, 847.0, 848.0, 847.0, 848.0, 850.0, 848.0, 851.0, 848.0, 849.0, 847.0, 847.0, 845.0, 846.0, 845.0, 847.0, 845.0, 849.0, 846.0, 849.0, 848.0, 848.0, 847.0, 848.0, 846.0, 846.0, 846.0, 847.0, 847.0, 846.0, 848.0, 846.0, 847.0, 845.0, 847.0, 844.0, 847.0, 846.0, 849.0, 847.0, 848.0, 845.0, 847.0, 843.0, 847.0, 845.0, 848.0, 844.0, 848.0, 844.0, 847.0, 844.0, 848.0, 847.0, 847.0, 849.0, 846.0, 850.0, 848.0, 847.0, 846.0, 846.0, 847.0, 845.0, 843.0, 845.0, 842.0, 844.0, 842.0, 845.0, 845.0, 846.0, 845.0, 848.0, 845.0, 849.0, 845.0, 850.0, 846.0, 849.0, 845.0, 849.0, 848.0, 847.0, 847.0, 844.0, 847.0, 846.0, 849.0, 848.0, 850.0, 849.0, 849.0, 849.0, 847.0, 847.0, 844.0, 845.0, 843.0, 844.0, 843.0, 845.0, 846.0, 848.0, 847.0, 848.0, 847.0, 848.0, 846.0, 850.0, 850.0, 850.0, 850.0, 851.0, 849.0, 849.0, 847.0, 849.0, 848.0, 848.0, 849.0, 848.0, 850.0, 849.0, 845.0, 847.0, 843.0, 846.0, 843.0, 846.0, 844.0, 848.0, 845.0, 847.0, 844.0, 846.0, 847.0, 846.0, 847.0, 844.0, 848.0, 845.0, 847.0, 846.0, 848.0, 847.0, 850.0, 849.0, 846.0, 848.0, 845.0, 849.0, 845.0, 848.0, 847.0, 849.0, 847.0, 848.0, 845.0, 847.0, 844.0, 848.0, 845.0, 848.0, 846.0, 848.0, 846.0, 847.0, 847.0, 847.0, 844.0, 846.0, 843.0, 846.0, 844.0, 847.0, 845.0, 848.0, 845.0, 847.0, 847.0, 849.0, 847.0, 849.0, 846.0, 848.0, 845.0, 845.0, 843.0, 845.0, 843.0, 845.0, 843.0, 846.0]
    },
    "slices": {}
  }
}