{
  "AcquisitionMatrixPE": 96,
  "AcquisitionNumber": 1,
  "AcquisitionTime": "10:42:33.387500",
  "BandwidthPerPixelPhaseEncode": 18.939,
  "BaseResolution": 96,
  "BodyPartExamined": "BRAIN",
  "ConsistencyInfo": "N4_VE11C_LATEST_20160120",
  "ConversionSoftware": "dcm2niix",
  "ConversionSoftwareVersion": "v1.0.20170923 (OpenJPEG build) GCC6.3.0",
  "DerivedVendorReportedEchoSpacing": 0.000550011,
  "DeviceSerialNumber": "66112",
  "DwellTime": 2.3e-06,
  "EchoTime": 0.033,
  "EchoTrainLength": 96,
  "EffectiveEchoSpacing": 0.000550011,
  "FlipAngle": 64,
  "ImageType": [
    "ORIGINAL",
    "PRIMARY",
    "FMRI",
    "NONE",
    "ND",
    "NORM",
    "MOSAIC"
],
  "InstitutionAddress": "Maynard_3_Hanover_NH_US_03755",
  "InstitutionName": "Dartmouth_College_-_PBS",
  "MagneticFieldStrength": 3,
  "Manufacturer": "Siemens",
  "ManufacturersModelName": "Prisma",
  "Modality": "MR",
  "MultibandAccelerationFactor": 4,
  "PartialFourier": 1,
  "PercentPhaseFOV": 100,
  "PhaseEncodingDirection": "j-",
  "PhaseEncodingSteps": 96,
  "PhaseResolution": 1,
  "ProcedureStepDescription": "Gobbini_Matteo_1017_famface-angles",
  "ProtocolName": "func_run-02_task-fam1back",
  "PulseSequenceDetails": "%SiemensSeq%_ep2d_bold",
  "ReceiveCoilActiveElements": "HEA;HEP",
  "ReceiveCoilName": "Head_32",
  "ReconMatrixPE": 96,
  "RepetitionTime": 1.25,
  "ScanOptions": "FS",
  "ScanningSequence": "EP",
  "SequenceName": "_epfid2d1_96",
  "SequenceVariant": "SK",
  "SeriesDescription": "func_run-02_task-fam1back",
  "SliceTiming": [0.8775, 0, 0.615, 0.0875, 0.7025, 0.175, 0.79, 0.35, 0.965, 0.4375, 1.0525, 0.525, 1.14, 0.2625, 0.8775, 0, 0.615, 0.0875, 0.7025, 0.175, 0.79, 0.35, 0.965, 0.4375, 1.0525, 0.525, 1.14, 0.2625, 0.8775, 0, 0.615, 0.0875, 0.7025, 0.175, 0.79, 0.35, 0.965, 0.4375, 1.0525, 0.525, 1.14, 0.2625, 0.8775, 0, 0.615, 0.0875, 0.7025, 0.175, 0.79, 0.35, 0.965, 0.4375, 1.0525, 0.525, 1.14, 0.2625],
  "SoftwareVersions": "syngo_MR_E11",
  "StationName": "AWP66112",
  "TaskName": "fam1back",
  "TotalReadoutTime": 0.0522511,
  "dcmmeta_affine": [
    [-2.492647886276245, 0.04742610082030296, 0.1856268346309662, 115.20972442626953],
    [0.07616527378559113, 2.4678611755371094, 0.3922502100467682, -110.462890625],
    [0.17579935491085052, -0.3967519998550415, 2.462048292160034, -44.667640686035156],
    [0.0, 0.0, 0.0, 1.0]
],
  "dcmmeta_reorient_transform": [
    [0.0, -1.0, 0.0, 95.0],
    [1.0, 0.0, 0.0, 0.0],
    [0.0, 0.0, 1.0, 0.0],
    [0.0, 0.0, 0.0, 1.0]
],
  "dcmmeta_shape": [96, 96, 56, 280],
  "dcmmeta_slice_dim": 2,
  "dcmmeta_version": 0.6,
  "global": {
    "const": {
      "AccessionNumber": "A000491",
      "AcquisitionMatrix": [96, 0, 0, 96],
      "AngioFlag": "N",
      "BitsAllocated": 16,
      "BitsStored": 12,
      "BodyPartExamined": "BRAIN",
      "Columns": 768,
      "EchoNumbers": 1,
      "EchoTime": 33.0,
      "EchoTrainLength": 96,
      "FlipAngle": 64.0,
      "HighBit": 11,
      "ImageOrientationPatient": [0.99705915091762, -0.0304661089803, 0.07031973958309, 0.01897044058389, 0.98714445611666, 0.15870080384864],
      "ImagePositionPatient": [-973.18006052089, -927.59372934891, -274.7363391261],
      "ImageType": [
        "ORIGINAL",
        "PRIMARY",
        "FMRI",
        "NONE",
        "ND",
        "NORM",
        "MOSAIC"
],
      "ImagedNucleus": "1H",
      "ImagingFrequency": 123.252535,
      "InPlanePhaseEncodingDirection": "COL",
      "MRAcquisitionType": "2D",
      "MagneticFieldStrength": 3.0,
      "Manufacturer": "SIEMENS",
      "ManufacturerModelName": "Prisma",
      "Modality": "MR",
      "NumberOfAverages": 1.0,
      "NumberOfPhaseEncodingSteps": 96,
      "PercentPhaseFieldOfView": 100.0,
      "PercentSampling": 100.0,
      "PerformedProcedureStepStartTime": "102444.623000",
      "PhotometricInterpretation": "MONOCHROME2",
      "PixelBandwidth": 2265.0,
      "PixelRepresentation": 0,
      "PixelSpacing": [2.5, 2.5],
      "PositionReferenceIndicator": "",
      "ProtocolName": "func_run-02_task-fam1back",
      "RepetitionTime": 1250.0,
      "Rows": 768,
      "SAR": 0.04941021401557,
      "SamplesPerPixel": 1,
      "ScanOptions": "FS",
      "ScanningSequence": "EP",
      "SequenceName": "*epfid2d1_96",
      "SequenceVariant": "SK",
      "SeriesDescription": "func_run-02_task-fam1back",
      "SeriesNumber": 18,
      "SeriesTime": "104234.575000",
      "SliceLocation": -52.766789531645,
      "SliceThickness": 2.5,
      "SmallestImagePixelValue": 0,
      "SoftwareVersions": "syngo MR E11",
      "SpacingBetweenSlices": 2.4999999199391,
      "SpecificCharacterSet": "ISO_IR 100",
      "StudyID": "2",
      "StudyTime": "102444.520000",
      "TransmitCoilName": "Body",
      "VariableFlipAngleFlag": "N",
      "WindowCenterWidthExplanation": "Algo1",
      "dBdt": 0.0},
    "slices": {}
  },
  "time": {
    "samples": {
      "AcquisitionNumber": [1, 2, 3, 4, 5, 6, 7, 8, 9, 10, 11, 12, 13, 14, 15, 16, 17, 18, 19, 20, 21, 22, 23, 24, 25, 26, 27, 28, 29, 30, 31, 32, 33, 34, 35, 36, 37, 38, 39, 40, 41, 42, 43, 44, 45, 46, 47, 48, 49, 50, 51, 52, 53, 54, 55, 56, 57, 58, 59, 60, 61, 62, 63, 64, 65, 66, 67, 68, 69, 70, 71, 72, 73, 74, 75, 76, 77, 78, 79, 80, 81, 82, 83, 84, 85, 86, 87, 88, 89, 90, 91, 92, 93, 94, 95, 96, 97, 98, 99, 100, 101, 102, 103, 104, 105, 106, 107, 108, 109, 110, 111, 112, 113, 114, 115, 116, 117, 118, 119, 120, 121, 122, 123, 124, 125, 126, 127, 128, 129, 130, 131, 132, 133, 134, 135, 136, 137, 138, 139, 140, 141, 142, 143, 144, 145, 146, 147, 148, 149, 150, 151, 152, 153, 154, 155, 156, 157, 158, 159, 160, 161, 162, 163, 164, 165, 166, 167, 168, 169, 170, 171, 172, 173, 174, 175, 176, 177, 178, 179, 180, 181, 182, 183, 184, 185, 186, 187, 188, 189, 190, 191, 192, 193, 194, 195, 196, 197, 198, 199, 200, 201, 202, 203, 204, 205, 206, 207, 208, 209, 210, 211, 212, 213, 214, 215, 216, 217, 218, 219, 220, 221, 222, 223, 224, 225, 226, 227, 228, 229, 230, 231, 232, 233, 234, 235, 236, 237, 238, 239, 240, 241, 242, 243, 244, 245, 246, 247, 248, 249, 250, 251, 252, 253, 254, 255, 256, 257, 258, 259, 260, 261, 262, 263, 264, 265, 266, 267, 268, 269, 270, 271, 272, 273, 274, 275, 276, 277, 278, 279, 280],
      "AcquisitionTime": ["104233.387500", "104234.637500", "104235.887500", "104237.137500", "104238.387500", "104239.637500", "104240.887500", "104242.137500", "104243.387500", "104244.637500", "104245.887500", "104247.137500", "104248.387500", "104249.637500", "104250.887500", "104252.137500", "104253.387500", "104254.637500", "104255.887500", "104257.137500", "104258.387500", "104259.637500", "104300.887500", "104302.137500", "104303.387500", "104304.637500", "104305.887500", "104307.137500", "104308.387500", "104309.637500", "104310.887500", "104312.137500", "104313.387500", "104314.637500", "104315.887500", "104317.137500", "104318.387500", "104319.637500", "104320.887500", "104322.137500", "104323.387500", "104324.637500", "104325.887500", "104327.137500", "104328.387500", "104329.637500", "104330.887500", "104332.137500", "104333.387500", "104334.637500", "104335.887500", "104337.137500", "104338.387500", "104339.637500", "104340.887500", "104342.137500", "104343.387500", "104344.637500", "104345.887500", "104347.137500", "104348.387500", "104349.637500", "104350.887500", "104352.137500", "104353.387500", "104354.637500", "104355.887500", "104357.137500", "104358.387500", "104359.637500", "104400.887500", "104402.137500", "104403.387500", "104404.637500", "104405.887500", "104407.137500", "104408.387500", "104409.637500", "104410.887500", "104412.137500", "104413.387500", "104414.637500", "104415.887500", "104417.137500", "104418.387500", "104419.637500", "104420.887500", "104422.137500", "104423.387500", "104424.637500", "104425.887500", "104427.137500", "104428.387500", "104429.637500", "104430.887500", "104432.137500", "104433.387500", "104434.637500", "104435.887500", "104437.137500", "104438.387500", "104439.637500", "104440.887500", "104442.137500", "104443.387500", "104444.637500", "104445.887500", "104447.137500", "104448.387500", "104449.637500", "104450.887500", "104452.137500", "104453.387500", "104454.637500", "104455.887500", "104457.137500", "104458.387500", "104459.637500", "104500.887500", "104502.137500", "104503.387500", "104504.637500", "104505.887500", "104507.137500", "104508.387500", "104509.637500", "104510.887500", "104512.137500", "104513.387500", "104514.637500", "104515.887500", "104517.137500", "104518.387500", "104519.637500", "104520.887500", "104522.137500", "104523.387500", "104524.637500", "104525.887500", "104527.137500", "104528.387500", "104529.637500", "104530.887500", "104532.137500", "104533.387500", "104534.637500", "104535.887500", "104537.137500", "104538.387500", "104539.637500", "104540.887500", "104542.137500", "104543.387500", "104544.637500", "104545.887500", "104547.137500", "104548.387500", "104549.637500", "104550.887500", "104552.137500", "104553.387500", "104554.637500", "104555.887500", "104557.137500", "104558.387500", "104559.637500", "104600.887500", "104602.137500", "104603.387500", "104604.637500", "104605.887500", "104607.137500", "104608.387500", "104609.637500", "104610.887500", "104612.137500", "104613.387500", "104614.637500", "104615.887500", "104617.137500", "104618.387500", "104619.637500", "104620.887500", "104622.137500", "104623.387500", "104624.637500", "104625.887500", "104627.137500", "104628.387500", "104629.637500", "104630.887500", "104632.137500", "104633.387500", "104634.637500", "104635.887500", "104637.137500", "104638.387500", "104639.637500", "104640.887500", "104642.137500", "104643.387500", "104644.637500", "104645.887500", "104647.137500", "104648.387500", "104649.637500", "104650.887500", "104652.137500", "104653.387500", "104654.637500", "104655.887500", "104657.137500", "104658.387500", "104659.637500", "104700.887500", "104702.137500", "104703.387500", "104704.637500", "104705.887500", "104707.137500", "104708.387500", "104709.637500", "104710.887500", "104712.137500", "104713.387500", "104714.637500", "104715.887500", "104717.137500", "104718.387500", "104719.637500", "104720.887500", "104722.137500", "104723.387500", "104724.637500", "104725.887500", "104727.137500", "104728.387500", "104729.637500", "104730.887500", "104732.137500", "104733.387500", "104734.637500", "104735.887500", "104737.137500", "104738.387500", "104739.637500", "104740.887500", "104742.137500", "104743.387500", "104744.637500", "104745.887500", "104747.137500", "104748.387500", "104749.637500", "104750.887500", "104752.137500", "104753.387500", "104754.637500", "104755.887500", "104757.137500", "104758.387500", "104759.637500", "104800.887500", "104802.137500", "104803.387500", "104804.637500", "104805.887500", "104807.137500", "104808.387500", "104809.637500", "104810.887500", "104812.137500", "104813.387500", "104814.637500", "104815.887500", "104817.137500", "104818.387500", "104819.637500", "104820.887500", "104822.137500"],
      "ContentTime": ["104234.579000", "104235.644000", "104236.901000", "104238.109000", "104239.393000", "104240.627000", "104241.879000", "104243.119000", "104244.374000", "104245.596000", "104246.859000", "104248.142000", "104249.379000", "104250.611000", "104251.859000", "104253.109000", "104254.336000", "104255.604000", "104256.862000", "104258.131000", "104259.356000", "104300.617000", "104301.870000", "104303.102000", "104304.353000", "104305.613000", "104306.838000", "104308.083000", "104309.376000", "104310.603000", "104311.850000", "104313.129000", "104314.404000", "104315.644000", "104316.887000", "104318.135000", "104319.377000", "104320.612000", "104321.875000", "104323.123000", "104324.350000", "104325.598000", "104326.830000", "104328.113000", "104329.362000", "104330.612000", "104331.851000", "104333.111000", "104334.358000", "104335.683000", "104336.883000", "104338.099000", "104339.351000", "104340.597000", "104341.853000", "104343.076000", "104344.341000", "104345.586000", "104346.856000", "104348.086000", "104349.342000", "104350.592000", "104351.848000", "104353.129000", "104354.351000", "104355.647000", "104356.848000", "104358.120000", "104359.388000", "104400.626000", "104401.852000", "104403.093000", "104404.341000", "104405.587000", "104406.896000", "104408.107000", "104409.363000", "104410.600000", "104411.864000", "104413.121000", "104414.409000", "104415.596000", "104416.860000", "104418.090000", "104419.400000", "104420.613000", "104421.897000", "104423.109000", "104424.389000", "104425.631000", "104426.836000", "104428.098000", "104429.349000", "104430.599000", "104431.848000", "104433.120000", "104434.360000", "104435.611000", "104436.884000", "104438.105000", "104439.373000", "104440.612000", "104441.882000", "104443.136000", "104444.394000", "104445.616000", "104446.869000", "104448.113000", "104449.369000", "104450.634000", "104451.870000", "104453.143000", "104454.374000", "104455.629000", "104456.862000", "104458.129000", "104459.404000", "104500.645000", "104501.905000", "104503.119000", "104504.384000", "104505.624000", "104506.872000", "104508.131000", "104509.373000", "104510.598000", "104511.894000", "104513.109000", "104514.355000", "104515.615000", "104516.867000", "104518.111000", "104519.391000", "104520.630000", "104521.862000", "104523.098000", "104524.334000", "104525.609000", "104526.863000", "104528.126000", "104529.344000", "104530.613000", "104531.855000", "104533.107000", "104534.355000", "104535.642000", "104536.868000", "104538.089000", "104539.345000", "104540.613000", "104541.851000", "104543.123000", "104544.347000", "104545.618000", "104546.868000", "104548.110000", "104549.358000", "104550.701000", "104551.882000", "104553.116000", "104554.388000", "104555.604000", "104556.882000", "104558.108000", "104559.370000", "104600.611000", "104601.899000", "104603.102000", "104604.361000", "104605.613000", "104606.864000", "104608.147000", "104609.365000", "104610.604000", "104611.832000", "104613.114000", "104614.379000", "104615.643000", "104616.873000", "104618.111000", "104619.379000", "104620.627000", "104621.987000", "104623.141000", "104624.382000", "104625.596000", "104626.869000", "104628.105000", "104629.335000", "104630.593000", "104631.903000", "104633.135000", "104634.338000", "104635.642000", "104636.860000", "104638.112000", "104639.392000", "104640.622000", "104641.855000", "104643.124000", "104644.358000", "104645.595000", "104646.859000", "104648.112000", "104649.365000", "104650.614000", "104651.892000", "104653.097000", "104654.336000", "104655.653000", "104656.875000", "104658.102000", "104659.363000", "104700.651000", "104701.914000", "104703.087000", "104704.361000", "104705.599000", "104706.900000", "104708.121000", "104709.358000", "104710.581000", "104711.861000", "104713.110000", "104714.350000", "104715.599000", "104716.886000", "104718.141000", "104719.386000", "104720.636000", "104721.882000", "104723.124000", "104724.349000", "104725.607000", "104726.870000", "104728.112000", "104729.331000", "104730.598000", "104731.850000", "104733.134000", "104734.354000", "104735.608000", "104736.886000", "104738.104000", "104739.359000", "104740.620000", "104741.868000", "104743.115000", "104744.400000", "104745.614000", "104746.862000", "104748.113000", "104749.340000", "104750.579000", "104751.866000", "104753.086000", "104754.365000", "104755.613000", "104756.854000", "104758.123000", "104759.355000", "104800.604000", "104801.859000", "104803.119000", "104804.340000", "104805.609000", "104806.932000", "104808.107000", "104809.342000", "104810.609000", "104811.866000", "104813.095000", "104814.363000", "104815.657000", "104816.846000", "104818.118000", "104819.356000", "104820.645000", "104821.829000", "104823.171000"],
      "InstanceCreationTime": ["104234.579000", "104235.644000", "104236.901000", "104238.109000", "104239.393000", "104240.627000", "104241.879000", "104243.119000", "104244.374000", "104245.596000", "104246.859000", "104248.142000", "104249.379000", "104250.611000", "104251.859000", "104253.109000", "104254.336000", "104255.604000", "104256.862000", "104258.131000", "104259.356000", "104300.617000", "104301.870000", "104303.102000", "104304.353000", "104305.613000", "104306.838000", "104308.083000", "104309.376000", "104310.603000", "104311.850000", "104313.129000", "104314.404000", "104315.644000", "104316.887000", "104318.135000", "104319.377000", "104320.612000", "104321.875000", "104323.123000", "104324.350000", "104325.598000", "104326.830000", "104328.113000", "104329.362000", "104330.612000", "104331.851000", "104333.111000", "104334.358000", "104335.683000", "104336.883000", "104338.099000", "104339.351000", "104340.597000", "104341.853000", "104343.076000", "104344.341000", "104345.586000", "104346.856000", "104348.086000", "104349.342000", "104350.592000", "104351.848000", "104353.129000", "104354.351000", "104355.647000", "104356.848000", "104358.120000", "104359.388000", "104400.626000", "104401.852000", "104403.093000", "104404.341000", "104405.587000", "104406.896000", "104408.107000", "104409.363000", "104410.600000", "104411.864000", "104413.121000", "104414.409000", "104415.596000", "104416.860000", "104418.090000", "104419.400000", "104420.613000", "104421.897000", "104423.109000", "104424.389000", "104425.631000", "104426.836000", "104428.098000", "104429.349000", "104430.599000", "104431.848000", "104433.120000", "104434.360000", "104435.611000", "104436.884000", "104438.105000", "104439.373000", "104440.612000", "104441.882000", "104443.136000", "104444.394000", "104445.616000", "104446.869000", "104448.113000", "104449.369000", "104450.634000", "104451.870000", "104453.143000", "104454.374000", "104455.629000", "104456.862000", "104458.129000", "104459.404000", "104500.645000", "104501.905000", "104503.119000", "104504.384000", "104505.624000", "104506.872000", "104508.131000", "104509.373000", "104510.598000", "104511.894000", "104513.109000", "104514.355000", "104515.615000", "104516.867000", "104518.111000", "104519.391000", "104520.630000", "104521.862000", "104523.098000", "104524.334000", "104525.609000", "104526.863000", "104528.126000", "104529.344000", "104530.613000", "104531.855000", "104533.107000", "104534.355000", "104535.642000", "104536.868000", "104538.089000", "104539.345000", "104540.613000", "104541.851000", "104543.123000", "104544.347000", "104545.618000", "104546.868000", "104548.110000", "104549.358000", "104550.701000", "104551.882000", "104553.116000", "104554.388000", "104555.604000", "104556.882000", "104558.108000", "104559.370000", "104600.611000", "104601.899000", "104603.102000", "104604.361000", "104605.613000", "104606.864000", "104608.147000", "104609.365000", "104610.604000", "104611.832000", "104613.114000", "104614.379000", "104615.643000", "104616.873000", "104618.111000", "104619.379000", "104620.627000", "104621.987000", "104623.141000", "104624.382000", "104625.596000", "104626.869000", "104628.105000", "104629.335000", "104630.593000", "104631.903000", "104633.135000", "104634.338000", "104635.642000", "104636.860000", "104638.112000", "104639.392000", "104640.622000", "104641.855000", "104643.124000", "104644.358000", "104645.595000", "104646.859000", "104648.112000", "104649.365000", "104650.614000", "104651.892000", "104653.097000", "104654.336000", "104655.653000", "104656.875000", "104658.102000", "104659.363000", "104700.651000", "104701.914000", "104703.087000", "104704.361000", "104705.599000", "104706.900000", "104708.121000", "104709.358000", "104710.581000", "104711.861000", "104713.110000", "104714.350000", "104715.599000", "104716.886000", "104718.141000", "104719.386000", "104720.636000", "104721.882000", "104723.124000", "104724.349000", "104725.607000", "104726.870000", "104728.112000", "104729.331000", "104730.598000", "104731.850000", "104733.134000", "104734.354000", "104735.608000", "104736.886000", "104738.104000", "104739.359000", "104740.620000", "104741.868000", "104743.115000", "104744.400000", "104745.614000", "104746.862000", "104748.113000", "104749.340000", "104750.579000", "104751.866000", "104753.086000", "104754.365000", "104755.613000", "104756.854000", "104758.123000", "104759.355000", "104800.604000", "104801.859000", "104803.119000", "104804.340000", "104805.609000", "104806.932000", "104808.107000", "104809.342000", "104810.609000", "104811.866000", "104813.095000", "104814.363000", "104815.657000", "104816.846000", "104818.118000", "104819.356000", "104820.645000", "104821.829000", "104823.171000"],
      "InstanceNumber": [1, 2, 3, 4, 5, 6, 7, 8, 9, 10, 11, 12, 13, 14, 15, 16, 17, 18, 19, 20, 21, 22, 23, 24, 25, 26, 27, 28, 29, 30, 31, 32, 33, 34, 35, 36, 37, 38, 39, 40, 41, 42, 43, 44, 45, 46, 47, 48, 49, 50, 51, 52, 53, 54, 55, 56, 57, 58, 59, 60, 61, 62, 63, 64, 65, 66, 67, 68, 69, 70, 71, 72, 73, 74, 75, 76, 77, 78, 79, 80, 81, 82, 83, 84, 85, 86, 87, 88, 89, 90, 91, 92, 93, 94, 95, 96, 97, 98, 99, 100, 101, 102, 103, 104, 105, 106, 107, 108, 109, 110, 111, 112, 113, 114, 115, 116, 117, 118, 119, 120, 121, 122, 123, 124, 125, 126, 127, 128, 129, 130, 131, 132, 133, 134, 135, 136, 137, 138, 139, 140, 141, 142, 143, 144, 145, 146, 147, 148, 149, 150, 151, 152, 153, 154, 155, 156, 157, 158, 159, 160, 161, 162, 163, 164, 165, 166, 167, 168, 169, 170, 171, 172, 173, 174, 175, 176, 177, 178, 179, 180, 181, 182, 183, 184, 185, 186, 187, 188, 189, 190, 191, 192, 193, 194, 195, 196, 197, 198, 199, 200, 201, 202, 203, 204, 205, 206, 207, 208, 209, 210, 211, 212, 213, 214, 215, 216, 217, 218, 219, 220, 221, 222, 223, 224, 225, 226, 227, 228, 229, 230, 231, 232, 233, 234, 235, 236, 237, 238, 239, 240, 241, 242, 243, 244, 245, 246, 247, 248, 249, 250, 251, 252, 253, 254, 255, 256, 257, 258, 259, 260, 261, 262, 263, 264, 265, 266, 267, 268, 269, 270, 271, 272, 273, 274, 275, 276, 277, 278, 279, 280],
      "LargestImagePixelValue": [1007, 1138, 1080, 1185, 1203, 1095, 968, 1042, 981, 1093, 1055, 1105, 1121, 984, 1117, 908, 1088, 1000, 1058, 1120, 1089, 1087, 900, 1028, 893, 1082, 1021, 899, 1071, 996, 1060, 1116, 917, 1089, 1026, 988, 1128, 940, 1058, 1073, 1031, 1109, 994, 1081, 1043, 1096, 1072, 1077, 1016, 1042, 892, 1059, 939, 1089, 924, 1090, 926, 1074, 1022, 1105, 1088, 1074, 1075, 1059, 1095, 925, 1070, 908, 1089, 1095, 958, 1081, 930, 1112, 941, 1105, 1019, 1105, 1085, 935, 1058, 908, 1106, 922, 1101, 988, 1165, 1067, 1000, 1056, 1040, 1068, 937, 1105, 940, 1129, 926, 1136, 898, 1105, 959, 1115, 1073, 1012, 1072, 959, 1108, 934, 1127, 932, 1144, 931, 1139, 941, 1122, 972, 1117, 998, 1122, 995, 1129, 1064, 1201, 1055, 1159, 1085, 1139, 1091, 1125, 1036, 926, 1142, 940, 1038, 1057, 934, 1137, 1025, 1133, 967, 1069, 913, 1100, 913, 1102, 889, 1122, 905, 1117, 972, 1100, 1039, 1035, 1019, 910, 1135, 921, 1124, 1031, 1052, 1082, 920, 1087, 920, 1123, 930, 1113, 917, 1109, 1031, 1072, 1060, 911, 1099, 909, 1114, 910, 1114, 912, 1107, 910, 1123, 1013, 1172, 1048, 965, 1050, 913, 1133, 952, 1123, 959, 1109, 904, 1100, 904, 1123, 897, 1137, 933, 974, 1105, 976, 1114, 1060, 1130, 1041, 946, 1091, 932, 1142, 949, 1163, 1119, 966, 1112, 965, 1071, 1103, 1136, 1086, 1155, 1053, 1114, 905, 1102, 988, 1129, 1054, 965, 1081, 940, 1149, 1066, 1016, 974, 1105, 1106, 1080, 1114, 1015, 953, 1080, 1016, 942, 1085, 1027, 936, 1180, 1101, 908, 1065, 1059, 909, 1169, 1053, 943, 1113, 1040, 944, 1109, 977, 1094, 1074, 1078, 1013, 926, 1127, 980, 1152, 1037, 920, 1112, 902, 1125, 1041, 937, 1105, 950, 1122],
      "WindowCenter": [402.0, 403.0, 401.0, 401.0, 400.0, 399.0, 397.0, 398.0, 398.0, 400.0, 400.0, 400.0, 400.0, 398.0, 400.0, 398.0, 400.0, 399.0, 400.0, 400.0, 399.0, 399.0, 397.0, 399.0, 399.0, 401.0, 400.0, 399.0, 401.0, 400.0, 400.0, 401.0, 399.0, 400.0, 399.0, 399.0, 400.0, 398.0, 399.0, 399.0, 399.0, 399.0, 399.0, 399.0, 399.0, 399.0, 399.0, 399.0, 399.0, 399.0, 398.0, 400.0, 399.0, 401.0, 399.0, 401.0, 399.0, 400.0, 400.0, 401.0, 401.0, 401.0, 400.0, 400.0, 401.0, 399.0, 400.0, 399.0, 401.0, 401.0, 399.0, 401.0, 399.0, 400.0, 398.0, 400.0, 399.0, 399.0, 399.0, 398.0, 399.0, 398.0, 400.0, 398.0, 400.0, 399.0, 401.0, 400.0, 399.0, 399.0, 399.0, 399.0, 398.0, 400.0, 398.0, 401.0, 399.0, 401.0, 398.0, 400.0, 398.0, 400.0, 400.0, 400.0, 401.0, 400.0, 401.0, 399.0, 401.0, 399.0, 401.0, 399.0, 401.0, 399.0, 401.0, 399.0, 401.0, 400.0, 400.0, 399.0, 400.0, 399.0, 401.0, 400.0, 401.0, 400.0, 400.0, 400.0, 400.0, 400.0, 399.0, 402.0, 401.0, 402.0, 402.0, 400.0, 401.0, 399.0, 399.0, 396.0, 397.0, 396.0, 399.0, 396.0, 399.0, 397.0, 400.0, 398.0, 401.0, 399.0, 400.0, 400.0, 400.0, 400.0, 400.0, 402.0, 400.0, 401.0, 400.0, 401.0, 401.0, 399.0, 400.0, 399.0, 401.0, 399.0, 401.0, 399.0, 401.0, 401.0, 402.0, 401.0, 400.0, 401.0, 399.0, 401.0, 399.0, 400.0, 398.0, 400.0, 399.0, 401.0, 400.0, 402.0, 400.0, 399.0, 400.0, 399.0, 401.0, 400.0, 401.0, 399.0, 399.0, 397.0, 399.0, 398.0, 400.0, 398.0, 401.0, 399.0, 400.0, 401.0, 400.0, 402.0, 400.0, 401.0, 400.0, 399.0, 401.0, 400.0, 402.0, 399.0, 401.0, 401.0, 400.0, 401.0, 400.0, 402.0, 402.0, 401.0, 400.0, 400.0, 399.0, 398.0, 396.0, 398.0, 397.0, 399.0, 399.0, 398.0, 399.0, 398.0, 401.0, 401.0, 401.0, 401.0, 402.0, 402.0, 400.0, 400.0, 398.0, 398.0, 399.0, 399.0, 398.0, 400.0, 400.0, 399.0, 401.0, 401.0, 399.0, 401.0, 402.0, 400.0, 402.0, 401.0, 400.0, 401.0, 401.0, 400.0, 402.0, 400.0, 401.0, 400.0, 400.0, 400.0, 399.0, 402.0, 400.0, 402.0, 401.0, 399.0, 401.0, 399.0, 401.0, 400.0, 399.0, 401.0, 399.0, 401.0],
      "WindowWidth": [852.0, 853.0, 850.0, 849.0, 847.0, 844.0, 842.0, 843.0, 844.0, 846.0, 847.0, 847.0, 847.0, 844.0, 847.0, 844.0, 847.0, 846.0, 846.0, 847.0, 846.0, 844.0, 842.0, 845.0, 845.0, 848.0, 848.0, 846.0, 849.0, 848.0, 848.0, 849.0, 845.0, 847.0, 845.0, 845.0, 847.0, 844.0, 846.0, 845.0, 845.0, 846.0, 845.0, 845.0, 845.0, 844.0, 845.0, 845.0, 845.0, 846.0, 845.0, 848.0, 846.0, 848.0, 845.0, 848.0, 845.0, 847.0, 846.0, 848.0, 849.0, 849.0, 848.0, 848.0, 848.0, 845.0, 847.0, 845.0, 848.0, 848.0, 846.0, 848.0, 846.0, 847.0, 845.0, 846.0, 844.0, 845.0, 845.0, 844.0, 846.0, 843.0, 847.0, 843.0, 847.0, 845.0, 848.0, 847.0, 845.0, 845.0, 844.0, 844.0, 843.0, 846.0, 845.0, 848.0, 845.0, 848.0, 844.0, 846.0, 844.0, 847.0, 847.0, 847.0, 848.0, 847.0, 849.0, 846.0, 848.0, 846.0, 848.0, 846.0, 848.0, 846.0, 848.0, 845.0, 848.0, 847.0, 847.0, 845.0, 847.0, 846.0, 849.0, 847.0, 849.0, 847.0, 847.0, 847.0, 846.0, 846.0, 845.0, 850.0, 850.0, 851.0, 851.0, 848.0, 849.0, 845.0, 844.0, 840.0, 842.0, 840.0, 844.0, 841.0, 845.0, 841.0, 846.0, 844.0, 848.0, 845.0, 847.0, 847.0, 846.0, 848.0, 847.0, 850.0, 847.0, 850.0, 848.0, 848.0, 848.0, 845.0, 847.0, 846.0, 848.0, 846.0, 848.0, 846.0, 848.0, 849.0, 850.0, 850.0, 847.0, 849.0, 846.0, 848.0, 845.0, 847.0, 844.0, 847.0, 845.0, 848.0, 848.0, 850.0, 848.0, 846.0, 848.0, 846.0, 849.0, 847.0, 848.0, 845.0, 846.0, 843.0, 846.0, 843.0, 847.0, 844.0, 848.0, 845.0, 846.0, 849.0, 848.0, 850.0, 848.0, 848.0, 847.0, 846.0, 849.0, 847.0, 851.0, 846.0, 848.0, 848.0, 846.0, 849.0, 848.0, 851.0, 850.0, 849.0, 846.0, 847.0, 845.0, 844.0, 840.0, 844.0, 842.0, 844.0, 844.0, 843.0, 846.0, 844.0, 849.0, 849.0, 850.0, 850.0, 851.0, 850.0, 847.0, 846.0, 844.0, 843.0, 844.0, 845.0, 844.0, 847.0, 846.0, 845.0, 848.0, 848.0, 845.0, 849.0, 850.0, 848.0, 851.0, 849.0, 847.0, 850.0, 849.0, 848.0, 850.0, 847.0, 848.0, 847.0, 847.0, 847.0, 846.0, 849.0, 848.0, 850.0, 849.0, 846.0, 848.0, 845.0, 848.0, 847.0, 846.0, 848.0, 846.0, 848.0]
    },
    "slices": {}
  }
}