{
  "AcquisitionMatrixPE": 96,
  "AcquisitionNumber": 1,
  "AcquisitionTime": "10:14:45.045000",
  "BandwidthPerPixelPhaseEncode": 18.939,
  "BaseResolution": 96,
  "BodyPartExamined": "BRAIN",
  "ConsistencyInfo": "N4_VE11C_LATEST_20160120",
  "ConversionSoftware": "dcm2niix",
  "ConversionSoftwareVersion": "v1.0.20170923 (OpenJPEG build) GCC6.3.0",
  "DerivedVendorReportedEchoSpacing": 0.000550011,
  "DeviceSerialNumber": "66112",
  "DwellTime": 2.3e-06,
  "EchoTime": 0.033,
  "EchoTrainLength": 96,
  "EffectiveEchoSpacing": 0.000550011,
  "FlipAngle": 64,
  "ImageType": [
    "ORIGINAL",
    "PRIMARY",
    "FMRI",
    "NONE",
    "ND",
    "NORM",
    "MOSAIC"
],
  "InstitutionAddress": "Maynard_3_Hanover_NH_US_03755",
  "InstitutionName": "Dartmouth_College_-_PBS",
  "MagneticFieldStrength": 3,
  "Manufacturer": "Siemens",
  "ManufacturersModelName": "Prisma",
  "Modality": "MR",
  "MultibandAccelerationFactor": 4,
  "PartialFourier": 1,
  "PercentPhaseFOV": 100,
  "PhaseEncodingDirection": "j-",
  "PhaseEncodingSteps": 96,
  "PhaseResolution": 1,
  "ProcedureStepDescription": "Gobbini_Matteo_1017_famface-angles",
  "ProtocolName": "func_run-03_task-str1back",
  "PulseSequenceDetails": "%SiemensSeq%_ep2d_bold",
  "ReceiveCoilActiveElements": "HEA;HEP",
  "ReceiveCoilName": "Head_32",
  "ReconMatrixPE": 96,
  "RepetitionTime": 1.25,
  "ScanOptions": "FS",
  "ScanningSequence": "EP",
  "SequenceName": "_epfid2d1_96",
  "SequenceVariant": "SK",
  "SeriesDescription": "func_run-03_task-str1back",
  "SliceTiming": [0.8775, 0, 0.615, 0.0875, 0.7025, 0.175, 0.79, 0.35, 0.965, 0.44, 1.0525, 0.5275, 1.1425, 0.2625, 0.8775, 0, 0.615, 0.0875, 0.7025, 0.175, 0.79, 0.35, 0.965, 0.44, 1.0525, 0.5275, 1.1425, 0.2625, 0.8775, 0, 0.615, 0.0875, 0.7025, 0.175, 0.79, 0.35, 0.965, 0.44, 1.0525, 0.5275, 1.1425, 0.2625, 0.8775, 0, 0.615, 0.0875, 0.7025, 0.175, 0.79, 0.35, 0.965, 0.44, 1.0525, 0.5275, 1.1425, 0.2625],
  "SoftwareVersions": "syngo_MR_E11",
  "StationName": "AWP66112",
  "TaskName": "str1back",
  "TotalReadoutTime": 0.0522511,
  "dcmmeta_affine": [
    [-2.4994869232177734, 0.049738310277462006, -0.009543189778923988, 121.35560607910156],
    [0.049619343131780624, 2.499323844909668, 0.03030814416706562, -108.40351867675781],
    [-0.010143598541617393, -0.03011251427233219, 2.499798059463501, -81.13140869140625],
    [0.0, 0.0, 0.0, 1.0]
],
  "dcmmeta_reorient_transform": [
    [0.0, -1.0, 0.0, 95.0],
    [1.0, 0.0, 0.0, 0.0],
    [0.0, 0.0, 1.0, 0.0],
    [0.0, 0.0, 0.0, 1.0]
],
  "dcmmeta_shape": [96, 96, 56, 280],
  "dcmmeta_slice_dim": 2,
  "dcmmeta_version": 0.6,
  "global": {
    "const": {
      "AccessionNumber": "A000631",
      "AcquisitionMatrix": [96, 0, 0, 96],
      "AngioFlag": "N",
      "BitsAllocated": 16,
      "BitsStored": 12,
      "BodyPartExamined": "BRAIN",
      "Columns": 768,
      "EchoNumbers": 1,
      "EchoTime": 33.0,
      "EchoTrainLength": 96,
      "FlipAngle": 64.0,
      "HighBit": 11,
      "ImageOrientationPatient": [0.99979478118637, -0.01984773785, -0.004057439431, 0.01989532401804, 0.99972951037989, 0.01204500551315],
      "ImagePositionPatient": [-982.62043655837, -952.13292706662, -90.701655662992],
      "ImageType": [
        "ORIGINAL",
        "PRIMARY",
        "FMRI",
        "NONE",
        "ND",
        "NORM",
        "MOSAIC"
],
      "ImagedNucleus": "1H",
      "ImagingFrequency": 123.252362,
      "InPlanePhaseEncodingDirection": "COL",
      "MRAcquisitionType": "2D",
      "MagneticFieldStrength": 3.0,
      "Manufacturer": "SIEMENS",
      "ManufacturerModelName": "Prisma",
      "Modality": "MR",
      "NumberOfAverages": 1.0,
      "NumberOfPhaseEncodingSteps": 96,
      "PercentPhaseFieldOfView": 100.0,
      "PercentSampling": 100.0,
      "PerformedProcedureStepStartTime": "094845.448000",
      "PhotometricInterpretation": "MONOCHROME2",
      "PixelBandwidth": 2265.0,
      "PixelRepresentation": 0,
      "PixelSpacing": [2.5, 2.5],
      "PositionReferenceIndicator": "",
      "ProtocolName": "func_run-03_task-str1back",
      "RepetitionTime": 1250.0,
      "Rows": 768,
      "SAR": 0.05917426781538,
      "SamplesPerPixel": 1,
      "ScanOptions": "FS",
      "ScanningSequence": "EP",
      "SequenceName": "*epfid2d1_96",
      "SequenceVariant": "SK",
      "SeriesDescription": "func_run-03_task-str1back",
      "SeriesNumber": 22,
      "SeriesTime": "101446.873000",
      "SliceLocation": -82.902309543486,
      "SliceThickness": 2.5,
      "SmallestImagePixelValue": 0,
      "SoftwareVersions": "syngo MR E11",
      "SpacingBetweenSlices": 2.5000000379284,
      "SpecificCharacterSet": "ISO_IR 100",
      "StudyID": "2",
      "StudyTime": "094845.373000",
      "TransmitCoilName": "Body",
      "VariableFlipAngleFlag": "N",
      "WindowCenterWidthExplanation": "Algo1",
      "dBdt": 0.0},
    "slices": {}
  },
  "time": {
    "samples": {
      "AcquisitionNumber": [1, 2, 3, 4, 5, 6, 7, 8, 9, 10, 11, 12, 13, 14, 15, 16, 17, 18, 19, 20, 21, 22, 23, 24, 25, 26, 27, 28, 29, 30, 31, 32, 33, 34, 35, 36, 37, 38, 39, 40, 41, 42, 43, 44, 45, 46, 47, 48, 49, 50, 51, 52, 53, 54, 55, 56, 57, 58, 59, 60, 61, 62, 63, 64, 65, 66, 67, 68, 69, 70, 71, 72, 73, 74, 75, 76, 77, 78, 79, 80, 81, 82, 83, 84, 85, 86, 87, 88, 89, 90, 91, 92, 93, 94, 95, 96, 97, 98, 99, 100, 101, 102, 103, 104, 105, 106, 107, 108, 109, 110, 111, 112, 113, 114, 115, 116, 117, 118, 119, 120, 121, 122, 123, 124, 125, 126, 127, 128, 129, 130, 131, 132, 133, 134, 135, 136, 137, 138, 139, 140, 141, 142, 143, 144, 145, 146, 147, 148, 149, 150, 151, 152, 153, 154, 155, 156, 157, 158, 159, 160, 161, 162, 163, 164, 165, 166, 167, 168, 169, 170, 171, 172, 173, 174, 175, 176, 177, 178, 179, 180, 181, 182, 183, 184, 185, 186, 187, 188, 189, 190, 191, 192, 193, 194, 195, 196, 197, 198, 199, 200, 201, 202, 203, 204, 205, 206, 207, 208, 209, 210, 211, 212, 213, 214, 215, 216, 217, 218, 219, 220, 221, 222, 223, 224, 225, 226, 227, 228, 229, 230, 231, 232, 233, 234, 235, 236, 237, 238, 239, 240, 241, 242, 243, 244, 245, 246, 247, 248, 249, 250, 251, 252, 253, 254, 255, 256, 257, 258, 259, 260, 261, 262, 263, 264, 265, 266, 267, 268, 269, 270, 271, 272, 273, 274, 275, 276, 277, 278, 279, 280],
      "AcquisitionTime": ["101445.045000", "101446.295000", "101447.545000", "101448.795000", "101450.045000", "101451.295000", "101452.545000", "101453.795000", "101455.045000", "101456.295000", "101457.545000", "101458.795000", "101500.045000", "101501.295000", "101502.545000", "101503.795000", "101505.045000", "101506.295000", "101507.545000", "101508.795000", "101510.045000", "101511.295000", "101512.545000", "101513.795000", "101515.045000", "101516.295000", "101517.545000", "101518.795000", "101520.045000", "101521.295000", "101522.545000", "101523.795000", "101525.045000", "101526.295000", "101527.545000", "101528.795000", "101530.045000", "101531.295000", "101532.545000", "101533.795000", "101535.045000", "101536.295000", "101537.545000", "101538.795000", "101540.045000", "101541.295000", "101542.545000", "101543.795000", "101545.045000", "101546.295000", "101547.545000", "101548.795000", "101550.045000", "101551.295000", "101552.545000", "101553.795000", "101555.045000", "101556.295000", "101557.545000", "101558.795000", "101600.045000", "101601.295000", "101602.545000", "101603.795000", "101605.045000", "101606.295000", "101607.545000", "101608.795000", "101610.045000", "101611.295000", "101612.545000", "101613.795000", "101615.045000", "101616.295000", "101617.545000", "101618.795000", "101620.045000", "101621.295000", "101622.545000", "101623.795000", "101625.045000", "101626.295000", "101627.545000", "101628.795000", "101630.045000", "101631.295000", "101632.545000", "101633.795000", "101635.045000", "101636.295000", "101637.545000", "101638.795000", "101640.045000", "101641.295000", "101642.545000", "101643.795000", "101645.045000", "101646.295000", "101647.545000", "101648.795000", "101650.045000", "101651.295000", "101652.545000", "101653.795000", "101655.045000", "101656.295000", "101657.545000", "101658.795000", "101700.045000", "101701.295000", "101702.545000", "101703.795000", "101705.045000", "101706.295000", "101707.545000", "101708.795000", "101710.045000", "101711.295000", "101712.545000", "101713.795000", "101715.045000", "101716.295000", "101717.545000", "101718.795000", "101720.045000", "101721.295000", "101722.545000", "101723.795000", "101725.045000", "101726.295000", "101727.545000", "101728.795000", "101730.045000", "101731.295000", "101732.545000", "101733.795000", "101735.045000", "101736.295000", "101737.545000", "101738.795000", "101740.045000", "101741.295000", "101742.545000", "101743.795000", "101745.045000", "101746.295000", "101747.545000", "101748.795000", "101750.045000", "101751.295000", "101752.545000", "101753.795000", "101755.045000", "101756.295000", "101757.545000", "101758.795000", "101800.045000", "101801.295000", "101802.545000", "101803.795000", "101805.045000", "101806.295000", "101807.545000", "101808.795000", "101810.045000", "101811.295000", "101812.545000", "101813.795000", "101815.045000", "101816.295000", "101817.545000", "101818.795000", "101820.045000", "101821.295000", "101822.545000", "101823.795000", "101825.045000", "101826.295000", "101827.545000", "101828.795000", "101830.045000", "101831.295000", "101832.545000", "101833.795000", "101835.045000", "101836.295000", "101837.545000", "101838.795000", "101840.045000", "101841.295000", "101842.545000", "101843.795000", "101845.045000", "101846.295000", "101847.545000", "101848.795000", "101850.045000", "101851.295000", "101852.545000", "101853.795000", "101855.045000", "101856.295000", "101857.545000", "101858.795000", "101900.045000", "101901.295000", "101902.545000", "101903.795000", "101905.045000", "101906.295000", "101907.545000", "101908.795000", "101910.045000", "101911.295000", "101912.545000", "101913.795000", "101915.045000", "101916.295000", "101917.545000", "101918.795000", "101920.045000", "101921.295000", "101922.545000", "101923.795000", "101925.045000", "101926.295000", "101927.545000", "101928.795000", "101930.045000", "101931.295000", "101932.545000", "101933.795000", "101935.045000", "101936.295000", "101937.545000", "101938.795000", "101940.045000", "101941.295000", "101942.545000", "101943.795000", "101945.045000", "101946.295000", "101947.545000", "101948.795000", "101950.045000", "101951.295000", "101952.545000", "101953.795000", "101955.045000", "101956.295000", "101957.545000", "101958.795000", "102000.045000", "102001.295000", "102002.545000", "102003.795000", "102005.045000", "102006.295000", "102007.545000", "102008.795000", "102010.045000", "102011.295000", "102012.545000", "102013.795000", "102015.045000", "102016.295000", "102017.545000", "102018.795000", "102020.045000", "102021.295000", "102022.545000", "102023.795000", "102025.045000", "102026.295000", "102027.545000", "102028.795000", "102030.045000", "102031.295000", "102032.545000", "102033.795000"],
      "ContentTime": ["101446.877000", "101447.938000", "101449.165000", "101450.445000", "101451.685000", "101452.899000", "101454.176000", "101455.397000", "101456.719000", "101457.922000", "101459.213000", "101500.431000", "101501.701000", "101502.939000", "101504.189000", "101505.494000", "101506.708000", "101507.914000", "101509.158000", "101510.454000", "101511.713000", "101512.931000", "101514.166000", "101515.412000", "101516.652000", "101517.916000", "101519.178000", "101520.407000", "101521.702000", "101522.937000", "101524.188000", "101525.460000", "101526.714000", "101527.928000", "101529.149000", "101530.396000", "101531.676000", "101532.915000", "101534.150000", "101535.470000", "101536.709000", "101537.984000", "101539.197000", "101540.401000", "101541.667000", "101542.962000", "101544.208000", "101545.451000", "101546.672000", "101547.953000", "101549.157000", "101550.427000", "101551.674000", "101552.924000", "101554.228000", "101555.427000", "101556.655000", "101557.910000", "101559.213000", "101600.442000", "101601.657000", "101602.919000", "101604.174000", "101605.429000", "101606.667000", "101607.933000", "101609.174000", "101610.467000", "101611.765000", "101612.927000", "101614.215000", "101615.395000", "101616.665000", "101617.915000", "101619.183000", "101620.439000", "101621.682000", "101622.899000", "101624.193000", "101625.451000", "101626.705000", "101627.932000", "101629.110000", "101630.436000", "101631.705000", "101632.912000", "101634.176000", "101635.401000", "101636.668000", "101637.922000", "101639.162000", "101640.433000", "101641.657000", "101642.913000", "101644.181000", "101645.394000", "101646.704000", "101647.927000", "101649.168000", "101650.451000", "101651.681000", "101652.954000", "101654.171000", "101655.438000", "101656.671000", "101657.921000", "101659.197000", "101700.439000", "101701.702000", "101702.917000", "101704.204000", "101705.413000", "101706.639000", "101707.950000", "101709.189000", "101710.437000", "101711.664000", "101712.959000", "101714.143000", "101715.445000", "101716.671000", "101717.946000", "101719.170000", "101720.438000", "101721.690000", "101722.950000", "101724.220000", "101725.449000", "101726.693000", "101728.008000", "101729.160000", "101730.440000", "101731.706000", "101732.924000", "101734.214000", "101735.467000", "101736.688000", "101737.991000", "101739.157000", "101740.477000", "101741.680000", "101742.968000", "101744.186000", "101745.406000", "101746.661000", "101747.966000", "101749.206000", "101750.447000", "101751.687000", "101752.924000", "101754.203000", "101755.454000", "101756.687000", "101757.921000", "101759.185000", "101800.435000", "101801.715000", "101802.979000", "101804.179000", "101805.430000", "101806.746000", "101807.915000", "101809.172000", "101810.438000", "101811.701000", "101812.916000", "101814.192000", "101815.447000", "101816.728000", "101817.927000", "101819.167000", "101820.463000", "101821.775000", "101822.958000", "101824.225000", "101825.447000", "101826.656000", "101827.915000", "101829.181000", "101830.422000", "101831.675000", "101832.919000", "101834.180000", "101835.418000", "101836.659000", "101837.928000", "101839.171000", "101840.434000", "101841.679000", "101842.937000", "101844.171000", "101845.440000", "101846.661000", "101847.949000", "101849.187000", "101850.457000", "101851.712000", "101852.926000", "101854.183000", "101855.421000", "101856.700000", "101857.932000", "101859.200000", "101900.412000", "101901.637000", "101902.972000", "101904.207000", "101905.456000", "101906.715000", "101907.930000", "101909.158000", "101910.419000", "101911.672000", "101912.931000", "101914.189000", "101915.446000", "101916.662000", "101917.923000", "101919.197000", "101920.443000", "101921.705000", "101922.945000", "101924.154000", "101925.441000", "101926.718000", "101927.931000", "101929.185000", "101930.430000", "101931.690000", "101932.933000", "101934.191000", "101935.412000", "101936.641000", "101937.923000", "101939.179000", "101940.511000", "101941.690000", "101942.927000", "101944.155000", "101945.454000", "101946.679000", "101947.960000", "101949.175000", "101950.393000", "101951.664000", "101952.930000", "101954.152000", "101955.399000", "101956.686000", "101957.963000", "101959.197000", "102000.419000", "102001.671000", "102002.894000", "102004.195000", "102005.506000", "102006.682000", "102007.934000", "102009.188000", "102010.429000", "102011.690000", "102012.917000", "102014.154000", "102015.456000", "102016.743000", "102017.929000", "102019.203000", "102020.435000", "102021.703000", "102022.915000", "102024.154000", "102025.413000", "102026.662000", "102027.931000", "102029.179000", "102030.461000", "102031.730000", "102032.955000", "102034.204000", "102035.468000"],
      "InstanceCreationTime": ["101446.877000", "101447.938000", "101449.165000", "101450.445000", "101451.685000", "101452.899000", "101454.176000", "101455.397000", "101456.719000", "101457.922000", "101459.213000", "101500.431000", "101501.701000", "101502.939000", "101504.189000", "101505.494000", "101506.708000", "101507.914000", "101509.158000", "101510.454000", "101511.713000", "101512.931000", "101514.166000", "101515.412000", "101516.652000", "101517.916000", "101519.178000", "101520.407000", "101521.702000", "101522.937000", "101524.188000", "101525.460000", "101526.714000", "101527.928000", "101529.149000", "101530.396000", "101531.676000", "101532.915000", "101534.150000", "101535.470000", "101536.709000", "101537.984000", "101539.197000", "101540.401000", "101541.667000", "101542.962000", "101544.208000", "101545.451000", "101546.672000", "101547.953000", "101549.157000", "101550.427000", "101551.674000", "101552.924000", "101554.228000", "101555.427000", "101556.655000", "101557.910000", "101559.213000", "101600.442000", "101601.657000", "101602.919000", "101604.174000", "101605.429000", "101606.667000", "101607.933000", "101609.174000", "101610.467000", "101611.765000", "101612.927000", "101614.215000", "101615.395000", "101616.665000", "101617.915000", "101619.183000", "101620.439000", "101621.682000", "101622.899000", "101624.193000", "101625.451000", "101626.705000", "101627.932000", "101629.110000", "101630.436000", "101631.705000", "101632.912000", "101634.176000", "101635.401000", "101636.668000", "101637.922000", "101639.162000", "101640.433000", "101641.657000", "101642.913000", "101644.181000", "101645.394000", "101646.704000", "101647.927000", "101649.168000", "101650.451000", "101651.681000", "101652.954000", "101654.171000", "101655.438000", "101656.671000", "101657.921000", "101659.197000", "101700.439000", "101701.702000", "101702.917000", "101704.204000", "101705.413000", "101706.639000", "101707.950000", "101709.189000", "101710.437000", "101711.664000", "101712.959000", "101714.143000", "101715.445000", "101716.671000", "101717.946000", "101719.170000", "101720.438000", "101721.690000", "101722.950000", "101724.220000", "101725.449000", "101726.693000", "101728.008000", "101729.160000", "101730.440000", "101731.706000", "101732.924000", "101734.214000", "101735.467000", "101736.688000", "101737.991000", "101739.157000", "101740.477000", "101741.680000", "101742.968000", "101744.186000", "101745.406000", "101746.661000", "101747.966000", "101749.206000", "101750.447000", "101751.687000", "101752.924000", "101754.203000", "101755.454000", "101756.687000", "101757.921000", "101759.185000", "101800.435000", "101801.715000", "101802.979000", "101804.179000", "101805.430000", "101806.746000", "101807.915000", "101809.172000", "101810.438000", "101811.701000", "101812.916000", "101814.192000", "101815.447000", "101816.728000", "101817.927000", "101819.167000", "101820.463000", "101821.775000", "101822.958000", "101824.225000", "101825.447000", "101826.656000", "101827.915000", "101829.181000", "101830.422000", "101831.675000", "101832.919000", "101834.180000", "101835.418000", "101836.659000", "101837.928000", "101839.171000", "101840.434000", "101841.679000", "101842.937000", "101844.171000", "101845.440000", "101846.661000", "101847.949000", "101849.187000", "101850.457000", "101851.712000", "101852.926000", "101854.183000", "101855.421000", "101856.700000", "101857.932000", "101859.200000", "101900.412000", "101901.637000", "101902.972000", "101904.207000", "101905.456000", "101906.715000", "101907.930000", "101909.158000", "101910.419000", "101911.672000", "101912.931000", "101914.189000", "101915.446000", "101916.662000", "101917.923000", "101919.197000", "101920.443000", "101921.705000", "101922.945000", "101924.154000", "101925.441000", "101926.718000", "101927.931000", "101929.185000", "101930.430000", "101931.690000", "101932.933000", "101934.191000", "101935.412000", "101936.641000", "101937.923000", "101939.179000", "101940.511000", "101941.690000", "101942.927000", "101944.155000", "101945.454000", "101946.679000", "101947.960000", "101949.175000", "101950.393000", "101951.664000", "101952.930000", "101954.152000", "101955.399000", "101956.686000", "101957.963000", "101959.197000", "102000.419000", "102001.671000", "102002.894000", "102004.195000", "102005.506000", "102006.682000", "102007.934000", "102009.188000", "102010.429000", "102011.690000", "102012.917000", "102014.154000", "102015.456000", "102016.743000", "102017.929000", "102019.203000", "102020.435000", "102021.703000", "102022.915000", "102024.154000", "102025.413000", "102026.662000", "102027.931000", "102029.179000", "102030.461000", "102031.730000", "102032.955000", "102034.204000", "102035.468000"],
      "InstanceNumber": [1, 2, 3, 4, 5, 6, 7, 8, 9, 10, 11, 12, 13, 14, 15, 16, 17, 18, 19, 20, 21, 22, 23, 24, 25, 26, 27, 28, 29, 30, 31, 32, 33, 34, 35, 36, 37, 38, 39, 40, 41, 42, 43, 44, 45, 46, 47, 48, 49, 50, 51, 52, 53, 54, 55, 56, 57, 58, 59, 60, 61, 62, 63, 64, 65, 66, 67, 68, 69, 70, 71, 72, 73, 74, 75, 76, 77, 78, 79, 80, 81, 82, 83, 84, 85, 86, 87, 88, 89, 90, 91, 92, 93, 94, 95, 96, 97, 98, 99, 100, 101, 102, 103, 104, 105, 106, 107, 108, 109, 110, 111, 112, 113, 114, 115, 116, 117, 118, 119, 120, 121, 122, 123, 124, 125, 126, 127, 128, 129, 130, 131, 132, 133, 134, 135, 136, 137, 138, 139, 140, 141, 142, 143, 144, 145, 146, 147, 148, 149, 150, 151, 152, 153, 154, 155, 156, 157, 158, 159, 160, 161, 162, 163, 164, 165, 166, 167, 168, 169, 170, 171, 172, 173, 174, 175, 176, 177, 178, 179, 180, 181, 182, 183, 184, 185, 186, 187, 188, 189, 190, 191, 192, 193, 194, 195, 196, 197, 198, 199, 200, 201, 202, 203, 204, 205, 206, 207, 208, 209, 210, 211, 212, 213, 214, 215, 216, 217, 218, 219, 220, 221, 222, 223, 224, 225, 226, 227, 228, 229, 230, 231, 232, 233, 234, 235, 236, 237, 238, 239, 240, 241, 242, 243, 244, 245, 246, 247, 248, 249, 250, 251, 252, 253, 254, 255, 256, 257, 258, 259, 260, 261, 262, 263, 264, 265, 266, 267, 268, 269, 270, 271, 272, 273, 274, 275, 276, 277, 278, 279, 280],
      "LargestImagePixelValue": [1028, 1033, 1147, 875, 827, 788, 1093, 897, 777, 948, 1007, 1159, 860, 767, 962, 1024, 1096, 832, 858, 851, 1047, 836, 780, 1088, 731, 943, 1038, 977, 834, 1001, 748, 994, 1096, 1032, 863, 909, 796, 1024, 1072, 1012, 955, 711, 1084, 1000, 823, 705, 921, 988, 1044, 858, 847, 1014, 1063, 868, 813, 833, 942, 1032, 1067, 912, 745, 1025, 1045, 1085, 842, 867, 1003, 814, 807, 1056, 1148, 840, 791, 999, 1064, 805, 717, 1048, 789, 788, 1096, 1309, 894, 763, 1054, 777, 740, 806, 1037, 1008, 789, 757, 1043, 980, 824, 783, 1120, 765, 856, 1064, 1081, 799, 935, 951, 809, 837, 896, 999, 745, 756, 1052, 757, 881, 1023, 1161, 764, 856, 1027, 902, 898, 1003, 737, 1287, 854, 861, 966, 839, 950, 894, 1042, 863, 942, 999, 840, 743, 1089, 1104, 800, 854, 893, 823, 960, 1014, 883, 777, 972, 1040, 778, 846, 982, 882, 820, 1048, 775, 915, 921, 1154, 802, 795, 1024, 806, 794, 1098, 760, 917, 760, 808, 1054, 839, 960, 820, 783, 1021, 942, 846, 958, 746, 790, 1102, 715, 911, 1062, 837, 726, 1077, 767, 815, 1025, 790, 768, 972, 1032, 1068, 774, 733, 932, 818, 1073, 793, 873, 1119, 855, 857, 1048, 842, 923, 981, 819, 1088, 797, 898, 1031, 851, 790, 1077, 797, 973, 1082, 798, 914, 1110, 859, 851, 893, 825, 1060, 1402, 1026, 796, 1016, 808, 997, 762, 1025, 790, 1028, 753, 817, 1143, 1273, 886, 736, 1037, 849, 816, 819, 1083, 746, 897, 927, 1176, 801, 945, 802, 766, 1101, 736, 986, 1124, 831, 948, 767, 871, 878, 777, 1006, 1088, 841, 826, 982, 1012, 798, 805, 973, 837, 939, 811, 1096, 822, 982],
      "WindowCenter": [358.0, 357.0, 358.0, 355.0, 355.0, 354.0, 357.0, 356.0, 354.0, 356.0, 356.0, 358.0, 356.0, 354.0, 357.0, 357.0, 358.0, 355.0, 356.0, 356.0, 357.0, 356.0, 355.0, 357.0, 354.0, 356.0, 357.0, 357.0, 356.0, 357.0, 354.0, 357.0, 358.0, 357.0, 356.0, 356.0, 355.0, 357.0, 358.0, 357.0, 357.0, 354.0, 358.0, 357.0, 356.0, 354.0, 356.0, 357.0, 358.0, 356.0, 356.0, 357.0, 358.0, 356.0, 356.0, 356.0, 357.0, 357.0, 358.0, 357.0, 355.0, 357.0, 358.0, 358.0, 356.0, 356.0, 357.0, 356.0, 356.0, 358.0, 359.0, 356.0, 356.0, 357.0, 358.0, 355.0, 355.0, 358.0, 356.0, 356.0, 359.0, 360.0, 356.0, 355.0, 358.0, 356.0, 355.0, 356.0, 357.0, 357.0, 356.0, 355.0, 358.0, 357.0, 356.0, 356.0, 359.0, 356.0, 357.0, 358.0, 358.0, 356.0, 357.0, 357.0, 356.0, 356.0, 356.0, 357.0, 354.0, 355.0, 359.0, 356.0, 358.0, 358.0, 359.0, 356.0, 357.0, 358.0, 357.0, 357.0, 358.0, 356.0, 360.0, 356.0, 356.0, 357.0, 356.0, 357.0, 357.0, 358.0, 357.0, 357.0, 358.0, 357.0, 356.0, 358.0, 358.0, 356.0, 356.0, 357.0, 356.0, 357.0, 357.0, 356.0, 356.0, 357.0, 358.0, 356.0, 356.0, 357.0, 356.0, 356.0, 359.0, 356.0, 358.0, 357.0, 359.0, 356.0, 356.0, 358.0, 356.0, 356.0, 359.0, 356.0, 358.0, 356.0, 356.0, 359.0, 356.0, 357.0, 356.0, 356.0, 358.0, 357.0, 356.0, 357.0, 355.0, 356.0, 358.0, 355.0, 358.0, 358.0, 356.0, 355.0, 358.0, 356.0, 356.0, 358.0, 356.0, 355.0, 357.0, 358.0, 357.0, 355.0, 355.0, 357.0, 357.0, 359.0, 357.0, 357.0, 359.0, 356.0, 356.0, 358.0, 357.0, 357.0, 358.0, 356.0, 359.0, 356.0, 357.0, 358.0, 356.0, 356.0, 359.0, 357.0, 358.0, 359.0, 356.0, 358.0, 359.0, 356.0, 356.0, 357.0, 357.0, 359.0, 360.0, 357.0, 356.0, 357.0, 356.0, 358.0, 356.0, 358.0, 356.0, 358.0, 356.0, 356.0, 359.0, 360.0, 356.0, 355.0, 358.0, 356.0, 356.0, 356.0, 359.0, 355.0, 357.0, 357.0, 359.0, 356.0, 358.0, 356.0, 356.0, 359.0, 355.0, 357.0, 359.0, 355.0, 357.0, 355.0, 356.0, 356.0, 355.0, 357.0, 357.0, 356.0, 356.0, 357.0, 357.0, 355.0, 356.0, 358.0, 357.0, 358.0, 358.0, 360.0, 357.0, 358.0],
      "WindowWidth": [767.0, 764.0, 765.0, 761.0, 760.0, 760.0, 763.0, 762.0, 759.0, 762.0, 762.0, 764.0, 761.0, 759.0, 763.0, 764.0, 765.0, 761.0, 761.0, 763.0, 764.0, 763.0, 761.0, 764.0, 758.0, 762.0, 764.0, 764.0, 763.0, 764.0, 760.0, 764.0, 765.0, 764.0, 762.0, 762.0, 761.0, 764.0, 765.0, 764.0, 763.0, 760.0, 765.0, 764.0, 762.0, 759.0, 762.0, 763.0, 765.0, 762.0, 762.0, 764.0, 765.0, 762.0, 761.0, 762.0, 763.0, 764.0, 765.0, 763.0, 761.0, 764.0, 765.0, 765.0, 763.0, 762.0, 764.0, 763.0, 762.0, 764.0, 766.0, 761.0, 762.0, 764.0, 765.0, 761.0, 761.0, 765.0, 762.0, 762.0, 767.0, 768.0, 762.0, 761.0, 765.0, 762.0, 761.0, 761.0, 764.0, 764.0, 762.0, 761.0, 765.0, 764.0, 763.0, 762.0, 767.0, 762.0, 764.0, 766.0, 765.0, 761.0, 763.0, 763.0, 762.0, 762.0, 762.0, 763.0, 760.0, 761.0, 766.0, 763.0, 765.0, 766.0, 767.0, 762.0, 764.0, 765.0, 764.0, 764.0, 765.0, 762.0, 768.0, 763.0, 762.0, 764.0, 763.0, 764.0, 764.0, 765.0, 764.0, 764.0, 765.0, 764.0, 762.0, 765.0, 766.0, 762.0, 763.0, 763.0, 763.0, 763.0, 764.0, 762.0, 762.0, 764.0, 765.0, 762.0, 763.0, 764.0, 763.0, 763.0, 767.0, 763.0, 765.0, 763.0, 766.0, 762.0, 762.0, 765.0, 762.0, 762.0, 766.0, 762.0, 765.0, 762.0, 763.0, 766.0, 763.0, 764.0, 763.0, 762.0, 765.0, 763.0, 762.0, 764.0, 761.0, 762.0, 765.0, 761.0, 765.0, 765.0, 763.0, 760.0, 765.0, 762.0, 763.0, 765.0, 762.0, 761.0, 763.0, 764.0, 764.0, 761.0, 761.0, 764.0, 764.0, 766.0, 763.0, 764.0, 767.0, 763.0, 763.0, 765.0, 763.0, 764.0, 765.0, 763.0, 766.0, 763.0, 764.0, 765.0, 763.0, 762.0, 767.0, 763.0, 765.0, 766.0, 762.0, 765.0, 766.0, 763.0, 763.0, 763.0, 763.0, 766.0, 769.0, 764.0, 762.0, 764.0, 762.0, 765.0, 762.0, 764.0, 762.0, 765.0, 763.0, 763.0, 768.0, 768.0, 762.0, 761.0, 765.0, 763.0, 763.0, 763.0, 766.0, 762.0, 763.0, 763.0, 767.0, 762.0, 764.0, 763.0, 762.0, 766.0, 761.0, 764.0, 766.0, 761.0, 763.0, 761.0, 762.0, 762.0, 761.0, 763.0, 764.0, 761.0, 761.0, 763.0, 764.0, 761.0, 762.0, 765.0, 764.0, 766.0, 766.0, 769.0, 765.0, 765.0]
    },
    "slices": {}
  }
}