{
  "AcquisitionMatrixPE": 96,
  "AcquisitionNumber": 1,
  "AcquisitionTime": "11:07:59.997500",
  "BandwidthPerPixelPhaseEncode": 18.939,
  "BaseResolution": 96,
  "BodyPartExamined": "BRAIN",
  "ConsistencyInfo": "N4_VE11C_LATEST_20160120",
  "ConversionSoftware": "dcm2niix",
  "ConversionSoftwareVersion": "v1.0.20170923 (OpenJPEG build) GCC6.3.0",
  "DerivedVendorReportedEchoSpacing": 0.000550011,
  "DeviceSerialNumber": "66112",
  "DwellTime": 2.3e-06,
  "EchoTime": 0.033,
  "EchoTrainLength": 96,
  "EffectiveEchoSpacing": 0.000550011,
  "FlipAngle": 64,
  "ImageType": [
    "ORIGINAL",
    "PRIMARY",
    "FMRI",
    "NONE",
    "ND",
    "NORM",
    "MOSAIC"
],
  "InstitutionAddress": "Maynard_3_Hanover_NH_US_03755",
  "InstitutionName": "Dartmouth_College_-_PBS",
  "MagneticFieldStrength": 3,
  "Manufacturer": "Siemens",
  "ManufacturersModelName": "Prisma",
  "Modality": "MR",
  "MultibandAccelerationFactor": 4,
  "PartialFourier": 1,
  "PercentPhaseFOV": 100,
  "PhaseEncodingDirection": "j-",
  "PhaseEncodingSteps": 96,
  "PhaseResolution": 1,
  "ProcedureStepDescription": "Gobbini_Matteo_1017_famface-angles",
  "ProtocolName": "func_run-11_task-fam1back",
  "PulseSequenceDetails": "%SiemensSeq%_ep2d_bold",
  "ReceiveCoilActiveElements": "HEA;HEP",
  "ReceiveCoilName": "Head_32",
  "ReconMatrixPE": 96,
  "RepetitionTime": 1.25,
  "ScanOptions": "FS",
  "ScanningSequence": "EP",
  "SequenceName": "_epfid2d1_96",
  "SequenceVariant": "SK",
  "SeriesDescription": "func_run-11_task-fam1back",
  "SliceTiming": [0.88, 0, 0.615, 0.09, 0.705, 0.1775, 0.7925, 0.3525, 0.9675, 0.44, 1.055, 0.5275, 1.1425, 0.265, 0.88, 0, 0.615, 0.09, 0.705, 0.1775, 0.7925, 0.3525, 0.9675, 0.44, 1.055, 0.5275, 1.1425, 0.265, 0.88, 0, 0.615, 0.09, 0.705, 0.1775, 0.7925, 0.3525, 0.9675, 0.44, 1.055, 0.5275, 1.1425, 0.265, 0.88, 0, 0.615, 0.09, 0.705, 0.1775, 0.7925, 0.3525, 0.9675, 0.44, 1.055, 0.5275, 1.1425, 0.265],
  "SoftwareVersions": "syngo_MR_E11",
  "StationName": "AWP66112",
  "TaskName": "fam1back",
  "TotalReadoutTime": 0.0522511,
  "dcmmeta_affine": [
    [-2.4994869232177734, 0.049738310277462006, -0.009543189778923988, 121.35560607910156],
    [0.049619343131780624, 2.499323844909668, 0.03030814416706562, -108.40351867675781],
    [-0.010143598541617393, -0.03011251427233219, 2.499798059463501, -81.13140869140625],
    [0.0, 0.0, 0.0, 1.0]
],
  "dcmmeta_reorient_transform": [
    [0.0, -1.0, 0.0, 95.0],
    [1.0, 0.0, 0.0, 0.0],
    [0.0, 0.0, 1.0, 0.0],
    [0.0, 0.0, 0.0, 1.0]
],
  "dcmmeta_shape": [96, 96, 56, 280],
  "dcmmeta_slice_dim": 2,
  "dcmmeta_version": 0.6,
  "global": {
    "const": {
      "AccessionNumber": "A000631",
      "AcquisitionMatrix": [96, 0, 0, 96],
      "AngioFlag": "N",
      "BitsAllocated": 16,
      "BitsStored": 12,
      "BodyPartExamined": "BRAIN",
      "Columns": 768,
      "EchoNumbers": 1,
      "EchoTime": 33.0,
      "EchoTrainLength": 96,
      "FlipAngle": 64.0,
      "HighBit": 11,
      "ImageOrientationPatient": [0.99979478118637, -0.01984773785, -0.004057439431, 0.01989532401804, 0.99972951037989, 0.01204500551315],
      "ImagePositionPatient": [-982.62043655837, -952.13292706662, -90.701655662992],
      "ImageType": [
        "ORIGINAL",
        "PRIMARY",
        "FMRI",
        "NONE",
        "ND",
        "NORM",
        "MOSAIC"
],
      "ImagedNucleus": "1H",
      "ImagingFrequency": 123.252373,
      "InPlanePhaseEncodingDirection": "COL",
      "MRAcquisitionType": "2D",
      "MagneticFieldStrength": 3.0,
      "Manufacturer": "SIEMENS",
      "ManufacturerModelName": "Prisma",
      "Modality": "MR",
      "NumberOfAverages": 1.0,
      "NumberOfPhaseEncodingSteps": 96,
      "PercentPhaseFieldOfView": 100.0,
      "PercentSampling": 100.0,
      "PerformedProcedureStepStartTime": "094845.448000",
      "PhotometricInterpretation": "MONOCHROME2",
      "PixelBandwidth": 2265.0,
      "PixelRepresentation": 0,
      "PixelSpacing": [2.5, 2.5],
      "PositionReferenceIndicator": "",
      "ProtocolName": "func_run-11_task-fam1back",
      "RepetitionTime": 1250.0,
      "Rows": 768,
      "SAR": 0.05917426781538,
      "SamplesPerPixel": 1,
      "ScanOptions": "FS",
      "ScanningSequence": "EP",
      "SequenceName": "*epfid2d1_96",
      "SequenceVariant": "SK",
      "SeriesDescription": "func_run-11_task-fam1back",
      "SeriesNumber": 78,
      "SeriesTime": "110801.148000",
      "SliceLocation": -82.902309543486,
      "SliceThickness": 2.5,
      "SmallestImagePixelValue": 0,
      "SoftwareVersions": "syngo MR E11",
      "SpacingBetweenSlices": 2.5000000379284,
      "SpecificCharacterSet": "ISO_IR 100",
      "StudyID": "2",
      "StudyTime": "094845.373000",
      "TransmitCoilName": "Body",
      "VariableFlipAngleFlag": "N",
      "WindowCenterWidthExplanation": "Algo1",
      "dBdt": 0.0},
    "slices": {}
  },
  "time": {
    "samples": {
      "AcquisitionNumber": [1, 2, 3, 4, 5, 6, 7, 8, 9, 10, 11, 12, 13, 14, 15, 16, 17, 18, 19, 20, 21, 22, 23, 24, 25, 26, 27, 28, 29, 30, 31, 32, 33, 34, 35, 36, 37, 38, 39, 40, 41, 42, 43, 44, 45, 46, 47, 48, 49, 50, 51, 52, 53, 54, 55, 56, 57, 58, 59, 60, 61, 62, 63, 64, 65, 66, 67, 68, 69, 70, 71, 72, 73, 74, 75, 76, 77, 78, 79, 80, 81, 82, 83, 84, 85, 86, 87, 88, 89, 90, 91, 92, 93, 94, 95, 96, 97, 98, 99, 100, 101, 102, 103, 104, 105, 106, 107, 108, 109, 110, 111, 112, 113, 114, 115, 116, 117, 118, 119, 120, 121, 122, 123, 124, 125, 126, 127, 128, 129, 130, 131, 132, 133, 134, 135, 136, 137, 138, 139, 140, 141, 142, 143, 144, 145, 146, 147, 148, 149, 150, 151, 152, 153, 154, 155, 156, 157, 158, 159, 160, 161, 162, 163, 164, 165, 166, 167, 168, 169, 170, 171, 172, 173, 174, 175, 176, 177, 178, 179, 180, 181, 182, 183, 184, 185, 186, 187, 188, 189, 190, 191, 192, 193, 194, 195, 196, 197, 198, 199, 200, 201, 202, 203, 204, 205, 206, 207, 208, 209, 210, 211, 212, 213, 214, 215, 216, 217, 218, 219, 220, 221, 222, 223, 224, 225, 226, 227, 228, 229, 230, 231, 232, 233, 234, 235, 236, 237, 238, 239, 240, 241, 242, 243, 244, 245, 246, 247, 248, 249, 250, 251, 252, 253, 254, 255, 256, 257, 258, 259, 260, 261, 262, 263, 264, 265, 266, 267, 268, 269, 270, 271, 272, 273, 274, 275, 276, 277, 278, 279, 280],
      "AcquisitionTime": ["110759.997500", "110801.247500", "110802.497500", "110803.747500", "110804.997500", "110806.247500", "110807.497500", "110808.747500", "110809.997500", "110811.247500", "110812.497500", "110813.747500", "110814.997500", "110816.247500", "110817.497500", "110818.747500", "110819.997500", "110821.247500", "110822.497500", "110823.747500", "110824.997500", "110826.247500", "110827.497500", "110828.747500", "110829.997500", "110831.247500", "110832.497500", "110833.747500", "110834.997500", "110836.247500", "110837.497500", "110838.747500", "110839.997500", "110841.247500", "110842.497500", "110843.747500", "110844.997500", "110846.247500", "110847.497500", "110848.747500", "110849.997500", "110851.247500", "110852.497500", "110853.747500", "110854.997500", "110856.247500", "110857.497500", "110858.747500", "110859.997500", "110901.247500", "110902.497500", "110903.747500", "110904.997500", "110906.247500", "110907.497500", "110908.747500", "110909.997500", "110911.247500", "110912.497500", "110913.747500", "110914.997500", "110916.247500", "110917.497500", "110918.747500", "110919.997500", "110921.247500", "110922.497500", "110923.747500", "110924.997500", "110926.247500", "110927.497500", "110928.747500", "110929.997500", "110931.247500", "110932.497500", "110933.747500", "110934.997500", "110936.247500", "110937.497500", "110938.747500", "110939.997500", "110941.247500", "110942.497500", "110943.747500", "110944.997500", "110946.247500", "110947.497500", "110948.747500", "110949.997500", "110951.247500", "110952.497500", "110953.747500", "110954.997500", "110956.247500", "110957.497500", "110958.747500", "110959.997500", "111001.247500", "111002.497500", "111003.747500", "111004.997500", "111006.247500", "111007.497500", "111008.747500", "111009.997500", "111011.247500", "111012.497500", "111013.747500", "111014.997500", "111016.247500", "111017.497500", "111018.747500", "111019.997500", "111021.247500", "111022.497500", "111023.747500", "111024.997500", "111026.247500", "111027.497500", "111028.747500", "111029.997500", "111031.247500", "111032.497500", "111033.747500", "111034.997500", "111036.247500", "111037.497500", "111038.747500", "111039.997500", "111041.247500", "111042.497500", "111043.747500", "111044.997500", "111046.247500", "111047.497500", "111048.747500", "111049.997500", "111051.247500", "111052.497500", "111053.747500", "111054.997500", "111056.247500", "111057.497500", "111058.747500", "111059.997500", "111101.247500", "111102.497500", "111103.747500", "111104.997500", "111106.247500", "111107.497500", "111108.747500", "111109.997500", "111111.247500", "111112.497500", "111113.747500", "111114.997500", "111116.247500", "111117.497500", "111118.747500", "111119.997500", "111121.247500", "111122.497500", "111123.747500", "111124.997500", "111126.247500", "111127.497500", "111128.747500", "111129.997500", "111131.247500", "111132.497500", "111133.747500", "111134.997500", "111136.247500", "111137.497500", "111138.747500", "111139.997500", "111141.247500", "111142.497500", "111143.747500", "111144.997500", "111146.247500", "111147.497500", "111148.747500", "111149.997500", "111151.247500", "111152.497500", "111153.747500", "111154.997500", "111156.247500", "111157.497500", "111158.747500", "111159.997500", "111201.247500", "111202.497500", "111203.747500", "111204.997500", "111206.247500", "111207.497500", "111208.747500", "111209.997500", "111211.247500", "111212.497500", "111213.747500", "111214.997500", "111216.247500", "111217.497500", "111218.747500", "111219.997500", "111221.247500", "111222.497500", "111223.747500", "111224.997500", "111226.247500", "111227.497500", "111228.747500", "111229.997500", "111231.247500", "111232.497500", "111233.747500", "111234.997500", "111236.247500", "111237.497500", "111238.747500", "111239.997500", "111241.247500", "111242.497500", "111243.747500", "111244.997500", "111246.247500", "111247.497500", "111248.747500", "111249.997500", "111251.247500", "111252.497500", "111253.747500", "111254.997500", "111256.247500", "111257.497500", "111258.747500", "111259.997500", "111301.247500", "111302.497500", "111303.747500", "111304.997500", "111306.247500", "111307.497500", "111308.747500", "111309.997500", "111311.247500", "111312.497500", "111313.747500", "111314.997500", "111316.247500", "111317.497500", "111318.747500", "111319.997500", "111321.247500", "111322.497500", "111323.747500", "111324.997500", "111326.247500", "111327.497500", "111328.747500", "111329.997500", "111331.247500", "111332.497500", "111333.747500", "111334.997500", "111336.247500", "111337.497500", "111338.747500", "111339.997500", "111341.247500", "111342.497500", "111343.747500", "111344.997500", "111346.247500", "111347.497500", "111348.747500"],
      "ContentTime": ["110801.152000", "110802.204000", "110803.426000", "110804.686000", "110805.976000", "110807.201000", "110808.464000", "110809.689000", "110810.939000", "110812.169000", "110813.423000", "110814.678000", "110815.916000", "110817.184000", "110818.439000", "110819.675000", "110820.903000", "110822.180000", "110823.446000", "110824.682000", "110825.929000", "110827.168000", "110828.414000", "110829.697000", "110830.925000", "110832.187000", "110833.426000", "110834.705000", "110835.904000", "110837.182000", "110838.470000", "110839.674000", "110840.919000", "110842.182000", "110843.406000", "110844.679000", "110845.954000", "110847.208000", "110848.441000", "110849.690000", "110850.935000", "110852.174000", "110853.457000", "110854.704000", "110855.912000", "110857.218000", "110858.426000", "110859.665000", "110900.909000", "110902.166000", "110903.428000", "110904.682000", "110905.900000", "110907.173000", "110908.466000", "110909.682000", "110910.906000", "110912.159000", "110913.422000", "110914.683000", "110915.921000", "110917.183000", "110918.409000", "110919.658000", "110920.922000", "110922.171000", "110923.396000", "110924.698000", "110925.902000", "110927.159000", "110928.424000", "110929.712000", "110930.924000", "110932.162000", "110933.430000", "110934.681000", "110935.932000", "110937.193000", "110938.431000", "110939.664000", "110940.903000", "110942.175000", "110943.418000", "110944.697000", "110945.891000", "110947.179000", "110948.460000", "110949.659000", "110950.927000", "110952.196000", "110953.447000", "110954.673000", "110955.907000", "110957.191000", "110958.430000", "110959.659000", "111000.943000", "111002.168000", "111003.412000", "111004.687000", "111005.956000", "111007.151000", "111008.429000", "111009.697000", "111010.933000", "111012.167000", "111013.420000", "111014.785000", "111015.951000", "111017.216000", "111018.451000", "111019.694000", "111020.939000", "111022.200000", "111023.450000", "111024.720000", "111025.918000", "111027.212000", "111028.446000", "111029.656000", "111030.925000", "111032.196000", "111033.430000", "111034.673000", "111035.957000", "111037.175000", "111038.457000", "111039.688000", "111040.962000", "111042.207000", "111043.407000", "111044.688000", "111045.931000", "111047.197000", "111048.458000", "111049.680000", "111050.931000", "111052.191000", "111053.436000", "111054.685000", "111055.941000", "111057.188000", "111058.425000", "111059.705000", "111100.943000", "111102.193000", "111103.436000", "111104.704000", "111105.933000", "111107.203000", "111108.423000", "111109.711000", "111110.968000", "111112.234000", "111113.419000", "111114.694000", "111115.918000", "111117.146000", "111118.423000", "111119.709000", "111120.933000", "111122.158000", "111123.454000", "111124.693000", "111125.939000", "111127.204000", "111128.455000", "111129.673000", "111130.949000", "111132.195000", "111133.415000", "111134.708000", "111135.907000", "111137.181000", "111138.436000", "111139.701000", "111140.909000", "111142.203000", "111143.436000", "111144.686000", "111145.919000", "111147.224000", "111148.455000", "111149.674000", "111150.958000", "111152.210000", "111153.430000", "111154.714000", "111155.966000", "111157.177000", "111158.435000", "111159.685000", "111200.918000", "111202.193000", "111203.412000", "111204.679000", "111205.945000", "111207.175000", "111208.519000", "111209.698000", "111210.911000", "111212.196000", "111213.436000", "111214.683000", "111215.938000", "111217.183000", "111218.439000", "111219.656000", "111220.926000", "111222.169000", "111223.434000", "111224.685000", "111225.910000", "111227.223000", "111228.455000", "111229.670000", "111230.919000", "111232.221000", "111233.437000", "111234.702000", "111235.964000", "111237.157000", "111238.458000", "111239.675000", "111240.917000", "111242.189000", "111243.436000", "111244.674000", "111245.943000", "111247.177000", "111248.430000", "111249.673000", "111250.938000", "111252.207000", "111253.426000", "111254.698000", "111255.935000", "111257.206000", "111258.439000", "111259.679000", "111300.947000", "111302.165000", "111303.443000", "111304.674000", "111305.936000", "111307.203000", "111308.454000", "111309.679000", "111310.942000", "111312.168000", "111313.426000", "111314.663000", "111315.920000", "111317.156000", "111318.440000", "111319.694000", "111320.952000", "111322.202000", "111323.401000", "111324.710000", "111325.908000", "111327.182000", "111328.469000", "111329.693000", "111330.961000", "111332.244000", "111333.432000", "111334.689000", "111335.928000", "111337.215000", "111338.450000", "111339.683000", "111340.892000", "111342.196000", "111343.422000", "111344.673000", "111345.952000", "111347.189000", "111348.457000", "111349.725000"],
      "InstanceCreationTime": ["110801.152000", "110802.204000", "110803.426000", "110804.686000", "110805.976000", "110807.201000", "110808.464000", "110809.689000", "110810.939000", "110812.169000", "110813.423000", "110814.678000", "110815.916000", "110817.184000", "110818.439000", "110819.675000", "110820.903000", "110822.180000", "110823.446000", "110824.682000", "110825.929000", "110827.168000", "110828.414000", "110829.697000", "110830.925000", "110832.187000", "110833.426000", "110834.705000", "110835.904000", "110837.182000", "110838.470000", "110839.674000", "110840.919000", "110842.182000", "110843.406000", "110844.679000", "110845.954000", "110847.208000", "110848.441000", "110849.690000", "110850.935000", "110852.174000", "110853.457000", "110854.704000", "110855.912000", "110857.218000", "110858.426000", "110859.665000", "110900.909000", "110902.166000", "110903.428000", "110904.682000", "110905.900000", "110907.173000", "110908.466000", "110909.682000", "110910.906000", "110912.159000", "110913.422000", "110914.683000", "110915.921000", "110917.183000", "110918.409000", "110919.658000", "110920.922000", "110922.171000", "110923.396000", "110924.698000", "110925.902000", "110927.159000", "110928.424000", "110929.712000", "110930.924000", "110932.162000", "110933.430000", "110934.681000", "110935.932000", "110937.193000", "110938.431000", "110939.664000", "110940.903000", "110942.175000", "110943.418000", "110944.697000", "110945.891000", "110947.179000", "110948.460000", "110949.659000", "110950.927000", "110952.196000", "110953.447000", "110954.673000", "110955.907000", "110957.191000", "110958.430000", "110959.659000", "111000.943000", "111002.168000", "111003.412000", "111004.687000", "111005.956000", "111007.151000", "111008.429000", "111009.697000", "111010.933000", "111012.167000", "111013.420000", "111014.785000", "111015.951000", "111017.216000", "111018.451000", "111019.694000", "111020.939000", "111022.200000", "111023.450000", "111024.720000", "111025.918000", "111027.212000", "111028.446000", "111029.656000", "111030.925000", "111032.196000", "111033.430000", "111034.673000", "111035.957000", "111037.175000", "111038.457000", "111039.688000", "111040.962000", "111042.207000", "111043.407000", "111044.688000", "111045.931000", "111047.197000", "111048.458000", "111049.680000", "111050.931000", "111052.191000", "111053.436000", "111054.685000", "111055.941000", "111057.188000", "111058.425000", "111059.705000", "111100.943000", "111102.193000", "111103.436000", "111104.704000", "111105.933000", "111107.203000", "111108.423000", "111109.711000", "111110.968000", "111112.234000", "111113.419000", "111114.694000", "111115.918000", "111117.146000", "111118.423000", "111119.709000", "111120.933000", "111122.158000", "111123.454000", "111124.693000", "111125.939000", "111127.204000", "111128.455000", "111129.673000", "111130.949000", "111132.195000", "111133.415000", "111134.708000", "111135.907000", "111137.181000", "111138.436000", "111139.701000", "111140.909000", "111142.203000", "111143.436000", "111144.686000", "111145.919000", "111147.224000", "111148.455000", "111149.674000", "111150.958000", "111152.210000", "111153.430000", "111154.714000", "111155.966000", "111157.177000", "111158.435000", "111159.685000", "111200.918000", "111202.193000", "111203.412000", "111204.679000", "111205.945000", "111207.175000", "111208.519000", "111209.698000", "111210.911000", "111212.196000", "111213.436000", "111214.683000", "111215.938000", "111217.183000", "111218.439000", "111219.656000", "111220.926000", "111222.169000", "111223.434000", "111224.685000", "111225.910000", "111227.223000", "111228.455000", "111229.670000", "111230.919000", "111232.221000", "111233.437000", "111234.702000", "111235.964000", "111237.157000", "111238.458000", "111239.675000", "111240.917000", "111242.189000", "111243.436000", "111244.674000", "111245.943000", "111247.177000", "111248.430000", "111249.673000", "111250.938000", "111252.207000", "111253.426000", "111254.698000", "111255.935000", "111257.206000", "111258.439000", "111259.679000", "111300.947000", "111302.165000", "111303.443000", "111304.674000", "111305.936000", "111307.203000", "111308.454000", "111309.679000", "111310.942000", "111312.168000", "111313.426000", "111314.663000", "111315.920000", "111317.156000", "111318.440000", "111319.694000", "111320.952000", "111322.202000", "111323.401000", "111324.710000", "111325.908000", "111327.182000", "111328.469000", "111329.693000", "111330.961000", "111332.244000", "111333.432000", "111334.689000", "111335.928000", "111337.215000", "111338.450000", "111339.683000", "111340.892000", "111342.196000", "111343.422000", "111344.673000", "111345.952000", "111347.189000", "111348.457000", "111349.725000"],
      "InstanceNumber": [1, 2, 3, 4, 5, 6, 7, 8, 9, 10, 11, 12, 13, 14, 15, 16, 17, 18, 19, 20, 21, 22, 23, 24, 25, 26, 27, 28, 29, 30, 31, 32, 33, 34, 35, 36, 37, 38, 39, 40, 41, 42, 43, 44, 45, 46, 47, 48, 49, 50, 51, 52, 53, 54, 55, 56, 57, 58, 59, 60, 61, 62, 63, 64, 65, 66, 67, 68, 69, 70, 71, 72, 73, 74, 75, 76, 77, 78, 79, 80, 81, 82, 83, 84, 85, 86, 87, 88, 89, 90, 91, 92, 93, 94, 95, 96, 97, 98, 99, 100, 101, 102, 103, 104, 105, 106, 107, 108, 109, 110, 111, 112, 113, 114, 115, 116, 117, 118, 119, 120, 121, 122, 123, 124, 125, 126, 127, 128, 129, 130, 131, 132, 133, 134, 135, 136, 137, 138, 139, 140, 141, 142, 143, 144, 145, 146, 147, 148, 149, 150, 151, 152, 153, 154, 155, 156, 157, 158, 159, 160, 161, 162, 163, 164, 165, 166, 167, 168, 169, 170, 171, 172, 173, 174, 175, 176, 177, 178, 179, 180, 181, 182, 183, 184, 185, 186, 187, 188, 189, 190, 191, 192, 193, 194, 195, 196, 197, 198, 199, 200, 201, 202, 203, 204, 205, 206, 207, 208, 209, 210, 211, 212, 213, 214, 215, 216, 217, 218, 219, 220, 221, 222, 223, 224, 225, 226, 227, 228, 229, 230, 231, 232, 233, 234, 235, 236, 237, 238, 239, 240, 241, 242, 243, 244, 245, 246, 247, 248, 249, 250, 251, 252, 253, 254, 255, 256, 257, 258, 259, 260, 261, 262, 263, 264, 265, 266, 267, 268, 269, 270, 271, 272, 273, 274, 275, 276, 277, 278, 279, 280],
      "LargestImagePixelValue": [1035, 768, 1061, 934, 793, 1150, 766, 1010, 746, 1036, 759, 1193, 758, 934, 1082, 795, 898, 966, 1080, 851, 944, 1094, 787, 909, 1071, 805, 782, 1081, 767, 763, 1130, 1356, 829, 795, 926, 795, 1029, 1242, 1057, 901, 851, 1094, 784, 838, 1197, 914, 830, 949, 1134, 842, 886, 1179, 892, 822, 948, 761, 767, 1012, 1231, 865, 816, 1059, 872, 757, 980, 1008, 1034, 807, 917, 899, 765, 1048, 1033, 842, 869, 952, 804, 1061, 798, 765, 1206, 759, 846, 983, 853, 816, 1044, 739, 746, 1054, 750, 1113, 798, 941, 1290, 931, 842, 967, 814, 838, 1105, 824, 843, 1075, 855, 809, 871, 1040, 787, 851, 727, 737, 1150, 798, 1051, 902, 776, 1104, 788, 866, 1171, 885, 805, 1259, 832, 866, 1018, 763, 1019, 747, 1004, 920, 956, 845, 1201, 781, 871, 898, 766, 975, 1015, 772, 818, 1054, 827, 898, 714, 739, 1122, 754, 971, 1050, 828, 827, 1065, 845, 1066, 825, 821, 1166, 782, 794, 953, 1070, 874, 889, 1055, 789, 828, 1054, 1245, 802, 758, 881, 911, 788, 765, 965, 850, 1067, 774, 1235, 829, 1005, 1068, 831, 940, 809, 868, 1117, 1273, 822, 718, 959, 747, 762, 975, 718, 1092, 1065, 816, 849, 1192, 842, 955, 908, 808, 981, 1046, 762, 888, 1061, 795, 810, 1086, 773, 799, 993, 837, 980, 818, 842, 1154, 1003, 860, 1040, 1245, 862, 756, 869, 978, 764, 862, 1034, 1082, 801, 911, 992, 836, 857, 1074, 754, 817, 966, 860, 765, 1031, 1148, 821, 800, 978, 724, 787, 1084, 815, 840, 1027, 1293, 880, 882, 754, 786, 939, 979, 878, 958, 1037, 813, 1082, 938, 768, 1055, 1299, 854, 784, 937, 753, 705, 986, 1244],
      "WindowCenter": [357.0, 354.0, 356.0, 355.0, 354.0, 357.0, 354.0, 356.0, 354.0, 357.0, 355.0, 359.0, 355.0, 356.0, 358.0, 355.0, 356.0, 357.0, 358.0, 356.0, 357.0, 358.0, 355.0, 357.0, 358.0, 356.0, 356.0, 359.0, 356.0, 356.0, 359.0, 360.0, 356.0, 357.0, 358.0, 357.0, 358.0, 359.0, 358.0, 357.0, 356.0, 358.0, 356.0, 356.0, 359.0, 357.0, 356.0, 358.0, 359.0, 356.0, 356.0, 358.0, 356.0, 356.0, 357.0, 355.0, 356.0, 358.0, 360.0, 356.0, 356.0, 358.0, 357.0, 355.0, 357.0, 357.0, 357.0, 356.0, 357.0, 357.0, 355.0, 358.0, 358.0, 356.0, 356.0, 357.0, 356.0, 358.0, 356.0, 355.0, 359.0, 355.0, 356.0, 357.0, 356.0, 356.0, 358.0, 355.0, 355.0, 358.0, 356.0, 359.0, 356.0, 357.0, 360.0, 356.0, 356.0, 357.0, 355.0, 356.0, 358.0, 356.0, 356.0, 358.0, 356.0, 356.0, 356.0, 358.0, 356.0, 357.0, 355.0, 356.0, 359.0, 357.0, 359.0, 357.0, 356.0, 359.0, 356.0, 356.0, 359.0, 356.0, 356.0, 359.0, 356.0, 356.0, 357.0, 355.0, 358.0, 355.0, 358.0, 358.0, 357.0, 356.0, 358.0, 355.0, 356.0, 356.0, 355.0, 357.0, 357.0, 355.0, 356.0, 358.0, 356.0, 357.0, 355.0, 356.0, 359.0, 356.0, 358.0, 359.0, 356.0, 356.0, 358.0, 356.0, 359.0, 356.0, 356.0, 359.0, 356.0, 356.0, 357.0, 358.0, 356.0, 356.0, 358.0, 356.0, 356.0, 359.0, 359.0, 356.0, 356.0, 357.0, 358.0, 356.0, 357.0, 359.0, 358.0, 360.0, 357.0, 361.0, 357.0, 358.0, 358.0, 356.0, 357.0, 355.0, 356.0, 358.0, 358.0, 355.0, 354.0, 356.0, 355.0, 355.0, 358.0, 355.0, 359.0, 358.0, 356.0, 356.0, 359.0, 356.0, 357.0, 357.0, 356.0, 357.0, 358.0, 355.0, 356.0, 358.0, 355.0, 356.0, 358.0, 355.0, 356.0, 357.0, 356.0, 358.0, 357.0, 356.0, 359.0, 357.0, 356.0, 357.0, 358.0, 355.0, 354.0, 356.0, 357.0, 355.0, 356.0, 357.0, 358.0, 355.0, 357.0, 357.0, 356.0, 356.0, 358.0, 355.0, 356.0, 358.0, 356.0, 355.0, 358.0, 359.0, 356.0, 356.0, 357.0, 355.0, 356.0, 359.0, 357.0, 356.0, 358.0, 360.0, 356.0, 356.0, 355.0, 355.0, 357.0, 357.0, 356.0, 357.0, 357.0, 356.0, 357.0, 357.0, 354.0, 357.0, 359.0, 355.0, 355.0, 357.0, 355.0, 355.0, 358.0, 360.0],
      "WindowWidth": [764.0, 759.0, 762.0, 761.0, 758.0, 763.0, 758.0, 762.0, 760.0, 763.0, 760.0, 766.0, 761.0, 763.0, 765.0, 761.0, 763.0, 763.0, 764.0, 763.0, 764.0, 765.0, 761.0, 764.0, 766.0, 762.0, 762.0, 767.0, 763.0, 763.0, 767.0, 769.0, 763.0, 764.0, 765.0, 764.0, 766.0, 767.0, 765.0, 763.0, 763.0, 765.0, 762.0, 763.0, 767.0, 763.0, 763.0, 764.0, 766.0, 762.0, 762.0, 766.0, 762.0, 762.0, 763.0, 761.0, 762.0, 765.0, 768.0, 763.0, 763.0, 765.0, 764.0, 761.0, 763.0, 763.0, 764.0, 762.0, 763.0, 763.0, 761.0, 765.0, 765.0, 762.0, 763.0, 763.0, 762.0, 765.0, 762.0, 761.0, 766.0, 761.0, 762.0, 764.0, 763.0, 763.0, 765.0, 762.0, 761.0, 765.0, 762.0, 766.0, 762.0, 764.0, 768.0, 762.0, 761.0, 762.0, 761.0, 762.0, 765.0, 762.0, 762.0, 765.0, 762.0, 762.0, 763.0, 765.0, 762.0, 764.0, 762.0, 763.0, 767.0, 764.0, 767.0, 764.0, 762.0, 766.0, 763.0, 763.0, 767.0, 763.0, 762.0, 767.0, 762.0, 762.0, 764.0, 761.0, 765.0, 762.0, 765.0, 765.0, 763.0, 762.0, 766.0, 761.0, 762.0, 762.0, 761.0, 763.0, 764.0, 761.0, 762.0, 765.0, 763.0, 764.0, 762.0, 763.0, 767.0, 762.0, 766.0, 767.0, 763.0, 763.0, 765.0, 763.0, 767.0, 763.0, 762.0, 766.0, 762.0, 762.0, 764.0, 765.0, 763.0, 763.0, 765.0, 762.0, 763.0, 766.0, 766.0, 762.0, 762.0, 763.0, 765.0, 763.0, 764.0, 767.0, 766.0, 768.0, 765.0, 770.0, 763.0, 765.0, 765.0, 762.0, 763.0, 761.0, 763.0, 765.0, 765.0, 760.0, 759.0, 762.0, 760.0, 761.0, 764.0, 762.0, 766.0, 765.0, 762.0, 763.0, 766.0, 763.0, 764.0, 764.0, 762.0, 764.0, 765.0, 761.0, 762.0, 765.0, 761.0, 761.0, 765.0, 761.0, 762.0, 764.0, 763.0, 766.0, 763.0, 763.0, 766.0, 763.0, 762.0, 764.0, 765.0, 761.0, 760.0, 761.0, 763.0, 761.0, 762.0, 764.0, 765.0, 761.0, 763.0, 764.0, 763.0, 763.0, 765.0, 761.0, 762.0, 764.0, 763.0, 761.0, 765.0, 766.0, 762.0, 762.0, 764.0, 760.0, 762.0, 766.0, 763.0, 763.0, 765.0, 768.0, 763.0, 763.0, 761.0, 761.0, 763.0, 764.0, 763.0, 763.0, 764.0, 762.0, 764.0, 763.0, 760.0, 764.0, 766.0, 760.0, 760.0, 763.0, 761.0, 762.0, 766.0, 768.0]
    },
    "slices": {}
  }
}