{
  "AcquisitionMatrixPE": 96,
  "AcquisitionNumber": 1,
  "AcquisitionTime": "13:38:29.605000",
  "BandwidthPerPixelPhaseEncode": 18.939,
  "BaseResolution": 96,
  "BodyPartExamined": "BRAIN",
  "ConsistencyInfo": "N4_VE11C_LATEST_20160120",
  "ConversionSoftware": "dcm2niix",
  "ConversionSoftwareVersion": "v1.0.20170923 (OpenJPEG build) GCC6.3.0",
  "DerivedVendorReportedEchoSpacing": 0.000550011,
  "DeviceSerialNumber": "66112",
  "DwellTime": 2.3e-06,
  "EchoTime": 0.033,
  "EchoTrainLength": 96,
  "EffectiveEchoSpacing": 0.000550011,
  "FlipAngle": 64,
  "ImageType": [
    "ORIGINAL",
    "PRIMARY",
    "FMRI",
    "NONE",
    "ND",
    "NORM",
    "MOSAIC"
],
  "InstitutionAddress": "Maynard_3_Hanover_NH_US_03755",
  "InstitutionName": "Dartmouth_College_-_PBS",
  "MagneticFieldStrength": 3,
  "Manufacturer": "Siemens",
  "ManufacturersModelName": "Prisma",
  "Modality": "MR",
  "MultibandAccelerationFactor": 4,
  "PartialFourier": 1,
  "PercentPhaseFOV": 100,
  "PhaseEncodingDirection": "j-",
  "PhaseEncodingSteps": 96,
  "PhaseResolution": 1,
  "ProcedureStepDescription": "Gobbini_Matteo_1017_famface-angles",
  "ProtocolName": "func_run-05_task-str1back",
  "PulseSequenceDetails": "%SiemensSeq%_ep2d_bold",
  "ReceiveCoilActiveElements": "HEA;HEP",
  "ReceiveCoilName": "Head_32",
  "ReconMatrixPE": 96,
  "RepetitionTime": 1.25,
  "ScanOptions": "FS",
  "ScanningSequence": "EP",
  "SequenceName": "_epfid2d1_96",
  "SequenceVariant": "SK",
  "SeriesDescription": "func_run-05_task-str1back",
  "SliceTiming": [0.8775, 0, 0.615, 0.0875, 0.7025, 0.175, 0.79, 0.35, 0.965, 0.4375, 1.0525, 0.525, 1.14, 0.2625, 0.8775, 0, 0.615, 0.0875, 0.7025, 0.175, 0.79, 0.35, 0.965, 0.4375, 1.0525, 0.525, 1.14, 0.2625, 0.8775, 0, 0.615, 0.0875, 0.7025, 0.175, 0.79, 0.35, 0.965, 0.4375, 1.0525, 0.525, 1.14, 0.2625, 0.8775, 0, 0.615, 0.0875, 0.7025, 0.175, 0.79, 0.35, 0.965, 0.4375, 1.0525, 0.525, 1.14, 0.2625],
  "SoftwareVersions": "syngo_MR_E11",
  "StationName": "AWP66112",
  "TaskName": "str1back",
  "TotalReadoutTime": 0.0522511,
  "dcmmeta_affine": [
    [-2.5, 0.0, 6.0574999877216484e-12, 120.0],
    [0.0, 2.5, 7.859999977266607e-12, -102.13999938964844],
    [6.0574999877216484e-12, -7.859999977266607e-12, 2.5, -84.75],
    [0.0, 0.0, 0.0, 1.0]
],
  "dcmmeta_reorient_transform": [
    [0.0, -1.0, 0.0, 95.0],
    [1.0, 0.0, 0.0, 0.0],
    [0.0, 0.0, 1.0, 0.0],
    [0.0, 0.0, 0.0, 1.0]
],
  "dcmmeta_shape": [96, 96, 56, 280],
  "dcmmeta_slice_dim": 2,
  "dcmmeta_version": 0.6,
  "global": {
    "const": {
      "AccessionNumber": "A000642",
      "AcquisitionMatrix": [96, 0, 0, 96],
      "AngioFlag": "N",
      "BitsAllocated": 16,
      "BitsStored": 12,
      "BodyPartExamined": "BRAIN",
      "Columns": 768,
      "EchoNumbers": 1,
      "EchoTime": 33.0,
      "EchoTrainLength": 96,
      "FlipAngle": 64.0,
      "HighBit": 11,
      "ImageOrientationPatient": [1.0, 0.0, 2.423e-12, 0.0, 1.0, 3.144e-12],
      "ImagePositionPatient": [-959.99999999983, -975.36000061035, -84.750000005344],
      "ImageType": [
        "ORIGINAL",
        "PRIMARY",
        "FMRI",
        "NONE",
        "ND",
        "NORM",
        "MOSAIC"
],
      "ImagedNucleus": "1H",
      "ImagingFrequency": 123.252319,
      "InPlanePhaseEncodingDirection": "COL",
      "MRAcquisitionType": "2D",
      "MagneticFieldStrength": 3.0,
      "Manufacturer": "SIEMENS",
      "ManufacturerModelName": "Prisma",
      "Modality": "MR",
      "NumberOfAverages": 1.0,
      "NumberOfPhaseEncodingSteps": 96,
      "PercentPhaseFieldOfView": 100.0,
      "PercentSampling": 100.0,
      "PerformedProcedureStepStartTime": "125927.241000",
      "PhotometricInterpretation": "MONOCHROME2",
      "PixelBandwidth": 2265.0,
      "PixelRepresentation": 0,
      "PixelSpacing": [2.5, 2.5],
      "PositionReferenceIndicator": "",
      "ProtocolName": "func_run-05_task-str1back",
      "RepetitionTime": 1250.0,
      "Rows": 768,
      "SAR": 0.06428351136128,
      "SamplesPerPixel": 1,
      "ScanOptions": "FS",
      "ScanningSequence": "EP",
      "SequenceName": "*epfid2d1_96",
      "SequenceVariant": "SK",
      "SeriesDescription": "func_run-05_task-str1back",
      "SeriesNumber": 36,
      "SeriesTime": "133830.873000",
      "SliceLocation": -84.749999999952,
      "SliceThickness": 2.5,
      "SmallestImagePixelValue": 0,
      "SoftwareVersions": "syngo MR E11",
      "SpacingBetweenSlices": 2.5,
      "SpecificCharacterSet": "ISO_IR 100",
      "StudyID": "2",
      "StudyTime": "125927.189000",
      "TransmitCoilName": "Body",
      "VariableFlipAngleFlag": "N",
      "WindowCenterWidthExplanation": "Algo1",
      "dBdt": 0.0},
    "slices": {}
  },
  "time": {
    "samples": {
      "AcquisitionNumber": [1, 2, 3, 4, 5, 6, 7, 8, 9, 10, 11, 12, 13, 14, 15, 16, 17, 18, 19, 20, 21, 22, 23, 24, 25, 26, 27, 28, 29, 30, 31, 32, 33, 34, 35, 36, 37, 38, 39, 40, 41, 42, 43, 44, 45, 46, 47, 48, 49, 50, 51, 52, 53, 54, 55, 56, 57, 58, 59, 60, 61, 62, 63, 64, 65, 66, 67, 68, 69, 70, 71, 72, 73, 74, 75, 76, 77, 78, 79, 80, 81, 82, 83, 84, 85, 86, 87, 88, 89, 90, 91, 92, 93, 94, 95, 96, 97, 98, 99, 100, 101, 102, 103, 104, 105, 106, 107, 108, 109, 110, 111, 112, 113, 114, 115, 116, 117, 118, 119, 120, 121, 122, 123, 124, 125, 126, 127, 128, 129, 130, 131, 132, 133, 134, 135, 136, 137, 138, 139, 140, 141, 142, 143, 144, 145, 146, 147, 148, 149, 150, 151, 152, 153, 154, 155, 156, 157, 158, 159, 160, 161, 162, 163, 164, 165, 166, 167, 168, 169, 170, 171, 172, 173, 174, 175, 176, 177, 178, 179, 180, 181, 182, 183, 184, 185, 186, 187, 188, 189, 190, 191, 192, 193, 194, 195, 196, 197, 198, 199, 200, 201, 202, 203, 204, 205, 206, 207, 208, 209, 210, 211, 212, 213, 214, 215, 216, 217, 218, 219, 220, 221, 222, 223, 224, 225, 226, 227, 228, 229, 230, 231, 232, 233, 234, 235, 236, 237, 238, 239, 240, 241, 242, 243, 244, 245, 246, 247, 248, 249, 250, 251, 252, 253, 254, 255, 256, 257, 258, 259, 260, 261, 262, 263, 264, 265, 266, 267, 268, 269, 270, 271, 272, 273, 274, 275, 276, 277, 278, 279, 280],
      "AcquisitionTime": ["133829.605000", "133830.855000", "133832.105000", "133833.355000", "133834.605000", "133835.855000", "133837.105000", "133838.355000", "133839.605000", "133840.855000", "133842.105000", "133843.355000", "133844.605000", "133845.855000", "133847.105000", "133848.355000", "133849.605000", "133850.855000", "133852.105000", "133853.355000", "133854.605000", "133855.855000", "133857.105000", "133858.355000", "133859.605000", "133900.855000", "133902.105000", "133903.355000", "133904.605000", "133905.855000", "133907.105000", "133908.355000", "133909.605000", "133910.855000", "133912.105000", "133913.355000", "133914.605000", "133915.855000", "133917.105000", "133918.355000", "133919.605000", "133920.855000", "133922.105000", "133923.355000", "133924.605000", "133925.855000", "133927.105000", "133928.355000", "133929.605000", "133930.855000", "133932.105000", "133933.355000", "133934.605000", "133935.855000", "133937.105000", "133938.355000", "133939.605000", "133940.855000", "133942.105000", "133943.355000", "133944.605000", "133945.855000", "133947.105000", "133948.355000", "133949.605000", "133950.855000", "133952.105000", "133953.355000", "133954.605000", "133955.855000", "133957.105000", "133958.355000", "133959.605000", "134000.855000", "134002.105000", "134003.355000", "134004.605000", "134005.855000", "134007.105000", "134008.355000", "134009.605000", "134010.855000", "134012.105000", "134013.355000", "134014.605000", "134015.855000", "134017.105000", "134018.355000", "134019.605000", "134020.855000", "134022.105000", "134023.355000", "134024.605000", "134025.855000", "134027.105000", "134028.355000", "134029.605000", "134030.855000", "134032.105000", "134033.355000", "134034.605000", "134035.855000", "134037.105000", "134038.355000", "134039.605000", "134040.855000", "134042.105000", "134043.355000", "134044.605000", "134045.855000", "134047.105000", "134048.355000", "134049.605000", "134050.855000", "134052.105000", "134053.355000", "134054.605000", "134055.855000", "134057.105000", "134058.355000", "134059.605000", "134100.855000", "134102.105000", "134103.355000", "134104.605000", "134105.855000", "134107.105000", "134108.355000", "134109.605000", "134110.855000", "134112.105000", "134113.355000", "134114.605000", "134115.855000", "134117.105000", "134118.355000", "134119.605000", "134120.855000", "134122.105000", "134123.355000", "134124.605000", "134125.855000", "134127.105000", "134128.355000", "134129.605000", "134130.855000", "134132.105000", "134133.355000", "134134.605000", "134135.855000", "134137.105000", "134138.355000", "134139.605000", "134140.855000", "134142.105000", "134143.355000", "134144.605000", "134145.855000", "134147.105000", "134148.355000", "134149.605000", "134150.855000", "134152.105000", "134153.355000", "134154.605000", "134155.855000", "134157.105000", "134158.355000", "134159.605000", "134200.855000", "134202.105000", "134203.355000", "134204.605000", "134205.855000", "134207.105000", "134208.355000", "134209.605000", "134210.855000", "134212.105000", "134213.355000", "134214.605000", "134215.855000", "134217.105000", "134218.355000", "134219.605000", "134220.855000", "134222.105000", "134223.355000", "134224.605000", "134225.855000", "134227.105000", "134228.355000", "134229.605000", "134230.855000", "134232.105000", "134233.355000", "134234.605000", "134235.855000", "134237.105000", "134238.355000", "134239.605000", "134240.855000", "134242.105000", "134243.355000", "134244.605000", "134245.855000", "134247.105000", "134248.355000", "134249.605000", "134250.855000", "134252.105000", "134253.355000", "134254.605000", "134255.855000", "134257.105000", "134258.355000", "134259.605000", "134300.855000", "134302.105000", "134303.355000", "134304.605000", "134305.855000", "134307.105000", "134308.355000", "134309.605000", "134310.855000", "134312.105000", "134313.355000", "134314.605000", "134315.855000", "134317.105000", "134318.355000", "134319.605000", "134320.855000", "134322.105000", "134323.355000", "134324.605000", "134325.855000", "134327.105000", "134328.355000", "134329.605000", "134330.855000", "134332.105000", "134333.355000", "134334.605000", "134335.855000", "134337.105000", "134338.355000", "134339.605000", "134340.855000", "134342.105000", "134343.355000", "134344.605000", "134345.855000", "134347.105000", "134348.355000", "134349.605000", "134350.855000", "134352.105000", "134353.355000", "134354.605000", "134355.855000", "134357.105000", "134358.355000", "134359.605000", "134400.855000", "134402.105000", "134403.355000", "134404.605000", "134405.855000", "134407.105000", "134408.355000", "134409.605000", "134410.855000", "134412.105000", "134413.355000", "134414.605000", "134415.855000", "134417.105000", "134418.355000"],
      "ContentTime": ["133830.877000", "133831.956000", "133833.186000", "133834.466000", "133835.721000", "133836.952000", "133838.215000", "133839.462000", "133840.736000", "133841.972000", "133843.195000", "133844.480000", "133845.724000", "133846.944000", "133848.228000", "133849.451000", "133850.705000", "133851.975000", "133853.201000", "133854.457000", "133855.712000", "133856.975000", "133858.219000", "133859.469000", "133900.702000", "133901.946000", "133903.214000", "133904.470000", "133905.693000", "133906.966000", "133908.224000", "133909.467000", "133910.721000", "133912.002000", "133913.228000", "133914.445000", "133915.696000", "133916.944000", "133918.202000", "133919.443000", "133920.700000", "133921.961000", "133923.239000", "133924.476000", "133925.706000", "133927.001000", "133928.232000", "133929.442000", "133930.713000", "133931.960000", "133933.168000", "133934.464000", "133935.710000", "133936.953000", "133938.222000", "133939.498000", "133940.701000", "133941.939000", "133943.225000", "133944.461000", "133945.735000", "133946.947000", "133948.201000", "133949.438000", "133950.712000", "133951.976000", "133953.224000", "133954.473000", "133955.725000", "133956.953000", "133958.214000", "133959.450000", "134000.728000", "134001.956000", "134003.232000", "134004.452000", "134005.702000", "134006.940000", "134008.180000", "134009.454000", "134010.704000", "134011.952000", "134013.209000", "134014.465000", "134015.680000", "134016.955000", "134018.217000", "134019.467000", "134020.699000", "134021.950000", "134023.212000", "134024.463000", "134025.709000", "134026.963000", "134028.221000", "134029.445000", "134030.699000", "134031.955000", "134033.211000", "134034.417000", "134035.705000", "134036.976000", "134038.246000", "134039.463000", "134040.692000", "134041.982000", "134043.211000", "134044.456000", "134045.703000", "134046.978000", "134048.209000", "134049.448000", "134050.720000", "134051.914000", "134053.216000", "134054.463000", "134055.737000", "134056.912000", "134058.209000", "134059.464000", "134100.725000", "134101.954000", "134103.210000", "134104.474000", "134105.718000", "134106.976000", "134108.199000", "134109.452000", "134110.717000", "134111.982000", "134113.220000", "134114.455000", "134115.723000", "134116.975000", "134118.253000", "134119.450000", "134120.705000", "134121.955000", "134123.212000", "134124.494000", "134125.728000", "134126.977000", "134128.189000", "134129.467000", "134130.730000", "134131.998000", "134133.190000", "134134.475000", "134135.726000", "134136.961000", "134138.247000", "134139.474000", "134140.712000", "134141.963000", "134143.180000", "134144.451000", "134145.683000", "134146.984000", "134148.213000", "134149.460000", "134150.694000", "134151.984000", "134153.246000", "134154.458000", "134155.704000", "134156.953000", "134158.222000", "134159.471000", "134200.721000", "134201.942000", "134203.207000", "134204.459000", "134205.721000", "134206.971000", "134208.284000", "134209.453000", "134210.706000", "134211.966000", "134213.232000", "134214.471000", "134215.718000", "134216.962000", "134218.201000", "134219.441000", "134220.745000", "134221.955000", "134223.208000", "134224.498000", "134225.721000", "134226.964000", "134228.269000", "134229.482000", "134230.745000", "134231.968000", "134233.209000", "134234.508000", "134235.758000", "134236.987000", "134238.205000", "134239.499000", "134240.713000", "134241.943000", "134243.213000", "134244.456000", "134245.693000", "134246.948000", "134248.215000", "134249.437000", "134250.714000", "134251.963000", "134253.211000", "134254.440000", "134255.699000", "134256.948000", "134258.197000", "134259.469000", "134300.698000", "134301.969000", "134303.194000", "134304.454000", "134305.715000", "134306.962000", "134308.223000", "134309.448000", "134310.707000", "134311.941000", "134313.222000", "134314.468000", "134315.706000", "134316.956000", "134318.228000", "134319.476000", "134320.706000", "134321.948000", "134323.235000", "134324.462000", "134325.760000", "134326.973000", "134328.208000", "134329.452000", "134330.715000", "134331.985000", "134333.224000", "134334.460000", "134335.720000", "134336.958000", "134338.243000", "134339.468000", "134340.705000", "134341.963000", "134343.211000", "134344.463000", "134345.733000", "134346.953000", "134348.209000", "134349.461000", "134350.721000", "134351.963000", "134353.201000", "134354.469000", "134355.696000", "134356.941000", "134358.200000", "134359.453000", "134400.714000", "134402.030000", "134403.249000", "134404.501000", "134405.726000", "134406.975000", "134408.227000", "134409.464000", "134410.722000", "134411.970000", "134413.199000", "134414.466000", "134415.718000", "134416.953000", "134418.223000", "134419.522000"],
      "InstanceCreationTime": ["133830.877000", "133831.956000", "133833.186000", "133834.466000", "133835.721000", "133836.952000", "133838.215000", "133839.462000", "133840.736000", "133841.972000", "133843.195000", "133844.480000", "133845.724000", "133846.944000", "133848.228000", "133849.451000", "133850.705000", "133851.975000", "133853.201000", "133854.457000", "133855.712000", "133856.975000", "133858.219000", "133859.469000", "133900.702000", "133901.946000", "133903.214000", "133904.470000", "133905.693000", "133906.966000", "133908.224000", "133909.467000", "133910.721000", "133912.002000", "133913.228000", "133914.445000", "133915.696000", "133916.944000", "133918.202000", "133919.443000", "133920.700000", "133921.961000", "133923.239000", "133924.476000", "133925.706000", "133927.001000", "133928.232000", "133929.442000", "133930.713000", "133931.960000", "133933.168000", "133934.464000", "133935.710000", "133936.953000", "133938.222000", "133939.498000", "133940.701000", "133941.939000", "133943.225000", "133944.461000", "133945.735000", "133946.947000", "133948.201000", "133949.438000", "133950.712000", "133951.976000", "133953.224000", "133954.473000", "133955.725000", "133956.953000", "133958.214000", "133959.450000", "134000.728000", "134001.956000", "134003.232000", "134004.452000", "134005.702000", "134006.940000", "134008.180000", "134009.454000", "134010.704000", "134011.952000", "134013.209000", "134014.465000", "134015.680000", "134016.955000", "134018.217000", "134019.467000", "134020.699000", "134021.950000", "134023.212000", "134024.463000", "134025.709000", "134026.963000", "134028.221000", "134029.445000", "134030.699000", "134031.955000", "134033.211000", "134034.417000", "134035.705000", "134036.976000", "134038.246000", "134039.463000", "134040.692000", "134041.982000", "134043.211000", "134044.456000", "134045.703000", "134046.978000", "134048.209000", "134049.448000", "134050.720000", "134051.914000", "134053.216000", "134054.463000", "134055.737000", "134056.912000", "134058.209000", "134059.464000", "134100.725000", "134101.954000", "134103.210000", "134104.474000", "134105.718000", "134106.976000", "134108.199000", "134109.452000", "134110.717000", "134111.982000", "134113.220000", "134114.455000", "134115.723000", "134116.975000", "134118.253000", "134119.450000", "134120.705000", "134121.955000", "134123.212000", "134124.494000", "134125.728000", "134126.977000", "134128.189000", "134129.467000", "134130.730000", "134131.998000", "134133.190000", "134134.475000", "134135.726000", "134136.961000", "134138.247000", "134139.474000", "134140.712000", "134141.963000", "134143.180000", "134144.451000", "134145.683000", "134146.984000", "134148.213000", "134149.460000", "134150.694000", "134151.984000", "134153.246000", "134154.458000", "134155.704000", "134156.953000", "134158.222000", "134159.471000", "134200.721000", "134201.942000", "134203.207000", "134204.459000", "134205.721000", "134206.971000", "134208.284000", "134209.453000", "134210.706000", "134211.966000", "134213.232000", "134214.471000", "134215.718000", "134216.962000", "134218.201000", "134219.441000", "134220.745000", "134221.955000", "134223.208000", "134224.498000", "134225.721000", "134226.964000", "134228.269000", "134229.482000", "134230.745000", "134231.968000", "134233.209000", "134234.508000", "134235.758000", "134236.987000", "134238.205000", "134239.499000", "134240.713000", "134241.943000", "134243.213000", "134244.456000", "134245.693000", "134246.948000", "134248.215000", "134249.437000", "134250.714000", "134251.963000", "134253.211000", "134254.440000", "134255.699000", "134256.948000", "134258.197000", "134259.469000", "134300.698000", "134301.969000", "134303.194000", "134304.454000", "134305.715000", "134306.962000", "134308.223000", "134309.448000", "134310.707000", "134311.941000", "134313.222000", "134314.468000", "134315.706000", "134316.956000", "134318.228000", "134319.476000", "134320.706000", "134321.948000", "134323.235000", "134324.462000", "134325.760000", "134326.973000", "134328.208000", "134329.452000", "134330.715000", "134331.985000", "134333.224000", "134334.460000", "134335.720000", "134336.958000", "134338.243000", "134339.468000", "134340.705000", "134341.963000", "134343.211000", "134344.463000", "134345.733000", "134346.953000", "134348.209000", "134349.461000", "134350.721000", "134351.963000", "134353.201000", "134354.469000", "134355.696000", "134356.941000", "134358.200000", "134359.453000", "134400.714000", "134402.030000", "134403.249000", "134404.501000", "134405.726000", "134406.975000", "134408.227000", "134409.464000", "134410.722000", "134411.970000", "134413.199000", "134414.466000", "134415.718000", "134416.953000", "134418.223000", "134419.522000"],
      "InstanceNumber": [1, 2, 3, 4, 5, 6, 7, 8, 9, 10, 11, 12, 13, 14, 15, 16, 17, 18, 19, 20, 21, 22, 23, 24, 25, 26, 27, 28, 29, 30, 31, 32, 33, 34, 35, 36, 37, 38, 39, 40, 41, 42, 43, 44, 45, 46, 47, 48, 49, 50, 51, 52, 53, 54, 55, 56, 57, 58, 59, 60, 61, 62, 63, 64, 65, 66, 67, 68, 69, 70, 71, 72, 73, 74, 75, 76, 77, 78, 79, 80, 81, 82, 83, 84, 85, 86, 87, 88, 89, 90, 91, 92, 93, 94, 95, 96, 97, 98, 99, 100, 101, 102, 103, 104, 105, 106, 107, 108, 109, 110, 111, 112, 113, 114, 115, 116, 117, 118, 119, 120, 121, 122, 123, 124, 125, 126, 127, 128, 129, 130, 131, 132, 133, 134, 135, 136, 137, 138, 139, 140, 141, 142, 143, 144, 145, 146, 147, 148, 149, 150, 151, 152, 153, 154, 155, 156, 157, 158, 159, 160, 161, 162, 163, 164, 165, 166, 167, 168, 169, 170, 171, 172, 173, 174, 175, 176, 177, 178, 179, 180, 181, 182, 183, 184, 185, 186, 187, 188, 189, 190, 191, 192, 193, 194, 195, 196, 197, 198, 199, 200, 201, 202, 203, 204, 205, 206, 207, 208, 209, 210, 211, 212, 213, 214, 215, 216, 217, 218, 219, 220, 221, 222, 223, 224, 225, 226, 227, 228, 229, 230, 231, 232, 233, 234, 235, 236, 237, 238, 239, 240, 241, 242, 243, 244, 245, 246, 247, 248, 249, 250, 251, 252, 253, 254, 255, 256, 257, 258, 259, 260, 261, 262, 263, 264, 265, 266, 267, 268, 269, 270, 271, 272, 273, 274, 275, 276, 277, 278, 279, 280],
      "LargestImagePixelValue": [1086, 955, 931, 788, 861, 925, 754, 801, 777, 746, 778, 695, 691, 875, 660, 912, 951, 1071, 859, 709, 739, 713, 849, 837, 821, 757, 712, 730, 678, 741, 968, 960, 925, 842, 807, 810, 878, 859, 732, 916, 942, 887, 901, 816, 844, 974, 791, 831, 918, 1045, 810, 807, 780, 770, 789, 875, 795, 645, 690, 707, 784, 951, 1068, 893, 844, 769, 800, 752, 855, 843, 717, 703, 655, 670, 671, 674, 837, 730, 748, 771, 878, 1006, 916, 864, 884, 928, 930, 845, 915, 854, 810, 803, 946, 885, 853, 801, 827, 801, 739, 734, 832, 1042, 731, 721, 673, 726, 659, 721, 767, 978, 879, 842, 777, 759, 921, 1048, 928, 900, 750, 795, 751, 752, 757, 804, 867, 826, 884, 749, 736, 701, 817, 1025, 1032, 930, 858, 841, 840, 802, 765, 778, 1002, 760, 665, 744, 665, 713, 773, 841, 1070, 1022, 990, 917, 815, 886, 753, 830, 936, 837, 776, 797, 776, 786, 781, 775, 833, 727, 699, 671, 729, 819, 905, 900, 881, 834, 780, 831, 885, 901, 755, 797, 723, 705, 745, 648, 657, 649, 654, 683, 808, 1031, 930, 898, 815, 822, 963, 1066, 980, 910, 818, 765, 709, 735, 778, 800, 759, 767, 866, 871, 836, 831, 810, 783, 823, 998, 845, 898, 851, 820, 780, 786, 794, 726, 721, 637, 671, 667, 748, 788, 848, 869, 842, 795, 831, 789, 806, 804, 817, 841, 811, 868, 730, 746, 629, 659, 612, 682, 660, 648, 750, 652, 656, 688, 787, 801, 848, 1048, 973, 707, 639, 643, 678, 754, 679, 761, 688, 668, 699, 708, 810, 943, 953, 1040, 986, 924, 763, 709, 636, 653, 747, 853],
      "WindowCenter": [334.0, 331.0, 330.0, 328.0, 329.0, 330.0, 329.0, 329.0, 329.0, 330.0, 331.0, 328.0, 328.0, 331.0, 329.0, 331.0, 331.0, 332.0, 329.0, 327.0, 329.0, 329.0, 331.0, 331.0, 331.0, 330.0, 330.0, 330.0, 330.0, 331.0, 333.0, 333.0, 333.0, 331.0, 332.0, 331.0, 332.0, 331.0, 330.0, 331.0, 332.0, 331.0, 332.0, 331.0, 331.0, 332.0, 330.0, 331.0, 331.0, 332.0, 330.0, 331.0, 330.0, 330.0, 330.0, 331.0, 330.0, 328.0, 329.0, 329.0, 330.0, 333.0, 333.0, 331.0, 331.0, 329.0, 330.0, 330.0, 331.0, 330.0, 328.0, 328.0, 328.0, 328.0, 328.0, 328.0, 331.0, 329.0, 330.0, 330.0, 332.0, 332.0, 332.0, 331.0, 331.0, 332.0, 332.0, 331.0, 331.0, 331.0, 331.0, 330.0, 332.0, 331.0, 331.0, 329.0, 330.0, 330.0, 329.0, 329.0, 331.0, 332.0, 329.0, 328.0, 328.0, 328.0, 328.0, 329.0, 330.0, 332.0, 331.0, 330.0, 329.0, 329.0, 332.0, 332.0, 331.0, 331.0, 329.0, 329.0, 329.0, 329.0, 330.0, 330.0, 331.0, 330.0, 330.0, 329.0, 329.0, 329.0, 331.0, 333.0, 332.0, 331.0, 330.0, 330.0, 330.0, 330.0, 330.0, 330.0, 332.0, 329.0, 327.0, 328.0, 328.0, 329.0, 330.0, 331.0, 332.0, 332.0, 331.0, 330.0, 329.0, 331.0, 330.0, 331.0, 332.0, 331.0, 330.0, 330.0, 329.0, 330.0, 330.0, 330.0, 331.0, 329.0, 328.0, 328.0, 329.0, 330.0, 331.0, 331.0, 331.0, 331.0, 330.0, 331.0, 331.0, 331.0, 329.0, 329.0, 328.0, 328.0, 329.0, 327.0, 328.0, 328.0, 328.0, 328.0, 330.0, 332.0, 331.0, 331.0, 330.0, 331.0, 331.0, 332.0, 331.0, 330.0, 329.0, 329.0, 328.0, 329.0, 329.0, 330.0, 329.0, 329.0, 330.0, 331.0, 329.0, 330.0, 329.0, 329.0, 329.0, 331.0, 330.0, 330.0, 330.0, 329.0, 329.0, 330.0, 330.0, 329.0, 328.0, 327.0, 328.0, 327.0, 328.0, 329.0, 330.0, 331.0, 330.0, 329.0, 330.0, 329.0, 329.0, 330.0, 331.0, 330.0, 330.0, 330.0, 329.0, 328.0, 326.0, 327.0, 327.0, 328.0, 328.0, 327.0, 330.0, 327.0, 327.0, 328.0, 330.0, 330.0, 331.0, 332.0, 332.0, 328.0, 327.0, 327.0, 328.0, 330.0, 328.0, 330.0, 328.0, 328.0, 329.0, 330.0, 332.0, 333.0, 332.0, 332.0, 332.0, 331.0, 329.0, 328.0, 327.0, 328.0, 329.0, 331.0],
      "WindowWidth": [718.0, 713.0, 710.0, 707.0, 709.0, 710.0, 709.0, 709.0, 710.0, 712.0, 713.0, 709.0, 708.0, 713.0, 709.0, 712.0, 712.0, 713.0, 709.0, 707.0, 709.0, 709.0, 712.0, 712.0, 712.0, 712.0, 711.0, 712.0, 711.0, 713.0, 715.0, 716.0, 715.0, 713.0, 714.0, 713.0, 714.0, 713.0, 710.0, 713.0, 714.0, 713.0, 714.0, 712.0, 713.0, 714.0, 711.0, 712.0, 712.0, 714.0, 711.0, 712.0, 711.0, 712.0, 711.0, 713.0, 711.0, 708.0, 709.0, 710.0, 712.0, 715.0, 715.0, 713.0, 712.0, 710.0, 711.0, 710.0, 712.0, 711.0, 708.0, 707.0, 707.0, 707.0, 708.0, 709.0, 712.0, 709.0, 710.0, 711.0, 714.0, 714.0, 713.0, 713.0, 713.0, 714.0, 713.0, 712.0, 712.0, 712.0, 712.0, 711.0, 714.0, 712.0, 712.0, 710.0, 711.0, 711.0, 709.0, 709.0, 712.0, 713.0, 709.0, 708.0, 707.0, 708.0, 708.0, 709.0, 711.0, 713.0, 711.0, 711.0, 710.0, 710.0, 713.0, 714.0, 713.0, 711.0, 709.0, 709.0, 709.0, 710.0, 710.0, 711.0, 712.0, 711.0, 710.0, 709.0, 709.0, 710.0, 712.0, 714.0, 713.0, 712.0, 710.0, 711.0, 711.0, 711.0, 710.0, 711.0, 713.0, 709.0, 706.0, 708.0, 708.0, 709.0, 711.0, 712.0, 714.0, 713.0, 712.0, 711.0, 710.0, 711.0, 711.0, 712.0, 713.0, 712.0, 710.0, 711.0, 710.0, 711.0, 711.0, 711.0, 712.0, 710.0, 708.0, 708.0, 709.0, 711.0, 713.0, 712.0, 713.0, 712.0, 711.0, 712.0, 712.0, 713.0, 709.0, 710.0, 708.0, 708.0, 709.0, 707.0, 707.0, 708.0, 709.0, 709.0, 711.0, 714.0, 712.0, 711.0, 710.0, 712.0, 713.0, 714.0, 712.0, 711.0, 709.0, 709.0, 707.0, 709.0, 710.0, 711.0, 709.0, 710.0, 710.0, 711.0, 709.0, 710.0, 709.0, 710.0, 710.0, 712.0, 710.0, 711.0, 710.0, 709.0, 710.0, 710.0, 711.0, 709.0, 708.0, 707.0, 707.0, 707.0, 708.0, 710.0, 710.0, 711.0, 710.0, 709.0, 710.0, 709.0, 710.0, 711.0, 712.0, 711.0, 711.0, 710.0, 709.0, 708.0, 706.0, 706.0, 706.0, 709.0, 708.0, 707.0, 710.0, 707.0, 707.0, 709.0, 711.0, 711.0, 713.0, 714.0, 713.0, 708.0, 707.0, 707.0, 709.0, 710.0, 709.0, 710.0, 708.0, 708.0, 709.0, 711.0, 713.0, 715.0, 714.0, 714.0, 713.0, 711.0, 709.0, 707.0, 707.0, 707.0, 710.0, 712.0]
    },
    "slices": {}
  }
}