{
  "AcquisitionMatrixPE": 96,
  "AcquisitionNumber": 1,
  "AcquisitionTime": "15:37:45.142500",
  "BandwidthPerPixelPhaseEncode": 18.939,
  "BaseResolution": 96,
  "BodyPartExamined": "BRAIN",
  "ConsistencyInfo": "N4_VE11C_LATEST_20160120",
  "ConversionSoftware": "dcm2niix",
  "ConversionSoftwareVersion": "v1.0.20170923 (OpenJPEG build) GCC6.3.0",
  "DerivedVendorReportedEchoSpacing": 0.000550011,
  "DeviceSerialNumber": "66112",
  "DwellTime": 2.3e-06,
  "EchoTime": 0.033,
  "EchoTrainLength": 96,
  "EffectiveEchoSpacing": 0.000550011,
  "FlipAngle": 64,
  "ImageType": [
    "ORIGINAL",
    "PRIMARY",
    "FMRI",
    "NONE",
    "ND",
    "NORM",
    "MOSAIC"
],
  "InstitutionAddress": "Maynard_3_Hanover_NH_US_03755",
  "InstitutionName": "Dartmouth_College_-_PBS",
  "MagneticFieldStrength": 3,
  "Manufacturer": "Siemens",
  "ManufacturersModelName": "Prisma",
  "Modality": "MR",
  "MultibandAccelerationFactor": 4,
  "PartialFourier": 1,
  "PercentPhaseFOV": 100,
  "PhaseEncodingDirection": "j-",
  "PhaseEncodingSteps": 96,
  "PhaseResolution": 1,
  "ProcedureStepDescription": "Gobbini_Matteo_1017_famface-angles",
  "ProtocolName": "func_run-02_task-str1back",
  "PulseSequenceDetails": "%SiemensSeq%_ep2d_bold",
  "ReceiveCoilActiveElements": "HEA;HEP",
  "ReceiveCoilName": "Head_32",
  "ReconMatrixPE": 96,
  "RepetitionTime": 1.25,
  "ScanOptions": "FS",
  "ScanningSequence": "EP",
  "SequenceName": "_epfid2d1_96",
  "SequenceVariant": "SK",
  "SeriesDescription": "func_run-02_task-str1back",
  "SliceTiming": [0.88, 0, 0.615, 0.0875, 0.7025, 0.1775, 0.7925, 0.3525, 0.9675, 0.44, 1.055, 0.5275, 1.1425, 0.265, 0.88, 0, 0.615, 0.0875, 0.7025, 0.1775, 0.7925, 0.3525, 0.9675, 0.44, 1.055, 0.5275, 1.1425, 0.265, 0.88, 0, 0.615, 0.0875, 0.7025, 0.1775, 0.7925, 0.3525, 0.9675, 0.44, 1.055, 0.5275, 1.1425, 0.265, 0.88, 0, 0.615, 0.0875, 0.7025, 0.1775, 0.7925, 0.3525, 0.9675, 0.44, 1.055, 0.5275, 1.1425, 0.265],
  "SoftwareVersions": "syngo_MR_E11",
  "StationName": "AWP66112",
  "TaskName": "str1back",
  "TotalReadoutTime": 0.0522511,
  "dcmmeta_affine": [
    [-2.4999420642852783, 0.008290061727166176, -0.014884415082633495, 123.82583618164062],
    [0.009952063672244549, 2.4832870960235596, -0.28842103481292725, -86.02306365966797],
    [-0.013828498311340809, 0.28847357630729675, 2.483262300491333, -81.70022583007812],
    [0.0, 0.0, 0.0, 1.0]
],
  "dcmmeta_reorient_transform": [
    [0.0, -1.0, 0.0, 95.0],
    [1.0, 0.0, 0.0, 0.0],
    [0.0, 0.0, 1.0, 0.0],
    [0.0, 0.0, 0.0, 1.0]
],
  "dcmmeta_shape": [96, 96, 56, 280],
  "dcmmeta_slice_dim": 2,
  "dcmmeta_version": 0.6,
  "global": {
    "const": {
      "AccessionNumber": "A000457",
      "AcquisitionMatrix": [96, 0, 0, 96],
      "AngioFlag": "N",
      "BitsAllocated": 16,
      "BitsStored": 12,
      "BodyPartExamined": "BRAIN",
      "Columns": 768,
      "EchoNumbers": 1,
      "EchoTime": 33.0,
      "EchoTrainLength": 96,
      "FlipAngle": 64.0,
      "HighBit": 11,
      "ImageOrientationPatient": [0.99997677805618, -0.0039808254013, -0.0055313992362, 0.00331602474293, 0.99331479521049, -0.115389434507],
      "ImagePositionPatient": [-967.37934573018, -980.92973562007, 47.278267666432],
      "ImageType": [
        "ORIGINAL",
        "PRIMARY",
        "FMRI",
        "NONE",
        "ND",
        "NORM",
        "MOSAIC"
],
      "ImagedNucleus": "1H",
      "ImagingFrequency": 123.252361,
      "InPlanePhaseEncodingDirection": "COL",
      "MRAcquisitionType": "2D",
      "MagneticFieldStrength": 3.0,
      "Manufacturer": "SIEMENS",
      "ManufacturerModelName": "Prisma",
      "Modality": "MR",
      "NumberOfAverages": 1.0,
      "NumberOfPhaseEncodingSteps": 96,
      "PercentPhaseFieldOfView": 100.0,
      "PercentSampling": 100.0,
      "PerformedProcedureStepStartTime": "152148.325000",
      "PhotometricInterpretation": "MONOCHROME2",
      "PixelBandwidth": 2265.0,
      "PixelRepresentation": 0,
      "PixelSpacing": [2.5, 2.5],
      "PositionReferenceIndicator": "",
      "ProtocolName": "func_run-02_task-str1back",
      "RepetitionTime": 1250.0,
      "Rows": 768,
      "SAR": 0.06135301516132,
      "SamplesPerPixel": 1,
      "ScanOptions": "FS",
      "ScanningSequence": "EP",
      "SequenceName": "*epfid2d1_96",
      "SequenceVariant": "SK",
      "SeriesDescription": "func_run-02_task-str1back",
      "SeriesNumber": 15,
      "SeriesTime": "153746.405000",
      "SliceLocation": -71.966120396205,
      "SliceThickness": 2.5,
      "SmallestImagePixelValue": 0,
      "SoftwareVersions": "syngo MR E11",
      "SpacingBetweenSlices": 2.5000000332155,
      "SpecificCharacterSet": "ISO_IR 100",
      "StudyID": "1",
      "StudyTime": "152148.263000",
      "TransmitCoilName": "Body",
      "VariableFlipAngleFlag": "N",
      "WindowCenterWidthExplanation": "Algo1",
      "dBdt": 0.0},
    "slices": {}
  },
  "time": {
    "samples": {
      "AcquisitionNumber": [1, 2, 3, 4, 5, 6, 7, 8, 9, 10, 11, 12, 13, 14, 15, 16, 17, 18, 19, 20, 21, 22, 23, 24, 25, 26, 27, 28, 29, 30, 31, 32, 33, 34, 35, 36, 37, 38, 39, 40, 41, 42, 43, 44, 45, 46, 47, 48, 49, 50, 51, 52, 53, 54, 55, 56, 57, 58, 59, 60, 61, 62, 63, 64, 65, 66, 67, 68, 69, 70, 71, 72, 73, 74, 75, 76, 77, 78, 79, 80, 81, 82, 83, 84, 85, 86, 87, 88, 89, 90, 91, 92, 93, 94, 95, 96, 97, 98, 99, 100, 101, 102, 103, 104, 105, 106, 107, 108, 109, 110, 111, 112, 113, 114, 115, 116, 117, 118, 119, 120, 121, 122, 123, 124, 125, 126, 127, 128, 129, 130, 131, 132, 133, 134, 135, 136, 137, 138, 139, 140, 141, 142, 143, 144, 145, 146, 147, 148, 149, 150, 151, 152, 153, 154, 155, 156, 157, 158, 159, 160, 161, 162, 163, 164, 165, 166, 167, 168, 169, 170, 171, 172, 173, 174, 175, 176, 177, 178, 179, 180, 181, 182, 183, 184, 185, 186, 187, 188, 189, 190, 191, 192, 193, 194, 195, 196, 197, 198, 199, 200, 201, 202, 203, 204, 205, 206, 207, 208, 209, 210, 211, 212, 213, 214, 215, 216, 217, 218, 219, 220, 221, 222, 223, 224, 225, 226, 227, 228, 229, 230, 231, 232, 233, 234, 235, 236, 237, 238, 239, 240, 241, 242, 243, 244, 245, 246, 247, 248, 249, 250, 251, 252, 253, 254, 255, 256, 257, 258, 259, 260, 261, 262, 263, 264, 265, 266, 267, 268, 269, 270, 271, 272, 273, 274, 275, 276, 277, 278, 279, 280],
      "AcquisitionTime": ["153745.142500", "153746.392500", "153747.642500", "153748.892500", "153750.142500", "153751.392500", "153752.642500", "153753.892500", "153755.142500", "153756.392500", "153757.642500", "153758.892500", "153800.142500", "153801.392500", "153802.642500", "153803.892500", "153805.142500", "153806.392500", "153807.642500", "153808.892500", "153810.142500", "153811.392500", "153812.642500", "153813.892500", "153815.142500", "153816.392500", "153817.642500", "153818.892500", "153820.142500", "153821.392500", "153822.642500", "153823.892500", "153825.142500", "153826.392500", "153827.642500", "153828.892500", "153830.142500", "153831.392500", "153832.642500", "153833.892500", "153835.142500", "153836.392500", "153837.642500", "153838.892500", "153840.142500", "153841.392500", "153842.642500", "153843.892500", "153845.142500", "153846.392500", "153847.642500", "153848.892500", "153850.142500", "153851.392500", "153852.642500", "153853.892500", "153855.142500", "153856.392500", "153857.642500", "153858.892500", "153900.142500", "153901.392500", "153902.642500", "153903.892500", "153905.142500", "153906.392500", "153907.642500", "153908.892500", "153910.142500", "153911.392500", "153912.642500", "153913.892500", "153915.142500", "153916.392500", "153917.642500", "153918.892500", "153920.142500", "153921.392500", "153922.642500", "153923.892500", "153925.142500", "153926.392500", "153927.642500", "153928.892500", "153930.142500", "153931.392500", "153932.642500", "153933.892500", "153935.142500", "153936.392500", "153937.642500", "153938.892500", "153940.142500", "153941.392500", "153942.642500", "153943.892500", "153945.142500", "153946.392500", "153947.642500", "153948.892500", "153950.142500", "153951.392500", "153952.642500", "153953.892500", "153955.142500", "153956.392500", "153957.642500", "153958.892500", "154000.142500", "154001.392500", "154002.642500", "154003.892500", "154005.142500", "154006.392500", "154007.642500", "154008.892500", "154010.142500", "154011.392500", "154012.642500", "154013.892500", "154015.142500", "154016.392500", "154017.642500", "154018.892500", "154020.142500", "154021.392500", "154022.642500", "154023.892500", "154025.142500", "154026.392500", "154027.642500", "154028.892500", "154030.142500", "154031.392500", "154032.642500", "154033.892500", "154035.142500", "154036.392500", "154037.642500", "154038.892500", "154040.142500", "154041.392500", "154042.642500", "154043.892500", "154045.142500", "154046.392500", "154047.642500", "154048.892500", "154050.142500", "154051.392500", "154052.642500", "154053.892500", "154055.142500", "154056.392500", "154057.642500", "154058.892500", "154100.142500", "154101.392500", "154102.642500", "154103.892500", "154105.142500", "154106.392500", "154107.642500", "154108.892500", "154110.142500", "154111.392500", "154112.642500", "154113.892500", "154115.142500", "154116.392500", "154117.642500", "154118.892500", "154120.142500", "154121.392500", "154122.642500", "154123.892500", "154125.142500", "154126.392500", "154127.642500", "154128.892500", "154130.142500", "154131.392500", "154132.642500", "154133.892500", "154135.142500", "154136.392500", "154137.642500", "154138.892500", "154140.142500", "154141.392500", "154142.642500", "154143.892500", "154145.142500", "154146.392500", "154147.642500", "154148.892500", "154150.142500", "154151.392500", "154152.642500", "154153.892500", "154155.142500", "154156.392500", "154157.642500", "154158.892500", "154200.142500", "154201.392500", "154202.642500", "154203.892500", "154205.142500", "154206.392500", "154207.642500", "154208.892500", "154210.142500", "154211.392500", "154212.642500", "154213.892500", "154215.142500", "154216.392500", "154217.642500", "154218.892500", "154220.142500", "154221.392500", "154222.642500", "154223.892500", "154225.142500", "154226.392500", "154227.642500", "154228.892500", "154230.142500", "154231.392500", "154232.642500", "154233.892500", "154235.142500", "154236.392500", "154237.642500", "154238.892500", "154240.142500", "154241.392500", "154242.642500", "154243.892500", "154245.142500", "154246.392500", "154247.642500", "154248.892500", "154250.142500", "154251.392500", "154252.642500", "154253.892500", "154255.142500", "154256.392500", "154257.642500", "154258.892500", "154300.142500", "154301.392500", "154302.642500", "154303.892500", "154305.142500", "154306.392500", "154307.642500", "154308.892500", "154310.142500", "154311.392500", "154312.642500", "154313.892500", "154315.142500", "154316.392500", "154317.642500", "154318.892500", "154320.142500", "154321.392500", "154322.642500", "154323.892500", "154325.142500", "154326.392500", "154327.642500", "154328.892500", "154330.142500", "154331.392500", "154332.642500", "154333.892500"],
      "ContentTime": ["153746.409000", "153747.408000", "153748.632000", "153749.877000", "153751.131000", "153752.391000", "153753.653000", "153754.902000", "153756.177000", "153757.374000", "153758.606000", "153759.899000", "153801.129000", "153802.407000", "153803.643000", "153804.870000", "153806.119000", "153807.378000", "153808.627000", "153809.900000", "153811.146000", "153812.362000", "153813.625000", "153814.906000", "153816.134000", "153817.376000", "153818.639000", "153819.890000", "153821.151000", "153822.398000", "153823.635000", "153824.870000", "153826.124000", "153827.408000", "153828.639000", "153829.869000", "153831.138000", "153832.384000", "153833.687000", "153834.875000", "153836.109000", "153837.366000", "153838.590000", "153839.877000", "153841.181000", "153842.384000", "153843.662000", "153844.875000", "153846.137000", "153847.400000", "153848.647000", "153849.889000", "153851.128000", "153852.366000", "153853.635000", "153854.875000", "153856.130000", "153857.390000", "153858.655000", "153859.908000", "153901.114000", "153902.389000", "153903.630000", "153904.905000", "153906.180000", "153907.368000", "153908.625000", "153909.879000", "153911.158000", "153912.398000", "153913.616000", "153914.876000", "153916.127000", "153917.415000", "153918.646000", "153919.878000", "153921.123000", "153922.408000", "153923.651000", "153924.877000", "153926.142000", "153927.391000", "153928.636000", "153929.896000", "153931.123000", "153932.422000", "153933.643000", "153934.901000", "153936.136000", "153937.397000", "153938.618000", "153939.892000", "153941.120000", "153942.374000", "153943.587000", "153944.891000", "153946.146000", "153947.394000", "153948.692000", "153949.864000", "153951.189000", "153952.417000", "153953.691000", "153954.896000", "153956.116000", "153957.374000", "153958.642000", "153959.893000", "154001.175000", "154002.375000", "154003.650000", "154004.908000", "154006.188000", "154007.416000", "154008.653000", "154009.894000", "154011.175000", "154012.414000", "154013.648000", "154014.891000", "154016.232000", "154017.385000", "154018.696000", "154019.913000", "154021.207000", "154022.390000", "154023.661000", "154024.936000", "154026.154000", "154027.382000", "154028.623000", "154029.896000", "154031.132000", "154032.408000", "154033.634000", "154034.906000", "154036.161000", "154037.469000", "154038.632000", "154039.890000", "154041.172000", "154042.423000", "154043.603000", "154044.893000", "154046.136000", "154047.406000", "154048.714000", "154049.907000", "154051.159000", "154052.410000", "154053.638000", "154054.868000", "154056.122000", "154057.433000", "154058.642000", "154059.911000", "154101.156000", "154102.395000", "154103.643000", "154104.899000", "154106.147000", "154107.404000", "154108.686000", "154109.907000", "154111.163000", "154112.405000", "154113.647000", "154114.868000", "154116.194000", "154117.391000", "154118.652000", "154119.953000", "154121.151000", "154122.394000", "154123.675000", "154124.884000", "154126.173000", "154127.401000", "154128.630000", "154129.872000", "154131.151000", "154132.430000", "154133.633000", "154134.898000", "154136.209000", "154137.394000", "154138.658000", "154139.858000", "154141.135000", "154142.369000", "154143.673000", "154144.899000", "154146.133000", "154147.390000", "154148.700000", "154149.872000", "154151.122000", "154152.387000", "154153.627000", "154154.904000", "154156.118000", "154157.392000", "154158.664000", "154159.892000", "154201.127000", "154202.408000", "154203.627000", "154204.876000", "154206.124000", "154207.381000", "154208.633000", "154209.938000", "154211.134000", "154212.390000", "154213.641000", "154214.920000", "154216.141000", "154217.420000", "154218.684000", "154219.876000", "154221.126000", "154222.381000", "154223.639000", "154224.900000", "154226.194000", "154227.496000", "154228.686000", "154229.873000", "154231.157000", "154232.396000", "154233.645000", "154234.890000", "154236.152000", "154237.379000", "154238.612000", "154239.882000", "154241.144000", "154242.371000", "154243.648000", "154244.897000", "154246.126000", "154247.383000", "154248.613000", "154249.880000", "154251.140000", "154252.386000", "154253.640000", "154254.894000", "154256.138000", "154257.386000", "154258.645000", "154259.884000", "154301.143000", "154302.397000", "154303.632000", "154304.914000", "154306.159000", "154307.423000", "154308.630000", "154309.877000", "154311.125000", "154312.432000", "154313.617000", "154314.900000", "154316.141000", "154317.397000", "154318.636000", "154319.896000", "154321.128000", "154322.391000", "154323.619000", "154324.874000", "154326.124000", "154327.401000", "154328.650000", "154329.891000", "154331.132000", "154332.388000", "154333.671000", "154334.944000"],
      "InstanceCreationTime": ["153746.409000", "153747.408000", "153748.632000", "153749.877000", "153751.131000", "153752.391000", "153753.653000", "153754.902000", "153756.177000", "153757.374000", "153758.606000", "153759.899000", "153801.129000", "153802.407000", "153803.643000", "153804.870000", "153806.119000", "153807.378000", "153808.627000", "153809.900000", "153811.146000", "153812.362000", "153813.625000", "153814.906000", "153816.134000", "153817.376000", "153818.639000", "153819.890000", "153821.151000", "153822.398000", "153823.635000", "153824.870000", "153826.124000", "153827.408000", "153828.639000", "153829.869000", "153831.138000", "153832.384000", "153833.687000", "153834.875000", "153836.109000", "153837.366000", "153838.590000", "153839.877000", "153841.181000", "153842.384000", "153843.662000", "153844.875000", "153846.137000", "153847.400000", "153848.647000", "153849.889000", "153851.128000", "153852.366000", "153853.635000", "153854.875000", "153856.130000", "153857.390000", "153858.655000", "153859.908000", "153901.114000", "153902.389000", "153903.630000", "153904.905000", "153906.180000", "153907.368000", "153908.625000", "153909.879000", "153911.158000", "153912.398000", "153913.616000", "153914.876000", "153916.127000", "153917.415000", "153918.646000", "153919.878000", "153921.123000", "153922.408000", "153923.651000", "153924.877000", "153926.142000", "153927.391000", "153928.636000", "153929.896000", "153931.123000", "153932.422000", "153933.643000", "153934.901000", "153936.136000", "153937.397000", "153938.618000", "153939.892000", "153941.120000", "153942.374000", "153943.587000", "153944.891000", "153946.146000", "153947.394000", "153948.692000", "153949.864000", "153951.189000", "153952.417000", "153953.691000", "153954.896000", "153956.116000", "153957.374000", "153958.642000", "153959.893000", "154001.175000", "154002.375000", "154003.650000", "154004.908000", "154006.188000", "154007.416000", "154008.653000", "154009.894000", "154011.175000", "154012.414000", "154013.648000", "154014.891000", "154016.232000", "154017.385000", "154018.696000", "154019.913000", "154021.207000", "154022.390000", "154023.661000", "154024.936000", "154026.154000", "154027.382000", "154028.623000", "154029.896000", "154031.132000", "154032.408000", "154033.634000", "154034.906000", "154036.161000", "154037.469000", "154038.632000", "154039.890000", "154041.172000", "154042.423000", "154043.603000", "154044.893000", "154046.136000", "154047.406000", "154048.714000", "154049.907000", "154051.159000", "154052.410000", "154053.638000", "154054.868000", "154056.122000", "154057.433000", "154058.642000", "154059.911000", "154101.156000", "154102.395000", "154103.643000", "154104.899000", "154106.147000", "154107.404000", "154108.686000", "154109.907000", "154111.163000", "154112.405000", "154113.647000", "154114.868000", "154116.194000", "154117.391000", "154118.652000", "154119.953000", "154121.151000", "154122.394000", "154123.675000", "154124.884000", "154126.173000", "154127.401000", "154128.630000", "154129.872000", "154131.151000", "154132.430000", "154133.633000", "154134.898000", "154136.209000", "154137.394000", "154138.658000", "154139.858000", "154141.135000", "154142.369000", "154143.673000", "154144.899000", "154146.133000", "154147.390000", "154148.700000", "154149.872000", "154151.122000", "154152.387000", "154153.627000", "154154.904000", "154156.118000", "154157.392000", "154158.664000", "154159.892000", "154201.127000", "154202.408000", "154203.627000", "154204.876000", "154206.124000", "154207.381000", "154208.633000", "154209.938000", "154211.134000", "154212.390000", "154213.641000", "154214.920000", "154216.141000", "154217.420000", "154218.684000", "154219.876000", "154221.126000", "154222.381000", "154223.639000", "154224.900000", "154226.194000", "154227.496000", "154228.686000", "154229.873000", "154231.157000", "154232.396000", "154233.645000", "154234.890000", "154236.152000", "154237.379000", "154238.612000", "154239.882000", "154241.144000", "154242.371000", "154243.648000", "154244.897000", "154246.126000", "154247.383000", "154248.613000", "154249.880000", "154251.140000", "154252.386000", "154253.640000", "154254.894000", "154256.138000", "154257.386000", "154258.645000", "154259.884000", "154301.143000", "154302.397000", "154303.632000", "154304.914000", "154306.159000", "154307.423000", "154308.630000", "154309.877000", "154311.125000", "154312.432000", "154313.617000", "154314.900000", "154316.141000", "154317.397000", "154318.636000", "154319.896000", "154321.128000", "154322.391000", "154323.619000", "154324.874000", "154326.124000", "154327.401000", "154328.650000", "154329.891000", "154331.132000", "154332.388000", "154333.671000", "154334.944000"],
      "InstanceNumber": [1, 2, 3, 4, 5, 6, 7, 8, 9, 10, 11, 12, 13, 14, 15, 16, 17, 18, 19, 20, 21, 22, 23, 24, 25, 26, 27, 28, 29, 30, 31, 32, 33, 34, 35, 36, 37, 38, 39, 40, 41, 42, 43, 44, 45, 46, 47, 48, 49, 50, 51, 52, 53, 54, 55, 56, 57, 58, 59, 60, 61, 62, 63, 64, 65, 66, 67, 68, 69, 70, 71, 72, 73, 74, 75, 76, 77, 78, 79, 80, 81, 82, 83, 84, 85, 86, 87, 88, 89, 90, 91, 92, 93, 94, 95, 96, 97, 98, 99, 100, 101, 102, 103, 104, 105, 106, 107, 108, 109, 110, 111, 112, 113, 114, 115, 116, 117, 118, 119, 120, 121, 122, 123, 124, 125, 126, 127, 128, 129, 130, 131, 132, 133, 134, 135, 136, 137, 138, 139, 140, 141, 142, 143, 144, 145, 146, 147, 148, 149, 150, 151, 152, 153, 154, 155, 156, 157, 158, 159, 160, 161, 162, 163, 164, 165, 166, 167, 168, 169, 170, 171, 172, 173, 174, 175, 176, 177, 178, 179, 180, 181, 182, 183, 184, 185, 186, 187, 188, 189, 190, 191, 192, 193, 194, 195, 196, 197, 198, 199, 200, 201, 202, 203, 204, 205, 206, 207, 208, 209, 210, 211, 212, 213, 214, 215, 216, 217, 218, 219, 220, 221, 222, 223, 224, 225, 226, 227, 228, 229, 230, 231, 232, 233, 234, 235, 236, 237, 238, 239, 240, 241, 242, 243, 244, 245, 246, 247, 248, 249, 250, 251, 252, 253, 254, 255, 256, 257, 258, 259, 260, 261, 262, 263, 264, 265, 266, 267, 268, 269, 270, 271, 272, 273, 274, 275, 276, 277, 278, 279, 280],
      "LargestImagePixelValue": [1282, 1213, 822, 1407, 933, 825, 1228, 1399, 1115, 1270, 924, 1282, 830, 1286, 899, 890, 1097, 1208, 1009, 1199, 1087, 1270, 1122, 1416, 1082, 1274, 903, 768, 1300, 895, 1422, 1010, 1240, 1003, 1181, 1128, 1229, 816, 1379, 892, 858, 1221, 1227, 1223, 785, 1336, 911, 1102, 1025, 1250, 1178, 787, 1232, 1393, 1218, 815, 1274, 925, 1348, 974, 1348, 903, 1259, 961, 816, 1199, 1186, 1260, 761, 1212, 1272, 1130, 821, 1267, 973, 1365, 833, 1258, 915, 1207, 1088, 1387, 773, 1268, 890, 1241, 904, 1330, 983, 1289, 998, 1306, 832, 797, 1228, 793, 1225, 1242, 1308, 884, 1172, 1021, 1214, 1054, 1406, 842, 1278, 1313, 1118, 770, 1225, 824, 1279, 885, 844, 1048, 1080, 1276, 995, 1329, 1191, 946, 1043, 1099, 1260, 1059, 1305, 1088, 1351, 1021, 906, 1242, 1214, 1240, 870, 1367, 1121, 811, 1247, 939, 1259, 813, 1352, 1029, 1281, 923, 1261, 1011, 851, 1332, 915, 1398, 873, 1180, 889, 1333, 1034, 819, 1282, 835, 1291, 889, 1254, 990, 1282, 961, 1243, 915, 1366, 843, 1214, 906, 828, 1232, 1253, 1120, 772, 1223, 1116, 1176, 789, 1281, 808, 1253, 848, 1393, 788, 1221, 1225, 1195, 1144, 1141, 777, 1273, 845, 1266, 912, 1295, 1213, 1265, 942, 1361, 793, 1299, 870, 1295, 910, 1346, 881, 1147, 993, 1180, 1189, 1119, 1252, 803, 1267, 803, 1251, 862, 1344, 796, 1248, 840, 1207, 888, 1324, 1121, 904, 1203, 900, 1268, 1033, 1473, 864, 1222, 1173, 778, 1308, 983, 808, 1247, 852, 1291, 871, 1379, 966, 897, 1222, 819, 1308, 878, 1029, 1224, 908, 1314, 1042, 1070, 1305, 869, 1263, 972, 767, 1302, 931, 851, 1225, 811, 1351, 1011, 1326, 923, 960, 1218, 781, 1301, 933, 1223, 1064, 1265],
      "WindowCenter": [392.0, 391.0, 387.0, 391.0, 388.0, 388.0, 390.0, 391.0, 388.0, 389.0, 387.0, 389.0, 386.0, 390.0, 388.0, 388.0, 391.0, 391.0, 389.0, 390.0, 390.0, 390.0, 389.0, 391.0, 388.0, 390.0, 387.0, 387.0, 392.0, 389.0, 392.0, 389.0, 390.0, 388.0, 390.0, 389.0, 390.0, 388.0, 391.0, 388.0, 387.0, 390.0, 389.0, 389.0, 386.0, 391.0, 388.0, 390.0, 389.0, 390.0, 390.0, 387.0, 390.0, 390.0, 389.0, 387.0, 391.0, 388.0, 391.0, 388.0, 391.0, 387.0, 390.0, 388.0, 387.0, 390.0, 390.0, 390.0, 386.0, 390.0, 390.0, 389.0, 388.0, 391.0, 389.0, 391.0, 388.0, 391.0, 388.0, 390.0, 389.0, 391.0, 386.0, 390.0, 388.0, 390.0, 388.0, 391.0, 388.0, 390.0, 389.0, 390.0, 387.0, 388.0, 391.0, 387.0, 391.0, 390.0, 390.0, 387.0, 390.0, 388.0, 390.0, 389.0, 391.0, 387.0, 391.0, 390.0, 389.0, 386.0, 390.0, 387.0, 391.0, 388.0, 388.0, 390.0, 390.0, 392.0, 389.0, 390.0, 390.0, 389.0, 390.0, 391.0, 391.0, 389.0, 390.0, 389.0, 390.0, 388.0, 387.0, 390.0, 389.0, 389.0, 387.0, 391.0, 389.0, 387.0, 390.0, 387.0, 389.0, 386.0, 390.0, 387.0, 389.0, 387.0, 390.0, 388.0, 387.0, 391.0, 388.0, 391.0, 387.0, 389.0, 387.0, 390.0, 388.0, 387.0, 390.0, 387.0, 390.0, 387.0, 390.0, 388.0, 390.0, 387.0, 389.0, 387.0, 390.0, 387.0, 390.0, 387.0, 387.0, 390.0, 389.0, 388.0, 386.0, 389.0, 388.0, 389.0, 387.0, 391.0, 387.0, 391.0, 388.0, 391.0, 387.0, 390.0, 390.0, 390.0, 389.0, 389.0, 386.0, 390.0, 388.0, 392.0, 389.0, 391.0, 390.0, 390.0, 388.0, 390.0, 386.0, 390.0, 387.0, 390.0, 387.0, 390.0, 387.0, 389.0, 388.0, 390.0, 390.0, 389.0, 390.0, 387.0, 390.0, 387.0, 390.0, 388.0, 391.0, 387.0, 389.0, 387.0, 390.0, 388.0, 391.0, 390.0, 388.0, 390.0, 388.0, 390.0, 389.0, 391.0, 388.0, 390.0, 390.0, 386.0, 390.0, 388.0, 386.0, 390.0, 387.0, 391.0, 388.0, 391.0, 388.0, 387.0, 390.0, 387.0, 390.0, 388.0, 389.0, 390.0, 388.0, 391.0, 389.0, 389.0, 390.0, 387.0, 390.0, 388.0, 386.0, 390.0, 388.0, 388.0, 390.0, 387.0, 391.0, 389.0, 390.0, 387.0, 388.0, 389.0, 387.0, 391.0, 389.0, 390.0, 389.0, 390.0],
      "WindowWidth": [831.0, 828.0, 823.0, 828.0, 824.0, 824.0, 828.0, 829.0, 824.0, 826.0, 822.0, 826.0, 821.0, 827.0, 824.0, 825.0, 828.0, 829.0, 827.0, 828.0, 827.0, 828.0, 826.0, 828.0, 824.0, 826.0, 824.0, 823.0, 830.0, 827.0, 830.0, 825.0, 828.0, 825.0, 827.0, 826.0, 828.0, 824.0, 829.0, 825.0, 824.0, 828.0, 826.0, 826.0, 822.0, 828.0, 825.0, 827.0, 826.0, 827.0, 826.0, 823.0, 828.0, 828.0, 826.0, 822.0, 829.0, 824.0, 829.0, 825.0, 828.0, 823.0, 827.0, 824.0, 823.0, 828.0, 827.0, 828.0, 822.0, 828.0, 828.0, 826.0, 824.0, 829.0, 826.0, 828.0, 825.0, 829.0, 825.0, 827.0, 826.0, 828.0, 822.0, 827.0, 825.0, 827.0, 825.0, 828.0, 825.0, 828.0, 825.0, 828.0, 823.0, 824.0, 829.0, 824.0, 829.0, 828.0, 828.0, 823.0, 827.0, 825.0, 828.0, 826.0, 829.0, 824.0, 828.0, 827.0, 825.0, 822.0, 828.0, 823.0, 829.0, 825.0, 824.0, 828.0, 827.0, 830.0, 826.0, 826.0, 826.0, 826.0, 828.0, 829.0, 829.0, 827.0, 827.0, 825.0, 827.0, 824.0, 822.0, 826.0, 826.0, 826.0, 824.0, 828.0, 826.0, 823.0, 828.0, 823.0, 826.0, 822.0, 827.0, 822.0, 826.0, 823.0, 826.0, 824.0, 823.0, 829.0, 824.0, 829.0, 823.0, 825.0, 823.0, 827.0, 825.0, 823.0, 828.0, 823.0, 828.0, 824.0, 828.0, 825.0, 827.0, 823.0, 826.0, 823.0, 827.0, 822.0, 827.0, 823.0, 822.0, 826.0, 826.0, 824.0, 821.0, 825.0, 824.0, 825.0, 823.0, 829.0, 823.0, 829.0, 824.0, 829.0, 823.0, 828.0, 827.0, 827.0, 826.0, 826.0, 822.0, 828.0, 825.0, 830.0, 827.0, 829.0, 828.0, 827.0, 825.0, 827.0, 822.0, 827.0, 822.0, 827.0, 823.0, 827.0, 822.0, 825.0, 825.0, 827.0, 826.0, 826.0, 827.0, 823.0, 828.0, 823.0, 827.0, 825.0, 828.0, 823.0, 826.0, 823.0, 827.0, 825.0, 829.0, 827.0, 825.0, 828.0, 825.0, 827.0, 826.0, 829.0, 824.0, 827.0, 827.0, 822.0, 828.0, 824.0, 822.0, 827.0, 823.0, 828.0, 825.0, 828.0, 824.0, 823.0, 827.0, 823.0, 828.0, 824.0, 826.0, 828.0, 825.0, 828.0, 825.0, 826.0, 827.0, 824.0, 828.0, 824.0, 822.0, 828.0, 824.0, 824.0, 828.0, 824.0, 828.0, 826.0, 828.0, 823.0, 824.0, 826.0, 823.0, 829.0, 826.0, 828.0, 826.0, 827.0]
    },
    "slices": {}
  }
}