{
  "AcquisitionMatrixPE": 96,
  "AcquisitionNumber": 1,
  "AcquisitionTime": "16:59:58.612500",
  "BandwidthPerPixelPhaseEncode": 18.939,
  "BaseResolution": 96,
  "BodyPartExamined": "BRAIN",
  "ConsistencyInfo": "N4_VE11C_LATEST_20160120",
  "ConversionSoftware": "dcm2niix",
  "ConversionSoftwareVersion": "v1.0.20170923 (OpenJPEG build) GCC6.3.0",
  "DerivedVendorReportedEchoSpacing": 0.000550011,
  "DeviceSerialNumber": "66112",
  "DwellTime": 2.3e-06,
  "EchoTime": 0.033,
  "EchoTrainLength": 96,
  "EffectiveEchoSpacing": 0.000550011,
  "FlipAngle": 64,
  "ImageType": [
    "ORIGINAL",
    "PRIMARY",
    "FMRI",
    "NONE",
    "ND",
    "NORM",
    "MOSAIC"
],
  "InstitutionAddress": "Maynard_3_Hanover_NH_US_03755",
  "InstitutionName": "Dartmouth_College_-_PBS",
  "MagneticFieldStrength": 3,
  "Manufacturer": "Siemens",
  "ManufacturersModelName": "Prisma",
  "Modality": "MR",
  "MultibandAccelerationFactor": 4,
  "PartialFourier": 1,
  "PercentPhaseFOV": 100,
  "PhaseEncodingDirection": "j-",
  "PhaseEncodingSteps": 96,
  "PhaseResolution": 1,
  "ProcedureStepDescription": "Gobbini_Matteo_1017_famface-angles",
  "ProtocolName": "func_run-04_task-str1back",
  "PulseSequenceDetails": "%SiemensSeq%_ep2d_bold",
  "ReceiveCoilActiveElements": "HEA;HEP",
  "ReceiveCoilName": "Head_32",
  "ReconMatrixPE": 96,
  "RepetitionTime": 1.25,
  "ScanOptions": "FS",
  "ScanningSequence": "EP",
  "SequenceName": "_epfid2d1_96",
  "SequenceVariant": "SK",
  "SeriesDescription": "func_run-04_task-str1back",
  "SliceTiming": [0.8775, 0, 0.615, 0.0875, 0.7025, 0.175, 0.79, 0.35, 0.965, 0.4375, 1.0525, 0.525, 1.14, 0.2625, 0.8775, 0, 0.615, 0.0875, 0.7025, 0.175, 0.79, 0.35, 0.965, 0.4375, 1.0525, 0.525, 1.14, 0.2625, 0.8775, 0, 0.615, 0.0875, 0.7025, 0.175, 0.79, 0.35, 0.965, 0.4375, 1.0525, 0.525, 1.14, 0.2625, 0.8775, 0, 0.615, 0.0875, 0.7025, 0.175, 0.79, 0.35, 0.965, 0.4375, 1.0525, 0.525, 1.14, 0.2625],
  "SoftwareVersions": "syngo_MR_E11",
  "StationName": "AWP66112",
  "TaskName": "str1back",
  "TotalReadoutTime": 0.0522511,
  "dcmmeta_affine": [
    [-2.4948906898498535, 0.013063459657132626, 0.15921556949615479, 117.25891876220703],
    [0.03031955286860466, 2.485060691833496, 0.27120766043663025, -115.8316421508789],
    [0.15684698522090912, -0.27258431911468506, 2.480140447616577, -65.5165023803711],
    [0.0, 0.0, 0.0, 1.0]
],
  "dcmmeta_reorient_transform": [
    [0.0, -1.0, 0.0, 95.0],
    [1.0, 0.0, 0.0, 0.0],
    [0.0, 0.0, 1.0, 0.0],
    [0.0, 0.0, 0.0, 1.0]
],
  "dcmmeta_shape": [96, 96, 56, 280],
  "dcmmeta_slice_dim": 2,
  "dcmmeta_version": 0.6,
  "global": {
    "const": {
      "AccessionNumber": "A000234",
      "AcquisitionMatrix": [96, 0, 0, 96],
      "AngioFlag": "N",
      "BitsAllocated": 16,
      "BitsStored": 12,
      "BodyPartExamined": "BRAIN",
      "Columns": 768,
      "EchoNumbers": 1,
      "EchoTime": 33.0,
      "EchoTrainLength": 96,
      "FlipAngle": 64.0,
      "HighBit": 11,
      "ImageOrientationPatient": [0.99795629145804, -0.0121278209914, 0.06273879419714, 0.00522538374111, 0.99402431676021, 0.10903372438906],
      "ImagePositionPatient": [-961.17255639885, -945.04219074195, -235.70092661961],
      "ImageType": [
        "ORIGINAL",
        "PRIMARY",
        "FMRI",
        "NONE",
        "ND",
        "NORM",
        "MOSAIC"
],
      "ImagedNucleus": "1H",
      "ImagingFrequency": 123.252367,
      "InPlanePhaseEncodingDirection": "COL",
      "MRAcquisitionType": "2D",
      "MagneticFieldStrength": 3.0,
      "Manufacturer": "SIEMENS",
      "ManufacturerModelName": "Prisma",
      "Modality": "MR",
      "NumberOfAverages": 1.0,
      "NumberOfPhaseEncodingSteps": 96,
      "PercentPhaseFieldOfView": 100.0,
      "PercentSampling": 100.0,
      "PerformedProcedureStepStartTime": "162045.106000",
      "PhotometricInterpretation": "MONOCHROME2",
      "PixelBandwidth": 2265.0,
      "PixelRepresentation": 0,
      "PixelSpacing": [2.5, 2.5],
      "PositionReferenceIndicator": "",
      "ProtocolName": "func_run-04_task-str1back",
      "RepetitionTime": 1250.0,
      "Rows": 768,
      "SAR": 0.04946632584266,
      "SamplesPerPixel": 1,
      "ScanOptions": "FS",
      "ScanningSequence": "EP",
      "SequenceName": "*epfid2d1_96",
      "SequenceVariant": "SK",
      "SeriesDescription": "func_run-04_task-str1back",
      "SeriesNumber": 29,
      "SeriesTime": "170000.127000",
      "SliceLocation": -70.094043128439,
      "SliceThickness": 2.5,
      "SmallestImagePixelValue": 0,
      "SoftwareVersions": "syngo MR E11",
      "SpacingBetweenSlices": 2.5000000620294,
      "SpecificCharacterSet": "ISO_IR 100",
      "StudyID": "1",
      "StudyTime": "162045.036000",
      "TransmitCoilName": "Body",
      "VariableFlipAngleFlag": "N",
      "WindowCenterWidthExplanation": "Algo1",
      "dBdt": 0.0},
    "slices": {}
  },
  "time": {
    "samples": {
      "AcquisitionNumber": [1, 2, 3, 4, 5, 6, 7, 8, 9, 10, 11, 12, 13, 14, 15, 16, 17, 18, 19, 20, 21, 22, 23, 24, 25, 26, 27, 28, 29, 30, 31, 32, 33, 34, 35, 36, 37, 38, 39, 40, 41, 42, 43, 44, 45, 46, 47, 48, 49, 50, 51, 52, 53, 54, 55, 56, 57, 58, 59, 60, 61, 62, 63, 64, 65, 66, 67, 68, 69, 70, 71, 72, 73, 74, 75, 76, 77, 78, 79, 80, 81, 82, 83, 84, 85, 86, 87, 88, 89, 90, 91, 92, 93, 94, 95, 96, 97, 98, 99, 100, 101, 102, 103, 104, 105, 106, 107, 108, 109, 110, 111, 112, 113, 114, 115, 116, 117, 118, 119, 120, 121, 122, 123, 124, 125, 126, 127, 128, 129, 130, 131, 132, 133, 134, 135, 136, 137, 138, 139, 140, 141, 142, 143, 144, 145, 146, 147, 148, 149, 150, 151, 152, 153, 154, 155, 156, 157, 158, 159, 160, 161, 162, 163, 164, 165, 166, 167, 168, 169, 170, 171, 172, 173, 174, 175, 176, 177, 178, 179, 180, 181, 182, 183, 184, 185, 186, 187, 188, 189, 190, 191, 192, 193, 194, 195, 196, 197, 198, 199, 200, 201, 202, 203, 204, 205, 206, 207, 208, 209, 210, 211, 212, 213, 214, 215, 216, 217, 218, 219, 220, 221, 222, 223, 224, 225, 226, 227, 228, 229, 230, 231, 232, 233, 234, 235, 236, 237, 238, 239, 240, 241, 242, 243, 244, 245, 246, 247, 248, 249, 250, 251, 252, 253, 254, 255, 256, 257, 258, 259, 260, 261, 262, 263, 264, 265, 266, 267, 268, 269, 270, 271, 272, 273, 274, 275, 276, 277, 278, 279, 280],
      "AcquisitionTime": ["165958.612500", "165959.862500", "170001.112500", "170002.362500", "170003.612500", "170004.862500", "170006.112500", "170007.362500", "170008.612500", "170009.862500", "170011.112500", "170012.362500", "170013.612500", "170014.862500", "170016.112500", "170017.362500", "170018.612500", "170019.862500", "170021.112500", "170022.362500", "170023.612500", "170024.862500", "170026.112500", "170027.362500", "170028.612500", "170029.862500", "170031.112500", "170032.362500", "170033.612500", "170034.862500", "170036.112500", "170037.362500", "170038.612500", "170039.862500", "170041.112500", "170042.362500", "170043.612500", "170044.862500", "170046.112500", "170047.362500", "170048.612500", "170049.862500", "170051.112500", "170052.362500", "170053.612500", "170054.862500", "170056.112500", "170057.362500", "170058.612500", "170059.862500", "170101.112500", "170102.362500", "170103.612500", "170104.862500", "170106.112500", "170107.362500", "170108.612500", "170109.862500", "170111.112500", "170112.362500", "170113.612500", "170114.862500", "170116.112500", "170117.362500", "170118.612500", "170119.862500", "170121.112500", "170122.362500", "170123.612500", "170124.862500", "170126.112500", "170127.362500", "170128.612500", "170129.862500", "170131.112500", "170132.362500", "170133.612500", "170134.862500", "170136.112500", "170137.362500", "170138.612500", "170139.862500", "170141.112500", "170142.362500", "170143.612500", "170144.862500", "170146.112500", "170147.362500", "170148.612500", "170149.862500", "170151.112500", "170152.362500", "170153.612500", "170154.862500", "170156.112500", "170157.362500", "170158.612500", "170159.862500", "170201.112500", "170202.362500", "170203.612500", "170204.862500", "170206.112500", "170207.362500", "170208.612500", "170209.862500", "170211.112500", "170212.362500", "170213.612500", "170214.862500", "170216.112500", "170217.362500", "170218.612500", "170219.862500", "170221.112500", "170222.362500", "170223.612500", "170224.862500", "170226.112500", "170227.362500", "170228.612500", "170229.862500", "170231.112500", "170232.362500", "170233.612500", "170234.862500", "170236.112500", "170237.362500", "170238.612500", "170239.862500", "170241.112500", "170242.362500", "170243.612500", "170244.862500", "170246.112500", "170247.362500", "170248.612500", "170249.862500", "170251.112500", "170252.362500", "170253.612500", "170254.862500", "170256.112500", "170257.362500", "170258.612500", "170259.862500", "170301.112500", "170302.362500", "170303.612500", "170304.862500", "170306.112500", "170307.362500", "170308.612500", "170309.862500", "170311.112500", "170312.362500", "170313.612500", "170314.862500", "170316.112500", "170317.362500", "170318.612500", "170319.862500", "170321.112500", "170322.362500", "170323.612500", "170324.862500", "170326.112500", "170327.362500", "170328.612500", "170329.862500", "170331.112500", "170332.362500", "170333.612500", "170334.862500", "170336.112500", "170337.362500", "170338.612500", "170339.862500", "170341.112500", "170342.362500", "170343.612500", "170344.862500", "170346.112500", "170347.362500", "170348.612500", "170349.862500", "170351.112500", "170352.362500", "170353.612500", "170354.862500", "170356.112500", "170357.362500", "170358.612500", "170359.862500", "170401.112500", "170402.362500", "170403.612500", "170404.862500", "170406.112500", "170407.362500", "170408.612500", "170409.862500", "170411.112500", "170412.362500", "170413.612500", "170414.862500", "170416.112500", "170417.362500", "170418.612500", "170419.862500", "170421.112500", "170422.362500", "170423.612500", "170424.862500", "170426.112500", "170427.362500", "170428.612500", "170429.862500", "170431.112500", "170432.362500", "170433.612500", "170434.862500", "170436.112500", "170437.362500", "170438.612500", "170439.862500", "170441.112500", "170442.362500", "170443.612500", "170444.862500", "170446.112500", "170447.362500", "170448.612500", "170449.862500", "170451.112500", "170452.362500", "170453.612500", "170454.862500", "170456.112500", "170457.362500", "170458.612500", "170459.862500", "170501.112500", "170502.362500", "170503.612500", "170504.862500", "170506.112500", "170507.362500", "170508.612500", "170509.862500", "170511.112500", "170512.362500", "170513.612500", "170514.862500", "170516.112500", "170517.362500", "170518.612500", "170519.862500", "170521.112500", "170522.362500", "170523.612500", "170524.862500", "170526.112500", "170527.362500", "170528.612500", "170529.862500", "170531.112500", "170532.362500", "170533.612500", "170534.862500", "170536.112500", "170537.362500", "170538.612500", "170539.862500", "170541.112500", "170542.362500", "170543.612500", "170544.862500", "170546.112500", "170547.362500"],
      "ContentTime": ["170000.131000", "170001.216000", "170002.478000", "170003.712000", "170005.001000", "170006.231000", "170007.465000", "170008.727000", "170009.957000", "170011.271000", "170012.459000", "170013.698000", "170015.026000", "170016.283000", "170017.493000", "170018.741000", "170019.960000", "170021.201000", "170022.472000", "170023.793000", "170024.946000", "170026.211000", "170027.490000", "170028.761000", "170029.974000", "170031.208000", "170032.450000", "170033.686000", "170034.972000", "170036.259000", "170037.484000", "170038.734000", "170039.968000", "170041.235000", "170042.454000", "170043.712000", "170044.949000", "170046.205000", "170047.450000", "170048.707000", "170049.996000", "170051.220000", "170052.458000", "170053.671000", "170055.027000", "170056.230000", "170057.468000", "170058.680000", "170100.002000", "170101.209000", "170102.476000", "170103.776000", "170104.921000", "170106.203000", "170107.499000", "170108.724000", "170110.015000", "170111.212000", "170112.455000", "170113.684000", "170114.959000", "170116.194000", "170117.440000", "170118.785000", "170119.962000", "170121.289000", "170122.458000", "170123.701000", "170124.947000", "170126.246000", "170127.454000", "170128.730000", "170129.960000", "170131.215000", "170132.473000", "170133.698000", "170134.944000", "170136.233000", "170137.465000", "170138.702000", "170139.967000", "170141.221000", "170142.496000", "170143.758000", "170144.966000", "170146.232000", "170147.469000", "170148.715000", "170149.958000", "170151.206000", "170152.476000", "170153.722000", "170154.966000", "170156.205000", "170157.479000", "170158.749000", "170200.012000", "170201.212000", "170202.501000", "170203.738000", "170205.013000", "170206.270000", "170207.489000", "170208.726000", "170209.987000", "170211.240000", "170212.468000", "170213.742000", "170214.963000", "170216.258000", "170217.493000", "170218.753000", "170219.975000", "170221.238000", "170222.466000", "170223.779000", "170224.971000", "170226.221000", "170227.480000", "170228.740000", "170229.966000", "170231.264000", "170232.473000", "170233.749000", "170234.930000", "170236.204000", "170237.466000", "170238.739000", "170239.946000", "170241.288000", "170242.495000", "170243.717000", "170244.975000", "170246.234000", "170247.509000", "170248.731000", "170249.973000", "170251.221000", "170252.486000", "170253.732000", "170254.980000", "170256.231000", "170257.460000", "170258.761000", "170300.047000", "170301.217000", "170302.471000", "170303.751000", "170305.005000", "170306.231000", "170307.459000", "170308.693000", "170309.982000", "170311.243000", "170312.487000", "170313.713000", "170314.971000", "170316.228000", "170317.460000", "170318.699000", "170319.978000", "170321.202000", "170322.457000", "170323.751000", "170324.983000", "170326.281000", "170327.492000", "170328.756000", "170329.976000", "170331.260000", "170332.469000", "170333.724000", "170334.961000", "170336.292000", "170337.504000", "170338.725000", "170339.991000", "170341.296000", "170342.456000", "170343.738000", "170344.970000", "170346.237000", "170347.475000", "170348.716000", "170350.009000", "170351.232000", "170352.461000", "170353.728000", "170354.973000", "170356.221000", "170357.509000", "170358.710000", "170359.991000", "170401.212000", "170402.474000", "170403.713000", "170405.001000", "170406.219000", "170407.479000", "170408.709000", "170410.027000", "170411.237000", "170412.450000", "170413.725000", "170414.967000", "170416.225000", "170417.458000", "170418.723000", "170419.962000", "170421.235000", "170422.466000", "170423.765000", "170424.958000", "170426.296000", "170427.473000", "170428.729000", "170429.962000", "170431.232000", "170432.449000", "170433.718000", "170434.974000", "170436.239000", "170437.491000", "170438.696000", "170440.007000", "170441.211000", "170442.476000", "170443.734000", "170445.015000", "170446.206000", "170447.465000", "170448.746000", "170449.938000", "170451.223000", "170452.487000", "170453.722000", "170454.967000", "170456.211000", "170457.497000", "170458.725000", "170459.971000", "170501.218000", "170502.461000", "170503.743000", "170504.964000", "170506.218000", "170507.472000", "170508.710000", "170509.953000", "170511.251000", "170512.470000", "170513.731000", "170514.970000", "170516.241000", "170517.458000", "170518.735000", "170519.963000", "170521.246000", "170522.471000", "170523.756000", "170525.027000", "170526.228000", "170527.470000", "170528.730000", "170529.960000", "170531.250000", "170532.495000", "170533.714000", "170534.977000", "170536.211000", "170537.494000", "170538.734000", "170539.968000", "170541.216000", "170542.465000", "170543.724000", "170545.011000", "170546.210000", "170547.455000", "170548.798000"],
      "InstanceCreationTime": ["170000.131000", "170001.216000", "170002.478000", "170003.712000", "170005.001000", "170006.231000", "170007.465000", "170008.727000", "170009.957000", "170011.271000", "170012.459000", "170013.698000", "170015.026000", "170016.283000", "170017.493000", "170018.741000", "170019.960000", "170021.201000", "170022.472000", "170023.793000", "170024.946000", "170026.211000", "170027.490000", "170028.761000", "170029.974000", "170031.208000", "170032.450000", "170033.686000", "170034.972000", "170036.259000", "170037.484000", "170038.734000", "170039.968000", "170041.235000", "170042.454000", "170043.712000", "170044.949000", "170046.205000", "170047.450000", "170048.707000", "170049.996000", "170051.220000", "170052.458000", "170053.671000", "170055.027000", "170056.230000", "170057.468000", "170058.680000", "170100.002000", "170101.209000", "170102.476000", "170103.776000", "170104.921000", "170106.203000", "170107.499000", "170108.724000", "170110.015000", "170111.212000", "170112.455000", "170113.684000", "170114.959000", "170116.194000", "170117.440000", "170118.785000", "170119.962000", "170121.289000", "170122.458000", "170123.701000", "170124.947000", "170126.246000", "170127.454000", "170128.730000", "170129.960000", "170131.215000", "170132.473000", "170133.698000", "170134.944000", "170136.233000", "170137.465000", "170138.702000", "170139.967000", "170141.221000", "170142.496000", "170143.758000", "170144.966000", "170146.232000", "170147.469000", "170148.715000", "170149.958000", "170151.206000", "170152.476000", "170153.722000", "170154.966000", "170156.205000", "170157.479000", "170158.749000", "170200.012000", "170201.212000", "170202.501000", "170203.738000", "170205.013000", "170206.270000", "170207.489000", "170208.726000", "170209.987000", "170211.240000", "170212.468000", "170213.742000", "170214.963000", "170216.258000", "170217.493000", "170218.753000", "170219.975000", "170221.238000", "170222.466000", "170223.779000", "170224.971000", "170226.221000", "170227.480000", "170228.740000", "170229.966000", "170231.264000", "170232.473000", "170233.749000", "170234.930000", "170236.204000", "170237.466000", "170238.739000", "170239.946000", "170241.288000", "170242.495000", "170243.717000", "170244.975000", "170246.234000", "170247.509000", "170248.731000", "170249.973000", "170251.221000", "170252.486000", "170253.732000", "170254.980000", "170256.231000", "170257.460000", "170258.761000", "170300.047000", "170301.217000", "170302.471000", "170303.751000", "170305.005000", "170306.231000", "170307.459000", "170308.693000", "170309.982000", "170311.243000", "170312.487000", "170313.713000", "170314.971000", "170316.228000", "170317.460000", "170318.699000", "170319.978000", "170321.202000", "170322.457000", "170323.751000", "170324.983000", "170326.281000", "170327.492000", "170328.756000", "170329.976000", "170331.260000", "170332.469000", "170333.724000", "170334.961000", "170336.292000", "170337.504000", "170338.725000", "170339.991000", "170341.296000", "170342.456000", "170343.738000", "170344.970000", "170346.237000", "170347.475000", "170348.716000", "170350.009000", "170351.232000", "170352.461000", "170353.728000", "170354.973000", "170356.221000", "170357.509000", "170358.710000", "170359.991000", "170401.212000", "170402.474000", "170403.713000", "170405.001000", "170406.219000", "170407.479000", "170408.709000", "170410.027000", "170411.237000", "170412.450000", "170413.725000", "170414.967000", "170416.225000", "170417.458000", "170418.723000", "170419.962000", "170421.235000", "170422.466000", "170423.765000", "170424.958000", "170426.296000", "170427.473000", "170428.729000", "170429.962000", "170431.232000", "170432.449000", "170433.718000", "170434.974000", "170436.239000", "170437.491000", "170438.696000", "170440.007000", "170441.211000", "170442.476000", "170443.734000", "170445.015000", "170446.206000", "170447.465000", "170448.746000", "170449.938000", "170451.223000", "170452.487000", "170453.722000", "170454.967000", "170456.211000", "170457.497000", "170458.725000", "170459.971000", "170501.218000", "170502.461000", "170503.743000", "170504.964000", "170506.218000", "170507.472000", "170508.710000", "170509.953000", "170511.251000", "170512.470000", "170513.731000", "170514.970000", "170516.241000", "170517.458000", "170518.735000", "170519.963000", "170521.246000", "170522.471000", "170523.756000", "170525.027000", "170526.228000", "170527.470000", "170528.730000", "170529.960000", "170531.250000", "170532.495000", "170533.714000", "170534.977000", "170536.211000", "170537.494000", "170538.734000", "170539.968000", "170541.216000", "170542.465000", "170543.724000", "170545.011000", "170546.210000", "170547.455000", "170548.798000"],
      "InstanceNumber": [1, 2, 3, 4, 5, 6, 7, 8, 9, 10, 11, 12, 13, 14, 15, 16, 17, 18, 19, 20, 21, 22, 23, 24, 25, 26, 27, 28, 29, 30, 31, 32, 33, 34, 35, 36, 37, 38, 39, 40, 41, 42, 43, 44, 45, 46, 47, 48, 49, 50, 51, 52, 53, 54, 55, 56, 57, 58, 59, 60, 61, 62, 63, 64, 65, 66, 67, 68, 69, 70, 71, 72, 73, 74, 75, 76, 77, 78, 79, 80, 81, 82, 83, 84, 85, 86, 87, 88, 89, 90, 91, 92, 93, 94, 95, 96, 97, 98, 99, 100, 101, 102, 103, 104, 105, 106, 107, 108, 109, 110, 111, 112, 113, 114, 115, 116, 117, 118, 119, 120, 121, 122, 123, 124, 125, 126, 127, 128, 129, 130, 131, 132, 133, 134, 135, 136, 137, 138, 139, 140, 141, 142, 143, 144, 145, 146, 147, 148, 149, 150, 151, 152, 153, 154, 155, 156, 157, 158, 159, 160, 161, 162, 163, 164, 165, 166, 167, 168, 169, 170, 171, 172, 173, 174, 175, 176, 177, 178, 179, 180, 181, 182, 183, 184, 185, 186, 187, 188, 189, 190, 191, 192, 193, 194, 195, 196, 197, 198, 199, 200, 201, 202, 203, 204, 205, 206, 207, 208, 209, 210, 211, 212, 213, 214, 215, 216, 217, 218, 219, 220, 221, 222, 223, 224, 225, 226, 227, 228, 229, 230, 231, 232, 233, 234, 235, 236, 237, 238, 239, 240, 241, 242, 243, 244, 245, 246, 247, 248, 249, 250, 251, 252, 253, 254, 255, 256, 257, 258, 259, 260, 261, 262, 263, 264, 265, 266, 267, 268, 269, 270, 271, 272, 273, 274, 275, 276, 277, 278, 279, 280],
      "LargestImagePixelValue": [916, 1006, 873, 930, 938, 898, 901, 940, 993, 909, 867, 859, 1052, 919, 1009, 917, 880, 921, 852, 919, 935, 917, 870, 911, 1062, 997, 974, 979, 913, 920, 1085, 1000, 931, 1125, 1047, 868, 971, 911, 868, 899, 886, 910, 946, 1029, 870, 866, 961, 848, 923, 897, 865, 962, 904, 937, 995, 902, 843, 869, 898, 869, 936, 905, 902, 988, 931, 900, 957, 914, 946, 1125, 957, 886, 845, 887, 916, 879, 1015, 956, 939, 907, 954, 936, 919, 989, 918, 950, 984, 946, 958, 1002, 928, 926, 974, 891, 891, 888, 884, 863, 882, 921, 1057, 1013, 957, 966, 927, 951, 949, 928, 947, 964, 869, 950, 887, 901, 876, 873, 919, 895, 977, 942, 988, 928, 989, 910, 991, 953, 1000, 959, 965, 920, 925, 1106, 1488, 1394, 1266, 1063, 862, 830, 765, 849, 935, 1240, 1109, 971, 1033, 1036, 1089, 956, 915, 980, 930, 954, 1071, 1129, 977, 991, 969, 923, 937, 914, 1634, 1268, 922, 1563, 976, 873, 833, 835, 995, 1010, 1224, 1033, 1325, 922, 1012, 1004, 1122, 863, 850, 874, 825, 818, 1205, 858, 873, 1045, 847, 887, 879, 898, 841, 1122, 933, 862, 984, 903, 860, 905, 870, 838, 892, 1210, 892, 842, 938, 903, 840, 828, 886, 889, 963, 953, 903, 921, 851, 1080, 836, 848, 830, 1144, 991, 845, 1217, 954, 900, 868, 991, 886, 945, 870, 872, 969, 969, 885, 998, 908, 835, 933, 917, 914, 895, 880, 887, 1151, 873, 901, 1000, 936, 803, 843, 923, 965, 952, 836, 1142, 879, 1175, 1104, 1164, 942, 971, 831, 908, 829, 832, 840, 1237, 937, 820, 844, 1211, 863, 1016, 883, 851, 844, 1029, 903, 1100, 965],
      "WindowCenter": [392.0, 391.0, 389.0, 390.0, 391.0, 391.0, 391.0, 391.0, 391.0, 391.0, 390.0, 390.0, 392.0, 391.0, 391.0, 391.0, 391.0, 391.0, 391.0, 391.0, 391.0, 392.0, 391.0, 392.0, 393.0, 392.0, 392.0, 392.0, 392.0, 392.0, 394.0, 392.0, 392.0, 393.0, 392.0, 390.0, 392.0, 391.0, 390.0, 391.0, 391.0, 391.0, 391.0, 392.0, 390.0, 390.0, 392.0, 390.0, 391.0, 391.0, 391.0, 392.0, 391.0, 392.0, 392.0, 391.0, 390.0, 390.0, 391.0, 391.0, 392.0, 391.0, 391.0, 392.0, 391.0, 391.0, 391.0, 391.0, 391.0, 392.0, 391.0, 390.0, 390.0, 391.0, 391.0, 391.0, 392.0, 392.0, 391.0, 391.0, 392.0, 391.0, 391.0, 392.0, 391.0, 391.0, 391.0, 391.0, 391.0, 392.0, 391.0, 391.0, 392.0, 391.0, 391.0, 391.0, 392.0, 391.0, 391.0, 391.0, 392.0, 392.0, 391.0, 391.0, 391.0, 391.0, 391.0, 391.0, 391.0, 391.0, 390.0, 392.0, 391.0, 392.0, 392.0, 392.0, 392.0, 392.0, 393.0, 392.0, 391.0, 391.0, 391.0, 391.0, 392.0, 392.0, 393.0, 392.0, 391.0, 391.0, 391.0, 387.0, 389.0, 389.0, 376.0, 393.0, 388.0, 389.0, 390.0, 392.0, 393.0, 394.0, 393.0, 391.0, 391.0, 391.0, 392.0, 391.0, 391.0, 393.0, 392.0, 392.0, 393.0, 393.0, 391.0, 391.0, 392.0, 392.0, 393.0, 393.0, 387.0, 397.0, 386.0, 389.0, 391.0, 389.0, 390.0, 392.0, 394.0, 393.0, 393.0, 391.0, 392.0, 389.0, 390.0, 391.0, 392.0, 389.0, 390.0, 390.0, 390.0, 390.0, 394.0, 391.0, 391.0, 392.0, 391.0, 392.0, 391.0, 391.0, 391.0, 394.0, 392.0, 391.0, 392.0, 391.0, 391.0, 392.0, 392.0, 391.0, 391.0, 394.0, 391.0, 391.0, 392.0, 391.0, 391.0, 391.0, 392.0, 392.0, 392.0, 392.0, 392.0, 392.0, 391.0, 393.0, 391.0, 391.0, 391.0, 394.0, 392.0, 390.0, 394.0, 392.0, 391.0, 391.0, 393.0, 391.0, 392.0, 391.0, 391.0, 392.0, 392.0, 391.0, 393.0, 392.0, 391.0, 392.0, 392.0, 392.0, 391.0, 391.0, 391.0, 393.0, 391.0, 391.0, 392.0, 392.0, 390.0, 391.0, 392.0, 392.0, 393.0, 392.0, 394.0, 392.0, 395.0, 393.0, 393.0, 392.0, 392.0, 390.0, 391.0, 390.0, 391.0, 391.0, 394.0, 392.0, 390.0, 390.0, 394.0, 391.0, 393.0, 391.0, 391.0, 391.0, 393.0, 391.0, 392.0, 391.0],
      "WindowWidth": [833.0, 830.0, 827.0, 828.0, 828.0, 828.0, 829.0, 830.0, 830.0, 829.0, 828.0, 828.0, 831.0, 829.0, 829.0, 828.0, 829.0, 830.0, 829.0, 830.0, 830.0, 831.0, 830.0, 831.0, 832.0, 831.0, 831.0, 831.0, 831.0, 831.0, 833.0, 831.0, 831.0, 832.0, 831.0, 828.0, 830.0, 829.0, 828.0, 829.0, 828.0, 829.0, 828.0, 829.0, 828.0, 828.0, 830.0, 828.0, 830.0, 829.0, 829.0, 831.0, 830.0, 831.0, 831.0, 830.0, 828.0, 828.0, 829.0, 829.0, 831.0, 830.0, 829.0, 830.0, 829.0, 829.0, 829.0, 829.0, 829.0, 831.0, 828.0, 828.0, 828.0, 829.0, 830.0, 829.0, 831.0, 830.0, 830.0, 829.0, 830.0, 830.0, 830.0, 831.0, 830.0, 830.0, 829.0, 829.0, 830.0, 830.0, 830.0, 830.0, 830.0, 829.0, 830.0, 830.0, 830.0, 830.0, 829.0, 830.0, 831.0, 830.0, 829.0, 828.0, 829.0, 829.0, 828.0, 828.0, 828.0, 829.0, 828.0, 830.0, 830.0, 831.0, 830.0, 831.0, 831.0, 831.0, 832.0, 831.0, 830.0, 829.0, 830.0, 830.0, 831.0, 831.0, 832.0, 831.0, 830.0, 829.0, 830.0, 820.0, 825.0, 824.0, 800.0, 833.0, 824.0, 827.0, 828.0, 831.0, 833.0, 834.0, 831.0, 830.0, 829.0, 829.0, 831.0, 828.0, 829.0, 832.0, 831.0, 831.0, 832.0, 831.0, 830.0, 830.0, 831.0, 830.0, 833.0, 833.0, 819.0, 840.0, 821.0, 823.0, 830.0, 825.0, 828.0, 831.0, 834.0, 833.0, 831.0, 829.0, 830.0, 826.0, 827.0, 828.0, 830.0, 826.0, 827.0, 827.0, 827.0, 828.0, 833.0, 829.0, 830.0, 831.0, 829.0, 831.0, 830.0, 830.0, 829.0, 834.0, 832.0, 829.0, 831.0, 830.0, 830.0, 831.0, 831.0, 831.0, 830.0, 833.0, 830.0, 829.0, 830.0, 830.0, 830.0, 830.0, 831.0, 831.0, 832.0, 832.0, 831.0, 831.0, 830.0, 833.0, 830.0, 831.0, 830.0, 834.0, 831.0, 828.0, 834.0, 830.0, 829.0, 830.0, 832.0, 830.0, 830.0, 830.0, 829.0, 830.0, 831.0, 830.0, 833.0, 831.0, 829.0, 832.0, 831.0, 830.0, 830.0, 830.0, 829.0, 832.0, 829.0, 830.0, 830.0, 830.0, 828.0, 829.0, 831.0, 832.0, 833.0, 831.0, 834.0, 832.0, 835.0, 833.0, 832.0, 830.0, 831.0, 828.0, 829.0, 828.0, 829.0, 829.0, 833.0, 830.0, 828.0, 828.0, 833.0, 829.0, 832.0, 829.0, 829.0, 829.0, 833.0, 830.0, 831.0, 829.0]
    },
    "slices": {}
  }
}