{
  "AcquisitionMatrixPE": 96,
  "AcquisitionNumber": 1,
  "AcquisitionTime": "17:50:20.050000",
  "BandwidthPerPixelPhaseEncode": 18.939,
  "BaseResolution": 96,
  "BodyPartExamined": "BRAIN",
  "ConsistencyInfo": "N4_VE11C_LATEST_20160120",
  "ConversionSoftware": "dcm2niix",
  "ConversionSoftwareVersion": "v1.0.20170923 (OpenJPEG build) GCC6.3.0",
  "DerivedVendorReportedEchoSpacing": 0.000550011,
  "DeviceSerialNumber": "66112",
  "DwellTime": 2.3e-06,
  "EchoTime": 0.033,
  "EchoTrainLength": 96,
  "EffectiveEchoSpacing": 0.000550011,
  "FlipAngle": 64,
  "ImageType": [
    "ORIGINAL",
    "PRIMARY",
    "FMRI",
    "NONE",
    "ND",
    "NORM",
    "MOSAIC"
],
  "InstitutionAddress": "Maynard_3_Hanover_NH_US_03755",
  "InstitutionName": "Dartmouth_College_-_PBS",
  "MagneticFieldStrength": 3,
  "Manufacturer": "Siemens",
  "ManufacturersModelName": "Prisma",
  "Modality": "MR",
  "MultibandAccelerationFactor": 4,
  "PartialFourier": 1,
  "PercentPhaseFOV": 100,
  "PhaseEncodingDirection": "j-",
  "PhaseEncodingSteps": 96,
  "PhaseResolution": 1,
  "ProcedureStepDescription": "Gobbini_Matteo_1017_famface-angles",
  "ProtocolName": "func_run-11_task-fam1back",
  "PulseSequenceDetails": "%SiemensSeq%_ep2d_bold",
  "ReceiveCoilActiveElements": "HEA;HEP",
  "ReceiveCoilName": "Head_32",
  "ReconMatrixPE": 96,
  "RepetitionTime": 1.25,
  "ScanOptions": "FS",
  "ScanningSequence": "EP",
  "SequenceName": "_epfid2d1_96",
  "SequenceVariant": "SK",
  "SeriesDescription": "func_run-11_task-fam1back",
  "SliceTiming": [0.8775, 0, 0.615, 0.0875, 0.7025, 0.175, 0.79, 0.35, 0.965, 0.44, 1.055, 0.5275, 1.1425, 0.2625, 0.8775, 0, 0.615, 0.0875, 0.7025, 0.175, 0.79, 0.35, 0.965, 0.44, 1.055, 0.5275, 1.1425, 0.2625, 0.8775, 0, 0.615, 0.0875, 0.7025, 0.175, 0.79, 0.35, 0.965, 0.44, 1.055, 0.5275, 1.1425, 0.2625, 0.8775, 0, 0.615, 0.0875, 0.7025, 0.175, 0.79, 0.35, 0.965, 0.44, 1.055, 0.5275, 1.1425, 0.2625],
  "SoftwareVersions": "syngo_MR_E11",
  "StationName": "AWP66112",
  "TaskName": "fam1back",
  "TotalReadoutTime": 0.0522511,
  "dcmmeta_affine": [
    [-2.4948906898498535, 0.013063459657132626, 0.15921556949615479, 117.25891876220703],
    [0.03031955286860466, 2.485060691833496, 0.27120766043663025, -115.8316421508789],
    [0.15684698522090912, -0.27258431911468506, 2.480140447616577, -65.5165023803711],
    [0.0, 0.0, 0.0, 1.0]
],
  "dcmmeta_reorient_transform": [
    [0.0, -1.0, 0.0, 95.0],
    [1.0, 0.0, 0.0, 0.0],
    [0.0, 0.0, 1.0, 0.0],
    [0.0, 0.0, 0.0, 1.0]
],
  "dcmmeta_shape": [96, 96, 56, 280],
  "dcmmeta_slice_dim": 2,
  "dcmmeta_version": 0.6,
  "global": {
    "const": {
      "AccessionNumber": "A000234",
      "AcquisitionMatrix": [96, 0, 0, 96],
      "AngioFlag": "N",
      "BitsAllocated": 16,
      "BitsStored": 12,
      "BodyPartExamined": "BRAIN",
      "Columns": 768,
      "EchoNumbers": 1,
      "EchoTime": 33.0,
      "EchoTrainLength": 96,
      "FlipAngle": 64.0,
      "HighBit": 11,
      "ImageOrientationPatient": [0.99795629145804, -0.0121278209914, 0.06273879419714, 0.00522538374111, 0.99402431676021, 0.10903372438906],
      "ImagePositionPatient": [-961.17255639885, -945.04219074195, -235.70092661961],
      "ImageType": [
        "ORIGINAL",
        "PRIMARY",
        "FMRI",
        "NONE",
        "ND",
        "NORM",
        "MOSAIC"
],
      "ImagedNucleus": "1H",
      "ImagingFrequency": 123.252374,
      "InPlanePhaseEncodingDirection": "COL",
      "MRAcquisitionType": "2D",
      "MagneticFieldStrength": 3.0,
      "Manufacturer": "SIEMENS",
      "ManufacturerModelName": "Prisma",
      "Modality": "MR",
      "NumberOfAverages": 1.0,
      "NumberOfPhaseEncodingSteps": 96,
      "PercentPhaseFieldOfView": 100.0,
      "PercentSampling": 100.0,
      "PerformedProcedureStepStartTime": "162045.106000",
      "PhotometricInterpretation": "MONOCHROME2",
      "PixelBandwidth": 2265.0,
      "PixelRepresentation": 0,
      "PixelSpacing": [2.5, 2.5],
      "PositionReferenceIndicator": "",
      "ProtocolName": "func_run-11_task-fam1back",
      "RepetitionTime": 1250.0,
      "Rows": 768,
      "SAR": 0.04946632584266,
      "SamplesPerPixel": 1,
      "ScanOptions": "FS",
      "ScanningSequence": "EP",
      "SequenceName": "*epfid2d1_96",
      "SequenceVariant": "SK",
      "SeriesDescription": "func_run-11_task-fam1back",
      "SeriesNumber": 81,
      "SeriesTime": "175021.509000",
      "SliceLocation": -70.094043128439,
      "SliceThickness": 2.5,
      "SmallestImagePixelValue": 0,
      "SoftwareVersions": "syngo MR E11",
      "SpacingBetweenSlices": 2.5000000620294,
      "SpecificCharacterSet": "ISO_IR 100",
      "StudyID": "1",
      "StudyTime": "162045.036000",
      "TransmitCoilName": "Body",
      "VariableFlipAngleFlag": "N",
      "WindowCenterWidthExplanation": "Algo1",
      "dBdt": 0.0},
    "slices": {}
  },
  "time": {
    "samples": {
      "AcquisitionNumber": [1, 2, 3, 4, 5, 6, 7, 8, 9, 10, 11, 12, 13, 14, 15, 16, 17, 18, 19, 20, 21, 22, 23, 24, 25, 26, 27, 28, 29, 30, 31, 32, 33, 34, 35, 36, 37, 38, 39, 40, 41, 42, 43, 44, 45, 46, 47, 48, 49, 50, 51, 52, 53, 54, 55, 56, 57, 58, 59, 60, 61, 62, 63, 64, 65, 66, 67, 68, 69, 70, 71, 72, 73, 74, 75, 76, 77, 78, 79, 80, 81, 82, 83, 84, 85, 86, 87, 88, 89, 90, 91, 92, 93, 94, 95, 96, 97, 98, 99, 100, 101, 102, 103, 104, 105, 106, 107, 108, 109, 110, 111, 112, 113, 114, 115, 116, 117, 118, 119, 120, 121, 122, 123, 124, 125, 126, 127, 128, 129, 130, 131, 132, 133, 134, 135, 136, 137, 138, 139, 140, 141, 142, 143, 144, 145, 146, 147, 148, 149, 150, 151, 152, 153, 154, 155, 156, 157, 158, 159, 160, 161, 162, 163, 164, 165, 166, 167, 168, 169, 170, 171, 172, 173, 174, 175, 176, 177, 178, 179, 180, 181, 182, 183, 184, 185, 186, 187, 188, 189, 190, 191, 192, 193, 194, 195, 196, 197, 198, 199, 200, 201, 202, 203, 204, 205, 206, 207, 208, 209, 210, 211, 212, 213, 214, 215, 216, 217, 218, 219, 220, 221, 222, 223, 224, 225, 226, 227, 228, 229, 230, 231, 232, 233, 234, 235, 236, 237, 238, 239, 240, 241, 242, 243, 244, 245, 246, 247, 248, 249, 250, 251, 252, 253, 254, 255, 256, 257, 258, 259, 260, 261, 262, 263, 264, 265, 266, 267, 268, 269, 270, 271, 272, 273, 274, 275, 276, 277, 278, 279, 280],
      "AcquisitionTime": ["175020.050000", "175021.300000", "175022.550000", "175023.800000", "175025.050000", "175026.300000", "175027.550000", "175028.800000", "175030.050000", "175031.300000", "175032.550000", "175033.800000", "175035.050000", "175036.300000", "175037.550000", "175038.800000", "175040.050000", "175041.300000", "175042.550000", "175043.800000", "175045.050000", "175046.300000", "175047.550000", "175048.800000", "175050.050000", "175051.300000", "175052.550000", "175053.800000", "175055.050000", "175056.300000", "175057.550000", "175058.800000", "175100.050000", "175101.300000", "175102.550000", "175103.800000", "175105.050000", "175106.300000", "175107.550000", "175108.800000", "175110.050000", "175111.300000", "175112.550000", "175113.800000", "175115.050000", "175116.300000", "175117.550000", "175118.800000", "175120.050000", "175121.300000", "175122.550000", "175123.800000", "175125.050000", "175126.300000", "175127.550000", "175128.800000", "175130.050000", "175131.300000", "175132.550000", "175133.800000", "175135.050000", "175136.300000", "175137.550000", "175138.800000", "175140.050000", "175141.300000", "175142.550000", "175143.800000", "175145.050000", "175146.300000", "175147.550000", "175148.800000", "175150.050000", "175151.300000", "175152.550000", "175153.800000", "175155.050000", "175156.300000", "175157.550000", "175158.800000", "175200.050000", "175201.300000", "175202.550000", "175203.800000", "175205.050000", "175206.300000", "175207.550000", "175208.800000", "175210.050000", "175211.300000", "175212.550000", "175213.800000", "175215.050000", "175216.300000", "175217.550000", "175218.800000", "175220.050000", "175221.300000", "175222.550000", "175223.800000", "175225.050000", "175226.300000", "175227.550000", "175228.800000", "175230.050000", "175231.300000", "175232.550000", "175233.800000", "175235.050000", "175236.300000", "175237.550000", "175238.800000", "175240.050000", "175241.300000", "175242.550000", "175243.800000", "175245.050000", "175246.300000", "175247.550000", "175248.800000", "175250.050000", "175251.300000", "175252.550000", "175253.800000", "175255.050000", "175256.300000", "175257.550000", "175258.800000", "175300.050000", "175301.300000", "175302.550000", "175303.800000", "175305.050000", "175306.300000", "175307.550000", "175308.800000", "175310.050000", "175311.300000", "175312.550000", "175313.800000", "175315.050000", "175316.300000", "175317.550000", "175318.800000", "175320.050000", "175321.300000", "175322.550000", "175323.800000", "175325.050000", "175326.300000", "175327.550000", "175328.800000", "175330.050000", "175331.300000", "175332.550000", "175333.800000", "175335.050000", "175336.300000", "175337.550000", "175338.800000", "175340.050000", "175341.300000", "175342.550000", "175343.800000", "175345.050000", "175346.300000", "175347.550000", "175348.800000", "175350.050000", "175351.300000", "175352.550000", "175353.800000", "175355.050000", "175356.300000", "175357.550000", "175358.800000", "175400.050000", "175401.300000", "175402.550000", "175403.800000", "175405.050000", "175406.300000", "175407.550000", "175408.800000", "175410.050000", "175411.300000", "175412.550000", "175413.800000", "175415.050000", "175416.300000", "175417.550000", "175418.800000", "175420.050000", "175421.300000", "175422.550000", "175423.800000", "175425.050000", "175426.300000", "175427.550000", "175428.800000", "175430.050000", "175431.300000", "175432.550000", "175433.800000", "175435.050000", "175436.300000", "175437.550000", "175438.800000", "175440.050000", "175441.300000", "175442.550000", "175443.800000", "175445.050000", "175446.300000", "175447.550000", "175448.800000", "175450.050000", "175451.300000", "175452.550000", "175453.800000", "175455.050000", "175456.300000", "175457.550000", "175458.800000", "175500.050000", "175501.300000", "175502.550000", "175503.800000", "175505.050000", "175506.300000", "175507.550000", "175508.800000", "175510.050000", "175511.300000", "175512.550000", "175513.800000", "175515.050000", "175516.300000", "175517.550000", "175518.800000", "175520.050000", "175521.300000", "175522.550000", "175523.800000", "175525.050000", "175526.300000", "175527.550000", "175528.800000", "175530.050000", "175531.300000", "175532.550000", "175533.800000", "175535.050000", "175536.300000", "175537.550000", "175538.800000", "175540.050000", "175541.300000", "175542.550000", "175543.800000", "175545.050000", "175546.300000", "175547.550000", "175548.800000", "175550.050000", "175551.300000", "175552.550000", "175553.800000", "175555.050000", "175556.300000", "175557.550000", "175558.800000", "175600.050000", "175601.300000", "175602.550000", "175603.800000", "175605.050000", "175606.300000", "175607.550000", "175608.800000"],
      "ContentTime": ["175021.512000", "175022.647000", "175023.867000", "175025.077000", "175026.384000", "175027.626000", "175028.865000", "175030.114000", "175031.356000", "175032.576000", "175033.862000", "175035.099000", "175036.361000", "175037.643000", "175038.856000", "175040.138000", "175041.358000", "175042.632000", "175043.843000", "175045.101000", "175046.371000", "175047.651000", "175048.856000", "175050.115000", "175051.387000", "175052.613000", "175053.858000", "175055.107000", "175056.380000", "175057.621000", "175058.882000", "175100.142000", "175101.351000", "175102.639000", "175103.870000", "175105.133000", "175106.388000", "175107.631000", "175108.879000", "175110.128000", "175111.365000", "175112.608000", "175113.851000", "175115.132000", "175116.404000", "175117.603000", "175118.848000", "175120.103000", "175121.363000", "175122.606000", "175123.897000", "175125.101000", "175126.399000", "175127.607000", "175128.867000", "175130.116000", "175131.390000", "175132.623000", "175133.958000", "175135.135000", "175136.368000", "175137.597000", "175138.904000", "175140.095000", "175141.358000", "175142.595000", "175143.868000", "175145.151000", "175146.403000", "175147.634000", "175148.914000", "175150.131000", "175151.426000", "175152.605000", "175153.902000", "175155.133000", "175156.382000", "175157.623000", "175158.861000", "175200.108000", "175201.362000", "175202.631000", "175203.841000", "175205.115000", "175206.347000", "175207.617000", "175208.868000", "175210.090000", "175211.393000", "175212.634000", "175213.868000", "175215.099000", "175216.395000", "175217.576000", "175218.853000", "175220.128000", "175221.358000", "175222.638000", "175223.875000", "175225.107000", "175226.361000", "175227.620000", "175228.860000", "175230.145000", "175231.345000", "175232.617000", "175233.861000", "175235.090000", "175236.373000", "175237.670000", "175238.920000", "175240.115000", "175241.378000", "175242.647000", "175243.899000", "175245.143000", "175246.351000", "175247.651000", "175248.887000", "175250.103000", "175251.348000", "175252.614000", "175253.863000", "175255.104000", "175256.370000", "175257.616000", "175258.865000", "175300.155000", "175301.415000", "175302.634000", "175303.903000", "175305.135000", "175306.364000", "175307.625000", "175308.874000", "175310.092000", "175311.391000", "175312.631000", "175313.910000", "175315.120000", "175316.393000", "175317.666000", "175318.884000", "175320.133000", "175321.335000", "175322.630000", "175323.875000", "175325.118000", "175326.325000", "175327.628000", "175328.898000", "175330.159000", "175331.440000", "175332.629000", "175333.879000", "175335.122000", "175336.403000", "175337.621000", "175338.865000", "175340.128000", "175341.374000", "175342.603000", "175343.870000", "175345.121000", "175346.393000", "175347.698000", "175348.886000", "175350.146000", "175351.388000", "175352.663000", "175353.861000", "175355.156000", "175356.366000", "175357.613000", "175358.883000", "175400.129000", "175401.365000", "175402.606000", "175403.895000", "175405.117000", "175406.372000", "175407.622000", "175408.875000", "175410.173000", "175411.373000", "175412.642000", "175413.878000", "175415.133000", "175416.378000", "175417.619000", "175418.874000", "175420.129000", "175421.363000", "175422.654000", "175423.863000", "175425.099000", "175426.344000", "175427.614000", "175428.890000", "175430.150000", "175431.378000", "175432.628000", "175433.874000", "175435.126000", "175436.416000", "175437.647000", "175438.925000", "175440.136000", "175441.388000", "175442.636000", "175443.913000", "175445.114000", "175446.430000", "175447.588000", "175448.904000", "175450.104000", "175451.400000", "175452.627000", "175453.903000", "175455.133000", "175456.381000", "175457.633000", "175458.913000", "175500.175000", "175501.386000", "175502.643000", "175503.873000", "175505.112000", "175506.366000", "175507.620000", "175508.882000", "175510.116000", "175511.355000", "175512.612000", "175513.886000", "175515.108000", "175516.371000", "175517.602000", "175518.885000", "175520.108000", "175521.377000", "175522.674000", "175523.859000", "175525.120000", "175526.365000", "175527.629000", "175528.865000", "175530.107000", "175531.390000", "175532.616000", "175533.904000", "175535.119000", "175536.367000", "175537.628000", "175538.859000", "175540.110000", "175541.346000", "175542.609000", "175543.858000", "175545.107000", "175546.360000", "175547.610000", "175548.848000", "175550.075000", "175551.385000", "175552.637000", "175553.864000", "175555.105000", "175556.412000", "175557.642000", "175558.844000", "175600.126000", "175601.367000", "175602.636000", "175603.875000", "175605.136000", "175606.357000", "175607.612000", "175608.907000", "175610.140000"],
      "InstanceCreationTime": ["175021.512000", "175022.647000", "175023.867000", "175025.077000", "175026.384000", "175027.626000", "175028.865000", "175030.114000", "175031.356000", "175032.576000", "175033.862000", "175035.099000", "175036.361000", "175037.643000", "175038.856000", "175040.138000", "175041.358000", "175042.632000", "175043.843000", "175045.101000", "175046.371000", "175047.651000", "175048.856000", "175050.115000", "175051.387000", "175052.613000", "175053.858000", "175055.107000", "175056.380000", "175057.621000", "175058.882000", "175100.142000", "175101.351000", "175102.639000", "175103.870000", "175105.133000", "175106.388000", "175107.631000", "175108.879000", "175110.128000", "175111.365000", "175112.608000", "175113.851000", "175115.132000", "175116.404000", "175117.603000", "175118.848000", "175120.103000", "175121.363000", "175122.606000", "175123.897000", "175125.101000", "175126.399000", "175127.607000", "175128.867000", "175130.116000", "175131.390000", "175132.623000", "175133.958000", "175135.135000", "175136.368000", "175137.597000", "175138.904000", "175140.095000", "175141.358000", "175142.595000", "175143.868000", "175145.151000", "175146.403000", "175147.634000", "175148.914000", "175150.131000", "175151.426000", "175152.605000", "175153.902000", "175155.133000", "175156.382000", "175157.623000", "175158.861000", "175200.108000", "175201.362000", "175202.631000", "175203.841000", "175205.115000", "175206.347000", "175207.617000", "175208.868000", "175210.090000", "175211.393000", "175212.634000", "175213.868000", "175215.099000", "175216.395000", "175217.576000", "175218.853000", "175220.128000", "175221.358000", "175222.638000", "175223.875000", "175225.107000", "175226.361000", "175227.620000", "175228.860000", "175230.145000", "175231.345000", "175232.617000", "175233.861000", "175235.090000", "175236.373000", "175237.670000", "175238.920000", "175240.115000", "175241.378000", "175242.647000", "175243.899000", "175245.143000", "175246.351000", "175247.651000", "175248.887000", "175250.103000", "175251.348000", "175252.614000", "175253.863000", "175255.104000", "175256.370000", "175257.616000", "175258.865000", "175300.155000", "175301.415000", "175302.634000", "175303.903000", "175305.135000", "175306.364000", "175307.625000", "175308.874000", "175310.092000", "175311.391000", "175312.631000", "175313.910000", "175315.120000", "175316.393000", "175317.666000", "175318.884000", "175320.133000", "175321.335000", "175322.630000", "175323.875000", "175325.118000", "175326.325000", "175327.628000", "175328.898000", "175330.159000", "175331.440000", "175332.629000", "175333.879000", "175335.122000", "175336.403000", "175337.621000", "175338.865000", "175340.128000", "175341.374000", "175342.603000", "175343.870000", "175345.121000", "175346.393000", "175347.698000", "175348.886000", "175350.146000", "175351.388000", "175352.663000", "175353.861000", "175355.156000", "175356.366000", "175357.613000", "175358.883000", "175400.129000", "175401.365000", "175402.606000", "175403.895000", "175405.117000", "175406.372000", "175407.622000", "175408.875000", "175410.173000", "175411.373000", "175412.642000", "175413.878000", "175415.133000", "175416.378000", "175417.619000", "175418.874000", "175420.129000", "175421.363000", "175422.654000", "175423.863000", "175425.099000", "175426.344000", "175427.614000", "175428.890000", "175430.150000", "175431.378000", "175432.628000", "175433.874000", "175435.126000", "175436.416000", "175437.647000", "175438.925000", "175440.136000", "175441.388000", "175442.636000", "175443.913000", "175445.114000", "175446.430000", "175447.588000", "175448.904000", "175450.104000", "175451.400000", "175452.627000", "175453.903000", "175455.133000", "175456.381000", "175457.633000", "175458.913000", "175500.175000", "175501.386000", "175502.643000", "175503.873000", "175505.112000", "175506.366000", "175507.620000", "175508.882000", "175510.116000", "175511.355000", "175512.612000", "175513.886000", "175515.108000", "175516.371000", "175517.602000", "175518.885000", "175520.108000", "175521.377000", "175522.674000", "175523.859000", "175525.120000", "175526.365000", "175527.629000", "175528.865000", "175530.107000", "175531.390000", "175532.616000", "175533.904000", "175535.119000", "175536.367000", "175537.628000", "175538.859000", "175540.110000", "175541.346000", "175542.609000", "175543.858000", "175545.107000", "175546.360000", "175547.610000", "175548.848000", "175550.075000", "175551.385000", "175552.637000", "175553.864000", "175555.105000", "175556.412000", "175557.642000", "175558.844000", "175600.126000", "175601.367000", "175602.636000", "175603.875000", "175605.136000", "175606.357000", "175607.612000", "175608.907000", "175610.140000"],
      "InstanceNumber": [1, 2, 3, 4, 5, 6, 7, 8, 9, 10, 11, 12, 13, 14, 15, 16, 17, 18, 19, 20, 21, 22, 23, 24, 25, 26, 27, 28, 29, 30, 31, 32, 33, 34, 35, 36, 37, 38, 39, 40, 41, 42, 43, 44, 45, 46, 47, 48, 49, 50, 51, 52, 53, 54, 55, 56, 57, 58, 59, 60, 61, 62, 63, 64, 65, 66, 67, 68, 69, 70, 71, 72, 73, 74, 75, 76, 77, 78, 79, 80, 81, 82, 83, 84, 85, 86, 87, 88, 89, 90, 91, 92, 93, 94, 95, 96, 97, 98, 99, 100, 101, 102, 103, 104, 105, 106, 107, 108, 109, 110, 111, 112, 113, 114, 115, 116, 117, 118, 119, 120, 121, 122, 123, 124, 125, 126, 127, 128, 129, 130, 131, 132, 133, 134, 135, 136, 137, 138, 139, 140, 141, 142, 143, 144, 145, 146, 147, 148, 149, 150, 151, 152, 153, 154, 155, 156, 157, 158, 159, 160, 161, 162, 163, 164, 165, 166, 167, 168, 169, 170, 171, 172, 173, 174, 175, 176, 177, 178, 179, 180, 181, 182, 183, 184, 185, 186, 187, 188, 189, 190, 191, 192, 193, 194, 195, 196, 197, 198, 199, 200, 201, 202, 203, 204, 205, 206, 207, 208, 209, 210, 211, 212, 213, 214, 215, 216, 217, 218, 219, 220, 221, 222, 223, 224, 225, 226, 227, 228, 229, 230, 231, 232, 233, 234, 235, 236, 237, 238, 239, 240, 241, 242, 243, 244, 245, 246, 247, 248, 249, 250, 251, 252, 253, 254, 255, 256, 257, 258, 259, 260, 261, 262, 263, 264, 265, 266, 267, 268, 269, 270, 271, 272, 273, 274, 275, 276, 277, 278, 279, 280],
      "LargestImagePixelValue": [1087, 859, 863, 910, 884, 910, 1013, 915, 1015, 1038, 1053, 1012, 994, 889, 868, 882, 854, 812, 900, 959, 1030, 960, 938, 954, 1015, 882, 847, 1011, 868, 833, 832, 861, 878, 976, 1001, 891, 829, 853, 939, 875, 843, 899, 817, 1133, 1059, 1055, 853, 1027, 956, 935, 918, 900, 865, 873, 873, 877, 847, 849, 850, 854, 816, 867, 865, 866, 839, 848, 843, 821, 999, 935, 896, 865, 834, 876, 986, 958, 902, 886, 874, 884, 971, 875, 865, 833, 829, 890, 1008, 1035, 932, 967, 949, 918, 891, 899, 932, 840, 1016, 914, 992, 851, 869, 875, 839, 838, 955, 904, 922, 1000, 868, 848, 842, 842, 830, 837, 1032, 910, 888, 1110, 948, 960, 927, 884, 930, 850, 836, 851, 900, 889, 875, 883, 855, 853, 850, 1001, 900, 857, 866, 863, 922, 906, 1042, 910, 1087, 906, 1009, 939, 944, 975, 899, 998, 839, 908, 883, 918, 879, 849, 900, 871, 838, 894, 983, 923, 849, 955, 836, 834, 806, 837, 835, 851, 986, 951, 890, 1048, 963, 934, 1009, 948, 959, 1032, 975, 885, 910, 838, 976, 899, 1002, 905, 965, 857, 865, 864, 999, 922, 822, 829, 909, 924, 855, 1008, 953, 892, 1026, 974, 925, 942, 1075, 922, 878, 855, 1017, 912, 861, 840, 857, 893, 832, 957, 976, 877, 827, 886, 853, 816, 936, 867, 809, 917, 979, 853, 827, 872, 1033, 915, 835, 845, 946, 855, 1002, 869, 852, 845, 1000, 971, 918, 895, 855, 916, 929, 868, 849, 1001, 886, 1041, 944, 868, 949, 1033, 1004, 996, 853, 876, 831, 930, 888, 1092, 1059, 918, 882, 908, 992, 1119, 883, 853, 1006, 962, 948, 902, 925, 876],
      "WindowCenter": [395.0, 392.0, 392.0, 392.0, 392.0, 393.0, 393.0, 392.0, 392.0, 392.0, 392.0, 392.0, 392.0, 391.0, 391.0, 392.0, 392.0, 391.0, 391.0, 392.0, 393.0, 391.0, 391.0, 391.0, 393.0, 392.0, 391.0, 393.0, 391.0, 391.0, 391.0, 391.0, 391.0, 392.0, 392.0, 391.0, 391.0, 391.0, 392.0, 391.0, 391.0, 392.0, 391.0, 394.0, 393.0, 394.0, 391.0, 392.0, 391.0, 391.0, 390.0, 389.0, 388.0, 390.0, 390.0, 390.0, 390.0, 390.0, 390.0, 390.0, 390.0, 390.0, 390.0, 390.0, 390.0, 390.0, 390.0, 390.0, 392.0, 391.0, 391.0, 390.0, 390.0, 391.0, 392.0, 392.0, 392.0, 392.0, 392.0, 392.0, 393.0, 392.0, 391.0, 391.0, 391.0, 392.0, 393.0, 393.0, 392.0, 392.0, 392.0, 392.0, 392.0, 392.0, 392.0, 391.0, 393.0, 392.0, 392.0, 390.0, 391.0, 391.0, 391.0, 391.0, 392.0, 391.0, 390.0, 391.0, 389.0, 389.0, 390.0, 390.0, 391.0, 392.0, 394.0, 392.0, 392.0, 393.0, 392.0, 392.0, 392.0, 392.0, 392.0, 391.0, 391.0, 391.0, 391.0, 392.0, 392.0, 392.0, 392.0, 392.0, 392.0, 393.0, 392.0, 391.0, 391.0, 391.0, 391.0, 391.0, 393.0, 392.0, 394.0, 392.0, 393.0, 392.0, 392.0, 392.0, 391.0, 391.0, 390.0, 391.0, 391.0, 392.0, 391.0, 391.0, 392.0, 392.0, 391.0, 392.0, 393.0, 392.0, 391.0, 392.0, 391.0, 392.0, 391.0, 391.0, 391.0, 391.0, 392.0, 392.0, 392.0, 393.0, 392.0, 392.0, 393.0, 393.0, 394.0, 394.0, 393.0, 391.0, 392.0, 391.0, 392.0, 391.0, 392.0, 391.0, 391.0, 390.0, 390.0, 390.0, 391.0, 391.0, 391.0, 391.0, 392.0, 392.0, 391.0, 393.0, 392.0, 392.0, 393.0, 392.0, 391.0, 392.0, 393.0, 392.0, 392.0, 391.0, 393.0, 392.0, 391.0, 391.0, 391.0, 392.0, 391.0, 392.0, 392.0, 391.0, 390.0, 391.0, 390.0, 390.0, 392.0, 391.0, 391.0, 392.0, 393.0, 391.0, 390.0, 391.0, 393.0, 392.0, 391.0, 391.0, 392.0, 391.0, 392.0, 390.0, 391.0, 390.0, 392.0, 392.0, 392.0, 392.0, 391.0, 391.0, 391.0, 390.0, 390.0, 392.0, 391.0, 393.0, 392.0, 391.0, 392.0, 392.0, 391.0, 391.0, 389.0, 390.0, 390.0, 391.0, 391.0, 394.0, 393.0, 392.0, 392.0, 392.0, 393.0, 394.0, 391.0, 390.0, 391.0, 391.0, 391.0, 392.0, 392.0, 391.0],
      "WindowWidth": [838.0, 832.0, 832.0, 832.0, 832.0, 833.0, 833.0, 831.0, 831.0, 830.0, 831.0, 831.0, 831.0, 830.0, 830.0, 831.0, 831.0, 829.0, 830.0, 830.0, 832.0, 829.0, 829.0, 830.0, 832.0, 831.0, 831.0, 832.0, 830.0, 830.0, 829.0, 830.0, 830.0, 831.0, 831.0, 829.0, 829.0, 830.0, 831.0, 830.0, 829.0, 832.0, 831.0, 834.0, 833.0, 834.0, 829.0, 830.0, 830.0, 829.0, 827.0, 825.0, 825.0, 827.0, 827.0, 827.0, 827.0, 827.0, 828.0, 829.0, 829.0, 829.0, 829.0, 829.0, 829.0, 829.0, 829.0, 828.0, 831.0, 829.0, 829.0, 829.0, 829.0, 830.0, 831.0, 831.0, 831.0, 831.0, 831.0, 831.0, 833.0, 831.0, 830.0, 830.0, 831.0, 832.0, 832.0, 833.0, 832.0, 832.0, 831.0, 831.0, 831.0, 831.0, 831.0, 829.0, 832.0, 830.0, 831.0, 828.0, 829.0, 830.0, 830.0, 830.0, 832.0, 830.0, 828.0, 828.0, 826.0, 826.0, 828.0, 829.0, 830.0, 831.0, 834.0, 832.0, 831.0, 833.0, 831.0, 831.0, 831.0, 831.0, 831.0, 829.0, 829.0, 830.0, 830.0, 831.0, 831.0, 831.0, 831.0, 831.0, 831.0, 833.0, 831.0, 830.0, 829.0, 830.0, 830.0, 830.0, 833.0, 832.0, 834.0, 831.0, 832.0, 830.0, 830.0, 831.0, 830.0, 830.0, 828.0, 829.0, 830.0, 831.0, 830.0, 830.0, 832.0, 831.0, 831.0, 831.0, 832.0, 831.0, 829.0, 832.0, 831.0, 831.0, 830.0, 830.0, 830.0, 830.0, 832.0, 832.0, 831.0, 833.0, 832.0, 832.0, 834.0, 833.0, 834.0, 834.0, 833.0, 830.0, 831.0, 829.0, 831.0, 830.0, 831.0, 829.0, 830.0, 827.0, 827.0, 827.0, 830.0, 829.0, 829.0, 830.0, 831.0, 832.0, 830.0, 832.0, 831.0, 831.0, 832.0, 831.0, 829.0, 830.0, 833.0, 831.0, 831.0, 830.0, 832.0, 831.0, 829.0, 829.0, 831.0, 832.0, 831.0, 832.0, 831.0, 830.0, 828.0, 829.0, 829.0, 828.0, 832.0, 830.0, 830.0, 832.0, 833.0, 830.0, 828.0, 830.0, 832.0, 830.0, 829.0, 830.0, 832.0, 830.0, 831.0, 829.0, 829.0, 828.0, 831.0, 831.0, 830.0, 831.0, 830.0, 830.0, 829.0, 829.0, 829.0, 831.0, 830.0, 833.0, 832.0, 830.0, 831.0, 831.0, 830.0, 829.0, 826.0, 828.0, 828.0, 830.0, 830.0, 834.0, 833.0, 831.0, 831.0, 832.0, 833.0, 834.0, 830.0, 828.0, 830.0, 830.0, 830.0, 830.0, 831.0, 830.0]
    },
    "slices": {}
  }
}