{
  "AcquisitionMatrixPE": 96,
  "AcquisitionNumber": 1,
  "AcquisitionTime": "17:31:2.020000",
  "BandwidthPerPixelPhaseEncode": 18.939,
  "BaseResolution": 96,
  "BodyPartExamined": "BRAIN",
  "ConsistencyInfo": "N4_VE11C_LATEST_20160120",
  "ConversionSoftware": "dcm2niix",
  "ConversionSoftwareVersion": "v1.0.20170923 (OpenJPEG build) GCC6.3.0",
  "DerivedVendorReportedEchoSpacing": 0.000550011,
  "DeviceSerialNumber": "66112",
  "DwellTime": 2.3e-06,
  "EchoTime": 0.033,
  "EchoTrainLength": 96,
  "EffectiveEchoSpacing": 0.000550011,
  "FlipAngle": 64,
  "ImageType": [
    "ORIGINAL",
    "PRIMARY",
    "FMRI",
    "NONE",
    "ND",
    "NORM",
    "MOSAIC"
],
  "InstitutionAddress": "Maynard_3_Hanover_NH_US_03755",
  "InstitutionName": "Dartmouth_College_-_PBS",
  "MagneticFieldStrength": 3,
  "Manufacturer": "Siemens",
  "ManufacturersModelName": "Prisma",
  "Modality": "MR",
  "MultibandAccelerationFactor": 4,
  "PartialFourier": 1,
  "PercentPhaseFOV": 100,
  "PhaseEncodingDirection": "j-",
  "PhaseEncodingSteps": 96,
  "PhaseResolution": 1,
  "ProcedureStepDescription": "Gobbini_Matteo_1017_famface-angles",
  "ProtocolName": "func_run-08_task-fam1back",
  "PulseSequenceDetails": "%SiemensSeq%_ep2d_bold",
  "ReceiveCoilActiveElements": "HEA;HEP",
  "ReceiveCoilName": "Head_32",
  "ReconMatrixPE": 96,
  "RepetitionTime": 1.25,
  "ScanOptions": "FS",
  "ScanningSequence": "EP",
  "SequenceName": "_epfid2d1_96",
  "SequenceVariant": "SK",
  "SeriesDescription": "func_run-08_task-fam1back",
  "SliceTiming": [0.8775, 0, 0.615, 0.0875, 0.7025, 0.175, 0.79, 0.35, 0.965, 0.44, 1.055, 0.5275, 1.1425, 0.2625, 0.8775, 0, 0.615, 0.0875, 0.7025, 0.175, 0.79, 0.35, 0.965, 0.44, 1.055, 0.5275, 1.1425, 0.2625, 0.8775, 0, 0.615, 0.0875, 0.7025, 0.175, 0.79, 0.35, 0.965, 0.44, 1.055, 0.5275, 1.1425, 0.2625, 0.8775, 0, 0.615, 0.0875, 0.7025, 0.175, 0.79, 0.35, 0.965, 0.44, 1.055, 0.5275, 1.1425, 0.2625],
  "SoftwareVersions": "syngo_MR_E11",
  "StationName": "AWP66112",
  "TaskName": "fam1back",
  "TotalReadoutTime": 0.0522511,
  "dcmmeta_affine": [
    [-2.4948906898498535, 0.013063459657132626, 0.15921556949615479, 117.25891876220703],
    [0.03031955286860466, 2.485060691833496, 0.27120766043663025, -115.8316421508789],
    [0.15684698522090912, -0.27258431911468506, 2.480140447616577, -65.5165023803711],
    [0.0, 0.0, 0.0, 1.0]
],
  "dcmmeta_reorient_transform": [
    [0.0, -1.0, 0.0, 95.0],
    [1.0, 0.0, 0.0, 0.0],
    [0.0, 0.0, 1.0, 0.0],
    [0.0, 0.0, 0.0, 1.0]
],
  "dcmmeta_shape": [96, 96, 56, 280],
  "dcmmeta_slice_dim": 2,
  "dcmmeta_version": 0.6,
  "global": {
    "const": {
      "AccessionNumber": "A000234",
      "AcquisitionMatrix": [96, 0, 0, 96],
      "AngioFlag": "N",
      "BitsAllocated": 16,
      "BitsStored": 12,
      "BodyPartExamined": "BRAIN",
      "Columns": 768,
      "EchoNumbers": 1,
      "EchoTime": 33.0,
      "EchoTrainLength": 96,
      "FlipAngle": 64.0,
      "HighBit": 11,
      "ImageOrientationPatient": [0.99795629145804, -0.0121278209914, 0.06273879419714, 0.00522538374111, 0.99402431676021, 0.10903372438906],
      "ImagePositionPatient": [-961.17255639885, -945.04219074195, -235.70092661961],
      "ImageType": [
        "ORIGINAL",
        "PRIMARY",
        "FMRI",
        "NONE",
        "ND",
        "NORM",
        "MOSAIC"
],
      "ImagedNucleus": "1H",
      "ImagingFrequency": 123.25237,
      "InPlanePhaseEncodingDirection": "COL",
      "MRAcquisitionType": "2D",
      "MagneticFieldStrength": 3.0,
      "Manufacturer": "SIEMENS",
      "ManufacturerModelName": "Prisma",
      "Modality": "MR",
      "NumberOfAverages": 1.0,
      "NumberOfPhaseEncodingSteps": 96,
      "PercentPhaseFieldOfView": 100.0,
      "PercentSampling": 100.0,
      "PerformedProcedureStepStartTime": "162045.106000",
      "PhotometricInterpretation": "MONOCHROME2",
      "PixelBandwidth": 2265.0,
      "PixelRepresentation": 0,
      "PixelSpacing": [2.5, 2.5],
      "PositionReferenceIndicator": "",
      "ProtocolName": "func_run-08_task-fam1back",
      "RepetitionTime": 1250.0,
      "Rows": 768,
      "SAR": 0.04946632584266,
      "SamplesPerPixel": 1,
      "ScanOptions": "FS",
      "ScanningSequence": "EP",
      "SequenceName": "*epfid2d1_96",
      "SequenceVariant": "SK",
      "SeriesDescription": "func_run-08_task-fam1back",
      "SeriesNumber": 60,
      "SeriesTime": "173103.534000",
      "SliceLocation": -70.094043128439,
      "SliceThickness": 2.5,
      "SmallestImagePixelValue": 0,
      "SoftwareVersions": "syngo MR E11",
      "SpacingBetweenSlices": 2.5000000620294,
      "SpecificCharacterSet": "ISO_IR 100",
      "StudyID": "1",
      "StudyTime": "162045.036000",
      "TransmitCoilName": "Body",
      "VariableFlipAngleFlag": "N",
      "WindowCenterWidthExplanation": "Algo1",
      "dBdt": 0.0},
    "slices": {}
  },
  "time": {
    "samples": {
      "AcquisitionNumber": [1, 2, 3, 4, 5, 6, 7, 8, 9, 10, 11, 12, 13, 14, 15, 16, 17, 18, 19, 20, 21, 22, 23, 24, 25, 26, 27, 28, 29, 30, 31, 32, 33, 34, 35, 36, 37, 38, 39, 40, 41, 42, 43, 44, 45, 46, 47, 48, 49, 50, 51, 52, 53, 54, 55, 56, 57, 58, 59, 60, 61, 62, 63, 64, 65, 66, 67, 68, 69, 70, 71, 72, 73, 74, 75, 76, 77, 78, 79, 80, 81, 82, 83, 84, 85, 86, 87, 88, 89, 90, 91, 92, 93, 94, 95, 96, 97, 98, 99, 100, 101, 102, 103, 104, 105, 106, 107, 108, 109, 110, 111, 112, 113, 114, 115, 116, 117, 118, 119, 120, 121, 122, 123, 124, 125, 126, 127, 128, 129, 130, 131, 132, 133, 134, 135, 136, 137, 138, 139, 140, 141, 142, 143, 144, 145, 146, 147, 148, 149, 150, 151, 152, 153, 154, 155, 156, 157, 158, 159, 160, 161, 162, 163, 164, 165, 166, 167, 168, 169, 170, 171, 172, 173, 174, 175, 176, 177, 178, 179, 180, 181, 182, 183, 184, 185, 186, 187, 188, 189, 190, 191, 192, 193, 194, 195, 196, 197, 198, 199, 200, 201, 202, 203, 204, 205, 206, 207, 208, 209, 210, 211, 212, 213, 214, 215, 216, 217, 218, 219, 220, 221, 222, 223, 224, 225, 226, 227, 228, 229, 230, 231, 232, 233, 234, 235, 236, 237, 238, 239, 240, 241, 242, 243, 244, 245, 246, 247, 248, 249, 250, 251, 252, 253, 254, 255, 256, 257, 258, 259, 260, 261, 262, 263, 264, 265, 266, 267, 268, 269, 270, 271, 272, 273, 274, 275, 276, 277, 278, 279, 280],
      "AcquisitionTime": ["173102.020000", "173103.270000", "173104.520000", "173105.770000", "173107.020000", "173108.270000", "173109.520000", "173110.770000", "173112.020000", "173113.270000", "173114.520000", "173115.770000", "173117.020000", "173118.270000", "173119.520000", "173120.770000", "173122.020000", "173123.270000", "173124.520000", "173125.770000", "173127.020000", "173128.270000", "173129.520000", "173130.770000", "173132.020000", "173133.270000", "173134.520000", "173135.770000", "173137.020000", "173138.270000", "173139.520000", "173140.770000", "173142.020000", "173143.270000", "173144.520000", "173145.770000", "173147.020000", "173148.270000", "173149.520000", "173150.770000", "173152.020000", "173153.270000", "173154.520000", "173155.770000", "173157.020000", "173158.270000", "173159.520000", "173200.770000", "173202.020000", "173203.270000", "173204.520000", "173205.770000", "173207.020000", "173208.270000", "173209.520000", "173210.770000", "173212.020000", "173213.270000", "173214.520000", "173215.770000", "173217.020000", "173218.270000", "173219.520000", "173220.770000", "173222.020000", "173223.270000", "173224.520000", "173225.770000", "173227.020000", "173228.270000", "173229.520000", "173230.770000", "173232.020000", "173233.270000", "173234.520000", "173235.770000", "173237.020000", "173238.270000", "173239.520000", "173240.770000", "173242.020000", "173243.270000", "173244.520000", "173245.770000", "173247.020000", "173248.270000", "173249.520000", "173250.770000", "173252.020000", "173253.270000", "173254.520000", "173255.770000", "173257.020000", "173258.270000", "173259.520000", "173300.770000", "173302.020000", "173303.270000", "173304.520000", "173305.770000", "173307.020000", "173308.270000", "173309.520000", "173310.770000", "173312.020000", "173313.270000", "173314.520000", "173315.770000", "173317.020000", "173318.270000", "173319.520000", "173320.770000", "173322.020000", "173323.270000", "173324.520000", "173325.770000", "173327.020000", "173328.270000", "173329.520000", "173330.770000", "173332.020000", "173333.270000", "173334.520000", "173335.770000", "173337.020000", "173338.270000", "173339.520000", "173340.770000", "173342.020000", "173343.270000", "173344.520000", "173345.770000", "173347.020000", "173348.270000", "173349.520000", "173350.770000", "173352.020000", "173353.270000", "173354.520000", "173355.770000", "173357.020000", "173358.270000", "173359.520000", "173400.770000", "173402.020000", "173403.270000", "173404.520000", "173405.770000", "173407.020000", "173408.270000", "173409.520000", "173410.770000", "173412.020000", "173413.270000", "173414.520000", "173415.770000", "173417.020000", "173418.270000", "173419.520000", "173420.770000", "173422.020000", "173423.270000", "173424.520000", "173425.770000", "173427.020000", "173428.270000", "173429.520000", "173430.770000", "173432.020000", "173433.270000", "173434.520000", "173435.770000", "173437.020000", "173438.270000", "173439.520000", "173440.770000", "173442.020000", "173443.270000", "173444.520000", "173445.770000", "173447.020000", "173448.270000", "173449.520000", "173450.770000", "173452.020000", "173453.270000", "173454.520000", "173455.770000", "173457.020000", "173458.270000", "173459.520000", "173500.770000", "173502.020000", "173503.270000", "173504.520000", "173505.770000", "173507.020000", "173508.270000", "173509.520000", "173510.770000", "173512.020000", "173513.270000", "173514.520000", "173515.770000", "173517.020000", "173518.270000", "173519.520000", "173520.770000", "173522.020000", "173523.270000", "173524.520000", "173525.770000", "173527.020000", "173528.270000", "173529.520000", "173530.770000", "173532.020000", "173533.270000", "173534.520000", "173535.770000", "173537.020000", "173538.270000", "173539.520000", "173540.770000", "173542.020000", "173543.270000", "173544.520000", "173545.770000", "173547.020000", "173548.270000", "173549.520000", "173550.770000", "173552.020000", "173553.270000", "173554.520000", "173555.770000", "173557.020000", "173558.270000", "173559.520000", "173600.770000", "173602.020000", "173603.270000", "173604.520000", "173605.770000", "173607.020000", "173608.270000", "173609.520000", "173610.770000", "173612.020000", "173613.270000", "173614.520000", "173615.770000", "173617.020000", "173618.270000", "173619.520000", "173620.770000", "173622.020000", "173623.270000", "173624.520000", "173625.770000", "173627.020000", "173628.270000", "173629.520000", "173630.770000", "173632.020000", "173633.270000", "173634.520000", "173635.770000", "173637.020000", "173638.270000", "173639.520000", "173640.770000", "173642.020000", "173643.270000", "173644.520000", "173645.770000", "173647.020000", "173648.270000", "173649.520000", "173650.770000"],
      "ContentTime": ["173103.541000", "173104.535000", "173105.798000", "173107.078000", "173108.301000", "173109.574000", "173110.767000", "173112.019000", "173113.304000", "173114.527000", "173115.787000", "173117.032000", "173118.280000", "173119.539000", "173120.778000", "173122.073000", "173123.315000", "173124.549000", "173125.793000", "173127.054000", "173128.263000", "173129.538000", "173130.792000", "173132.067000", "173133.291000", "173134.536000", "173135.745000", "173137.125000", "173138.281000", "173139.559000", "173140.775000", "173142.041000", "173143.310000", "173144.562000", "173145.800000", "173147.039000", "173148.283000", "173149.553000", "173150.766000", "173152.044000", "173153.289000", "173154.606000", "173155.798000", "173157.033000", "173158.275000", "173159.538000", "173200.777000", "173202.027000", "173203.307000", "173204.537000", "173205.766000", "173207.026000", "173208.332000", "173209.534000", "173210.780000", "173212.038000", "173213.271000", "173214.521000", "173215.799000", "173217.062000", "173218.301000", "173219.527000", "173220.760000", "173222.024000", "173223.314000", "173224.553000", "173225.803000", "173227.030000", "173228.296000", "173229.545000", "173230.816000", "173232.035000", "173233.312000", "173234.540000", "173235.798000", "173237.026000", "173238.304000", "173239.521000", "173240.780000", "173242.049000", "173243.335000", "173244.526000", "173245.817000", "173247.024000", "173248.363000", "173249.570000", "173250.789000", "173252.025000", "173253.280000", "173254.535000", "173255.792000", "173257.026000", "173258.346000", "173259.531000", "173300.788000", "173302.045000", "173303.318000", "173304.514000", "173305.770000", "173307.028000", "173308.281000", "173309.571000", "173310.834000", "173312.028000", "173313.299000", "173314.534000", "173315.798000", "173317.032000", "173318.322000", "173319.549000", "173320.818000", "173322.067000", "173323.318000", "173324.568000", "173325.790000", "173327.069000", "173328.284000", "173329.573000", "173330.823000", "173332.064000", "173333.319000", "173334.564000", "173335.824000", "173337.040000", "173338.275000", "173339.583000", "173340.769000", "173342.051000", "173343.302000", "173344.541000", "173345.786000", "173347.069000", "173348.283000", "173349.543000", "173350.796000", "173352.057000", "173353.323000", "173354.558000", "173355.789000", "173357.086000", "173358.333000", "173359.581000", "173400.809000", "173402.036000", "173403.264000", "173404.526000", "173405.831000", "173407.055000", "173408.317000", "173409.542000", "173410.796000", "173412.061000", "173413.285000", "173414.555000", "173415.781000", "173417.062000", "173418.290000", "173419.573000", "173420.803000", "173422.039000", "173423.323000", "173424.550000", "173425.807000", "173427.041000", "173428.309000", "173429.550000", "173430.816000", "173432.022000", "173433.294000", "173434.567000", "173435.787000", "173437.059000", "173438.300000", "173439.544000", "173440.795000", "173442.031000", "173443.274000", "173444.541000", "173445.831000", "173447.102000", "173448.316000", "173449.556000", "173450.829000", "173452.049000", "173453.339000", "173454.588000", "173455.787000", "173457.089000", "173458.335000", "173459.534000", "173500.802000", "173502.039000", "173503.295000", "173504.525000", "173505.795000", "173507.037000", "173508.340000", "173509.546000", "173510.801000", "173512.046000", "173513.327000", "173514.541000", "173515.816000", "173517.061000", "173518.267000", "173519.564000", "173520.758000", "173522.043000", "173523.294000", "173524.554000", "173525.821000", "173527.056000", "173528.334000", "173529.552000", "173530.777000", "173532.047000", "173533.352000", "173534.596000", "173535.844000", "173537.031000", "173538.282000", "173539.568000", "173540.763000", "173542.055000", "173543.304000", "173544.549000", "173545.784000", "173547.055000", "173548.294000", "173549.516000", "173550.794000", "173552.056000", "173553.296000", "173554.575000", "173555.813000", "173557.037000", "173558.285000", "173559.536000", "173600.835000", "173602.059000", "173603.302000", "173604.564000", "173605.824000", "173607.044000", "173608.345000", "173609.598000", "173610.784000", "173612.063000", "173613.341000", "173614.530000", "173615.798000", "173617.032000", "173618.283000", "173619.540000", "173620.818000", "173622.044000", "173623.314000", "173624.540000", "173625.787000", "173627.057000", "173628.290000", "173629.560000", "173630.801000", "173632.091000", "173633.316000", "173634.524000", "173635.766000", "173637.033000", "173638.290000", "173639.538000", "173640.793000", "173642.052000", "173643.310000", "173644.543000", "173645.802000", "173647.020000", "173648.282000", "173649.522000", "173650.805000", "173652.088000"],
      "InstanceCreationTime": ["173103.541000", "173104.535000", "173105.798000", "173107.078000", "173108.301000", "173109.574000", "173110.767000", "173112.019000", "173113.304000", "173114.527000", "173115.787000", "173117.032000", "173118.280000", "173119.539000", "173120.778000", "173122.073000", "173123.315000", "173124.549000", "173125.793000", "173127.054000", "173128.263000", "173129.538000", "173130.792000", "173132.067000", "173133.291000", "173134.536000", "173135.745000", "173137.125000", "173138.281000", "173139.559000", "173140.775000", "173142.041000", "173143.310000", "173144.562000", "173145.800000", "173147.039000", "173148.283000", "173149.553000", "173150.766000", "173152.044000", "173153.289000", "173154.606000", "173155.798000", "173157.033000", "173158.275000", "173159.538000", "173200.777000", "173202.027000", "173203.307000", "173204.537000", "173205.766000", "173207.026000", "173208.332000", "173209.534000", "173210.780000", "173212.038000", "173213.271000", "173214.521000", "173215.799000", "173217.062000", "173218.301000", "173219.527000", "173220.760000", "173222.024000", "173223.314000", "173224.553000", "173225.803000", "173227.030000", "173228.296000", "173229.545000", "173230.816000", "173232.035000", "173233.312000", "173234.540000", "173235.798000", "173237.026000", "173238.304000", "173239.521000", "173240.780000", "173242.049000", "173243.335000", "173244.526000", "173245.817000", "173247.024000", "173248.363000", "173249.570000", "173250.789000", "173252.025000", "173253.280000", "173254.535000", "173255.792000", "173257.026000", "173258.346000", "173259.531000", "173300.788000", "173302.045000", "173303.318000", "173304.514000", "173305.770000", "173307.028000", "173308.281000", "173309.571000", "173310.834000", "173312.028000", "173313.299000", "173314.534000", "173315.798000", "173317.032000", "173318.322000", "173319.549000", "173320.818000", "173322.067000", "173323.318000", "173324.568000", "173325.790000", "173327.069000", "173328.284000", "173329.573000", "173330.823000", "173332.064000", "173333.319000", "173334.564000", "173335.824000", "173337.040000", "173338.275000", "173339.583000", "173340.769000", "173342.051000", "173343.302000", "173344.541000", "173345.786000", "173347.069000", "173348.283000", "173349.543000", "173350.796000", "173352.057000", "173353.323000", "173354.558000", "173355.789000", "173357.086000", "173358.333000", "173359.581000", "173400.809000", "173402.036000", "173403.264000", "173404.526000", "173405.831000", "173407.055000", "173408.317000", "173409.542000", "173410.796000", "173412.061000", "173413.285000", "173414.555000", "173415.781000", "173417.062000", "173418.290000", "173419.573000", "173420.803000", "173422.039000", "173423.323000", "173424.550000", "173425.807000", "173427.041000", "173428.309000", "173429.550000", "173430.816000", "173432.022000", "173433.294000", "173434.567000", "173435.787000", "173437.059000", "173438.300000", "173439.544000", "173440.795000", "173442.031000", "173443.274000", "173444.541000", "173445.831000", "173447.102000", "173448.316000", "173449.556000", "173450.829000", "173452.049000", "173453.339000", "173454.588000", "173455.787000", "173457.089000", "173458.335000", "173459.534000", "173500.802000", "173502.039000", "173503.295000", "173504.525000", "173505.795000", "173507.037000", "173508.340000", "173509.546000", "173510.801000", "173512.046000", "173513.327000", "173514.541000", "173515.816000", "173517.061000", "173518.267000", "173519.564000", "173520.758000", "173522.043000", "173523.294000", "173524.554000", "173525.821000", "173527.056000", "173528.334000", "173529.552000", "173530.777000", "173532.047000", "173533.352000", "173534.596000", "173535.844000", "173537.031000", "173538.282000", "173539.568000", "173540.763000", "173542.055000", "173543.304000", "173544.549000", "173545.784000", "173547.055000", "173548.294000", "173549.516000", "173550.794000", "173552.056000", "173553.296000", "173554.575000", "173555.813000", "173557.037000", "173558.285000", "173559.536000", "173600.835000", "173602.059000", "173603.302000", "173604.564000", "173605.824000", "173607.044000", "173608.345000", "173609.598000", "173610.784000", "173612.063000", "173613.341000", "173614.530000", "173615.798000", "173617.032000", "173618.283000", "173619.540000", "173620.818000", "173622.044000", "173623.314000", "173624.540000", "173625.787000", "173627.057000", "173628.290000", "173629.560000", "173630.801000", "173632.091000", "173633.316000", "173634.524000", "173635.766000", "173637.033000", "173638.290000", "173639.538000", "173640.793000", "173642.052000", "173643.310000", "173644.543000", "173645.802000", "173647.020000", "173648.282000", "173649.522000", "173650.805000", "173652.088000"],
      "InstanceNumber": [1, 2, 3, 4, 5, 6, 7, 8, 9, 10, 11, 12, 13, 14, 15, 16, 17, 18, 19, 20, 21, 22, 23, 24, 25, 26, 27, 28, 29, 30, 31, 32, 33, 34, 35, 36, 37, 38, 39, 40, 41, 42, 43, 44, 45, 46, 47, 48, 49, 50, 51, 52, 53, 54, 55, 56, 57, 58, 59, 60, 61, 62, 63, 64, 65, 66, 67, 68, 69, 70, 71, 72, 73, 74, 75, 76, 77, 78, 79, 80, 81, 82, 83, 84, 85, 86, 87, 88, 89, 90, 91, 92, 93, 94, 95, 96, 97, 98, 99, 100, 101, 102, 103, 104, 105, 106, 107, 108, 109, 110, 111, 112, 113, 114, 115, 116, 117, 118, 119, 120, 121, 122, 123, 124, 125, 126, 127, 128, 129, 130, 131, 132, 133, 134, 135, 136, 137, 138, 139, 140, 141, 142, 143, 144, 145, 146, 147, 148, 149, 150, 151, 152, 153, 154, 155, 156, 157, 158, 159, 160, 161, 162, 163, 164, 165, 166, 167, 168, 169, 170, 171, 172, 173, 174, 175, 176, 177, 178, 179, 180, 181, 182, 183, 184, 185, 186, 187, 188, 189, 190, 191, 192, 193, 194, 195, 196, 197, 198, 199, 200, 201, 202, 203, 204, 205, 206, 207, 208, 209, 210, 211, 212, 213, 214, 215, 216, 217, 218, 219, 220, 221, 222, 223, 224, 225, 226, 227, 228, 229, 230, 231, 232, 233, 234, 235, 236, 237, 238, 239, 240, 241, 242, 243, 244, 245, 246, 247, 248, 249, 250, 251, 252, 253, 254, 255, 256, 257, 258, 259, 260, 261, 262, 263, 264, 265, 266, 267, 268, 269, 270, 271, 272, 273, 274, 275, 276, 277, 278, 279, 280],
      "LargestImagePixelValue": [995, 925, 898, 1019, 875, 846, 868, 935, 966, 1090, 1101, 1145, 1021, 952, 885, 810, 881, 816, 851, 1072, 986, 940, 924, 848, 874, 951, 852, 1099, 951, 906, 855, 882, 935, 825, 830, 874, 1033, 977, 1052, 968, 922, 859, 921, 852, 823, 853, 839, 906, 818, 937, 935, 817, 847, 845, 852, 930, 817, 954, 1043, 1048, 925, 919, 826, 924, 855, 852, 856, 874, 847, 910, 891, 988, 1022, 879, 977, 904, 900, 863, 897, 851, 829, 830, 871, 842, 945, 879, 821, 872, 980, 1070, 942, 866, 938, 894, 838, 1106, 879, 822, 834, 836, 877, 844, 830, 958, 900, 840, 923, 882, 974, 879, 1000, 882, 1085, 998, 911, 841, 833, 826, 919, 836, 904, 954, 864, 876, 1090, 1006, 861, 985, 922, 924, 831, 931, 831, 943, 940, 932, 885, 941, 894, 1084, 845, 809, 867, 921, 1117, 927, 911, 819, 865, 845, 823, 1023, 859, 852, 869, 859, 868, 859, 1070, 950, 830, 1068, 927, 816, 1018, 867, 887, 873, 860, 826, 1041, 1013, 893, 1055, 884, 819, 851, 859, 858, 909, 865, 834, 862, 925, 987, 949, 1030, 868, 836, 1040, 960, 1077, 988, 970, 940, 1078, 901, 929, 891, 1050, 924, 917, 848, 832, 819, 1016, 1022, 850, 897, 937, 927, 823, 900, 1031, 953, 865, 813, 870, 1004, 887, 957, 904, 854, 955, 904, 819, 824, 848, 866, 1046, 906, 911, 861, 851, 947, 850, 1040, 838, 820, 831, 857, 1006, 925, 1038, 888, 883, 853, 813, 903, 865, 901, 887, 981, 961, 833, 837, 857, 882, 848, 1055, 819, 860, 987, 947, 1076, 952, 971, 936, 871, 840, 1002, 859, 835, 989, 956, 876, 914, 991, 937, 851],
      "WindowCenter": [395.0, 393.0, 392.0, 393.0, 391.0, 391.0, 391.0, 393.0, 393.0, 393.0, 393.0, 392.0, 391.0, 390.0, 390.0, 389.0, 390.0, 390.0, 390.0, 393.0, 392.0, 392.0, 392.0, 391.0, 391.0, 392.0, 391.0, 394.0, 392.0, 392.0, 391.0, 391.0, 392.0, 391.0, 391.0, 392.0, 393.0, 392.0, 393.0, 392.0, 392.0, 391.0, 392.0, 391.0, 390.0, 391.0, 391.0, 391.0, 391.0, 392.0, 392.0, 390.0, 391.0, 391.0, 392.0, 393.0, 391.0, 392.0, 393.0, 393.0, 391.0, 392.0, 391.0, 392.0, 391.0, 391.0, 391.0, 391.0, 391.0, 392.0, 392.0, 392.0, 392.0, 390.0, 392.0, 391.0, 391.0, 391.0, 391.0, 391.0, 390.0, 390.0, 391.0, 391.0, 392.0, 391.0, 390.0, 391.0, 392.0, 393.0, 391.0, 391.0, 392.0, 392.0, 391.0, 393.0, 391.0, 390.0, 391.0, 391.0, 392.0, 391.0, 391.0, 392.0, 391.0, 391.0, 392.0, 391.0, 392.0, 390.0, 392.0, 391.0, 393.0, 392.0, 391.0, 391.0, 391.0, 390.0, 392.0, 391.0, 392.0, 393.0, 392.0, 393.0, 394.0, 393.0, 391.0, 392.0, 392.0, 392.0, 391.0, 392.0, 391.0, 392.0, 392.0, 392.0, 391.0, 391.0, 390.0, 392.0, 390.0, 390.0, 391.0, 391.0, 393.0, 391.0, 391.0, 390.0, 391.0, 391.0, 391.0, 393.0, 391.0, 392.0, 392.0, 391.0, 392.0, 391.0, 393.0, 391.0, 390.0, 393.0, 391.0, 390.0, 392.0, 390.0, 392.0, 392.0, 392.0, 391.0, 393.0, 392.0, 390.0, 391.0, 390.0, 389.0, 390.0, 390.0, 390.0, 391.0, 391.0, 391.0, 392.0, 392.0, 393.0, 392.0, 393.0, 391.0, 391.0, 393.0, 392.0, 393.0, 392.0, 392.0, 392.0, 393.0, 390.0, 391.0, 390.0, 392.0, 391.0, 391.0, 391.0, 391.0, 391.0, 393.0, 393.0, 391.0, 391.0, 391.0, 391.0, 391.0, 392.0, 393.0, 392.0, 391.0, 391.0, 391.0, 392.0, 391.0, 392.0, 391.0, 391.0, 392.0, 391.0, 390.0, 390.0, 391.0, 391.0, 393.0, 391.0, 392.0, 391.0, 391.0, 392.0, 391.0, 392.0, 391.0, 390.0, 391.0, 391.0, 393.0, 392.0, 393.0, 391.0, 391.0, 391.0, 391.0, 391.0, 391.0, 392.0, 391.0, 392.0, 392.0, 391.0, 391.0, 391.0, 392.0, 391.0, 393.0, 391.0, 391.0, 392.0, 392.0, 394.0, 392.0, 393.0, 392.0, 391.0, 391.0, 392.0, 391.0, 391.0, 392.0, 392.0, 390.0, 391.0, 392.0, 392.0, 391.0],
      "WindowWidth": [837.0, 833.0, 831.0, 832.0, 830.0, 830.0, 830.0, 833.0, 833.0, 833.0, 832.0, 831.0, 828.0, 828.0, 827.0, 826.0, 828.0, 828.0, 829.0, 833.0, 832.0, 831.0, 831.0, 829.0, 830.0, 831.0, 830.0, 834.0, 831.0, 831.0, 829.0, 830.0, 831.0, 830.0, 830.0, 831.0, 832.0, 831.0, 833.0, 831.0, 832.0, 830.0, 831.0, 829.0, 828.0, 830.0, 829.0, 830.0, 829.0, 830.0, 830.0, 828.0, 829.0, 830.0, 831.0, 833.0, 831.0, 832.0, 832.0, 832.0, 830.0, 830.0, 829.0, 831.0, 830.0, 829.0, 829.0, 830.0, 830.0, 832.0, 831.0, 830.0, 831.0, 829.0, 830.0, 830.0, 830.0, 830.0, 830.0, 829.0, 828.0, 828.0, 830.0, 829.0, 832.0, 830.0, 828.0, 829.0, 830.0, 831.0, 830.0, 830.0, 832.0, 831.0, 831.0, 833.0, 830.0, 829.0, 829.0, 831.0, 831.0, 830.0, 829.0, 831.0, 830.0, 829.0, 831.0, 830.0, 830.0, 829.0, 831.0, 829.0, 832.0, 831.0, 830.0, 829.0, 829.0, 828.0, 831.0, 830.0, 832.0, 833.0, 832.0, 832.0, 834.0, 832.0, 829.0, 831.0, 830.0, 830.0, 829.0, 831.0, 829.0, 832.0, 832.0, 832.0, 830.0, 830.0, 828.0, 831.0, 828.0, 828.0, 829.0, 829.0, 832.0, 829.0, 830.0, 828.0, 829.0, 829.0, 829.0, 832.0, 830.0, 831.0, 832.0, 831.0, 832.0, 830.0, 832.0, 829.0, 828.0, 831.0, 830.0, 828.0, 831.0, 829.0, 831.0, 831.0, 831.0, 830.0, 832.0, 831.0, 828.0, 829.0, 827.0, 825.0, 827.0, 828.0, 828.0, 830.0, 830.0, 830.0, 832.0, 832.0, 833.0, 832.0, 833.0, 830.0, 830.0, 832.0, 831.0, 833.0, 831.0, 831.0, 830.0, 831.0, 829.0, 829.0, 828.0, 831.0, 829.0, 829.0, 829.0, 829.0, 829.0, 832.0, 832.0, 830.0, 829.0, 829.0, 829.0, 829.0, 831.0, 833.0, 832.0, 830.0, 829.0, 830.0, 831.0, 829.0, 830.0, 830.0, 829.0, 830.0, 830.0, 828.0, 829.0, 829.0, 829.0, 832.0, 830.0, 831.0, 830.0, 830.0, 831.0, 829.0, 831.0, 829.0, 829.0, 829.0, 830.0, 832.0, 831.0, 832.0, 830.0, 829.0, 829.0, 829.0, 830.0, 830.0, 831.0, 830.0, 832.0, 832.0, 830.0, 831.0, 831.0, 831.0, 831.0, 833.0, 831.0, 831.0, 832.0, 832.0, 834.0, 832.0, 833.0, 832.0, 830.0, 829.0, 831.0, 830.0, 831.0, 832.0, 830.0, 829.0, 829.0, 831.0, 830.0, 829.0]
    },
    "slices": {}
  }
}