{
  "AcquisitionMatrixPE": 96,
  "AcquisitionNumber": 1,
  "AcquisitionTime": "16:53:20.762500",
  "BandwidthPerPixelPhaseEncode": 18.939,
  "BaseResolution": 96,
  "BodyPartExamined": "BRAIN",
  "ConsistencyInfo": "N4_VE11C_LATEST_20160120",
  "ConversionSoftware": "dcm2niix",
  "ConversionSoftwareVersion": "v1.0.20170923 (OpenJPEG build) GCC6.3.0",
  "DerivedVendorReportedEchoSpacing": 0.000550011,
  "DeviceSerialNumber": "66112",
  "DwellTime": 2.3e-06,
  "EchoTime": 0.033,
  "EchoTrainLength": 96,
  "EffectiveEchoSpacing": 0.000550011,
  "FlipAngle": 64,
  "ImageType": [
    "ORIGINAL",
    "PRIMARY",
    "FMRI",
    "NONE",
    "ND",
    "NORM",
    "MOSAIC"
],
  "InstitutionAddress": "Maynard_3_Hanover_NH_US_03755",
  "InstitutionName": "Dartmouth_College_-_PBS",
  "MagneticFieldStrength": 3,
  "Manufacturer": "Siemens",
  "ManufacturersModelName": "Prisma",
  "Modality": "MR",
  "MultibandAccelerationFactor": 4,
  "PartialFourier": 1,
  "PercentPhaseFOV": 100,
  "PhaseEncodingDirection": "j-",
  "PhaseEncodingSteps": 96,
  "PhaseResolution": 1,
  "ProcedureStepDescription": "Gobbini_Matteo_1017_famface-angles",
  "ProtocolName": "func_run-03_task-fam1back",
  "PulseSequenceDetails": "%SiemensSeq%_ep2d_bold",
  "ReceiveCoilActiveElements": "HEA;HEP",
  "ReceiveCoilName": "Head_32",
  "ReconMatrixPE": 96,
  "RepetitionTime": 1.25,
  "ScanOptions": "FS",
  "ScanningSequence": "EP",
  "SequenceName": "_epfid2d1_96",
  "SequenceVariant": "SK",
  "SeriesDescription": "func_run-03_task-fam1back",
  "SliceTiming": [0.88, 0, 0.615, 0.09, 0.7025, 0.1775, 0.7925, 0.3525, 0.9675, 0.44, 1.055, 0.5275, 1.1425, 0.265, 0.88, 0, 0.615, 0.09, 0.7025, 0.1775, 0.7925, 0.3525, 0.9675, 0.44, 1.055, 0.5275, 1.1425, 0.265, 0.88, 0, 0.615, 0.09, 0.7025, 0.1775, 0.7925, 0.3525, 0.9675, 0.44, 1.055, 0.5275, 1.1425, 0.265, 0.88, 0, 0.615, 0.09, 0.7025, 0.1775, 0.7925, 0.3525, 0.9675, 0.44, 1.055, 0.5275, 1.1425, 0.265],
  "SoftwareVersions": "syngo_MR_E11",
  "StationName": "AWP66112",
  "TaskName": "fam1back",
  "TotalReadoutTime": 0.0522511,
  "dcmmeta_affine": [
    [-2.4948906898498535, 0.013063459657132626, 0.15921556949615479, 117.25891876220703],
    [0.03031955286860466, 2.485060691833496, 0.27120766043663025, -115.8316421508789],
    [0.15684698522090912, -0.27258431911468506, 2.480140447616577, -65.5165023803711],
    [0.0, 0.0, 0.0, 1.0]
],
  "dcmmeta_reorient_transform": [
    [0.0, -1.0, 0.0, 95.0],
    [1.0, 0.0, 0.0, 0.0],
    [0.0, 0.0, 1.0, 0.0],
    [0.0, 0.0, 0.0, 1.0]
],
  "dcmmeta_shape": [96, 96, 56, 280],
  "dcmmeta_slice_dim": 2,
  "dcmmeta_version": 0.6,
  "global": {
    "const": {
      "AccessionNumber": "A000234",
      "AcquisitionMatrix": [96, 0, 0, 96],
      "AngioFlag": "N",
      "BitsAllocated": 16,
      "BitsStored": 12,
      "BodyPartExamined": "BRAIN",
      "Columns": 768,
      "EchoNumbers": 1,
      "EchoTime": 33.0,
      "EchoTrainLength": 96,
      "FlipAngle": 64.0,
      "HighBit": 11,
      "ImageOrientationPatient": [0.99795629145804, -0.0121278209914, 0.06273879419714, 0.00522538374111, 0.99402431676021, 0.10903372438906],
      "ImagePositionPatient": [-961.17255639885, -945.04219074195, -235.70092661961],
      "ImageType": [
        "ORIGINAL",
        "PRIMARY",
        "FMRI",
        "NONE",
        "ND",
        "NORM",
        "MOSAIC"
],
      "ImagedNucleus": "1H",
      "ImagingFrequency": 123.252365,
      "InPlanePhaseEncodingDirection": "COL",
      "MRAcquisitionType": "2D",
      "MagneticFieldStrength": 3.0,
      "Manufacturer": "SIEMENS",
      "ManufacturerModelName": "Prisma",
      "Modality": "MR",
      "NumberOfAverages": 1.0,
      "NumberOfPhaseEncodingSteps": 96,
      "PercentPhaseFieldOfView": 100.0,
      "PercentSampling": 100.0,
      "PerformedProcedureStepStartTime": "162045.106000",
      "PhotometricInterpretation": "MONOCHROME2",
      "PixelBandwidth": 2265.0,
      "PixelRepresentation": 0,
      "PixelSpacing": [2.5, 2.5],
      "PositionReferenceIndicator": "",
      "ProtocolName": "func_run-03_task-fam1back",
      "RepetitionTime": 1250.0,
      "Rows": 768,
      "SAR": 0.04946632584266,
      "SamplesPerPixel": 1,
      "ScanOptions": "FS",
      "ScanningSequence": "EP",
      "SequenceName": "*epfid2d1_96",
      "SequenceVariant": "SK",
      "SeriesDescription": "func_run-03_task-fam1back",
      "SeriesNumber": 22,
      "SeriesTime": "165322.648000",
      "SliceLocation": -70.094043128439,
      "SliceThickness": 2.5,
      "SmallestImagePixelValue": 0,
      "SoftwareVersions": "syngo MR E11",
      "SpacingBetweenSlices": 2.5000000620294,
      "SpecificCharacterSet": "ISO_IR 100",
      "StudyID": "1",
      "StudyTime": "162045.036000",
      "TransmitCoilName": "Body",
      "VariableFlipAngleFlag": "N",
      "WindowCenterWidthExplanation": "Algo1",
      "dBdt": 0.0},
    "slices": {}
  },
  "time": {
    "samples": {
      "AcquisitionNumber": [1, 2, 3, 4, 5, 6, 7, 8, 9, 10, 11, 12, 13, 14, 15, 16, 17, 18, 19, 20, 21, 22, 23, 24, 25, 26, 27, 28, 29, 30, 31, 32, 33, 34, 35, 36, 37, 38, 39, 40, 41, 42, 43, 44, 45, 46, 47, 48, 49, 50, 51, 52, 53, 54, 55, 56, 57, 58, 59, 60, 61, 62, 63, 64, 65, 66, 67, 68, 69, 70, 71, 72, 73, 74, 75, 76, 77, 78, 79, 80, 81, 82, 83, 84, 85, 86, 87, 88, 89, 90, 91, 92, 93, 94, 95, 96, 97, 98, 99, 100, 101, 102, 103, 104, 105, 106, 107, 108, 109, 110, 111, 112, 113, 114, 115, 116, 117, 118, 119, 120, 121, 122, 123, 124, 125, 126, 127, 128, 129, 130, 131, 132, 133, 134, 135, 136, 137, 138, 139, 140, 141, 142, 143, 144, 145, 146, 147, 148, 149, 150, 151, 152, 153, 154, 155, 156, 157, 158, 159, 160, 161, 162, 163, 164, 165, 166, 167, 168, 169, 170, 171, 172, 173, 174, 175, 176, 177, 178, 179, 180, 181, 182, 183, 184, 185, 186, 187, 188, 189, 190, 191, 192, 193, 194, 195, 196, 197, 198, 199, 200, 201, 202, 203, 204, 205, 206, 207, 208, 209, 210, 211, 212, 213, 214, 215, 216, 217, 218, 219, 220, 221, 222, 223, 224, 225, 226, 227, 228, 229, 230, 231, 232, 233, 234, 235, 236, 237, 238, 239, 240, 241, 242, 243, 244, 245, 246, 247, 248, 249, 250, 251, 252, 253, 254, 255, 256, 257, 258, 259, 260, 261, 262, 263, 264, 265, 266, 267, 268, 269, 270, 271, 272, 273, 274, 275, 276, 277, 278, 279, 280],
      "AcquisitionTime": ["165320.762500", "165322.012500", "165323.262500", "165324.512500", "165325.762500", "165327.012500", "165328.262500", "165329.512500", "165330.762500", "165332.012500", "165333.262500", "165334.512500", "165335.762500", "165337.012500", "165338.262500", "165339.512500", "165340.762500", "165342.012500", "165343.262500", "165344.512500", "165345.762500", "165347.012500", "165348.262500", "165349.512500", "165350.762500", "165352.012500", "165353.262500", "165354.512500", "165355.762500", "165357.012500", "165358.262500", "165359.512500", "165400.762500", "165402.012500", "165403.262500", "165404.512500", "165405.762500", "165407.012500", "165408.262500", "165409.512500", "165410.762500", "165412.012500", "165413.262500", "165414.512500", "165415.762500", "165417.012500", "165418.262500", "165419.512500", "165420.762500", "165422.012500", "165423.262500", "165424.512500", "165425.762500", "165427.012500", "165428.262500", "165429.512500", "165430.762500", "165432.012500", "165433.262500", "165434.512500", "165435.762500", "165437.012500", "165438.262500", "165439.512500", "165440.762500", "165442.012500", "165443.262500", "165444.512500", "165445.762500", "165447.012500", "165448.262500", "165449.512500", "165450.762500", "165452.012500", "165453.262500", "165454.512500", "165455.762500", "165457.012500", "165458.262500", "165459.512500", "165500.762500", "165502.012500", "165503.262500", "165504.512500", "165505.762500", "165507.012500", "165508.262500", "165509.512500", "165510.762500", "165512.012500", "165513.262500", "165514.512500", "165515.762500", "165517.012500", "165518.262500", "165519.512500", "165520.762500", "165522.012500", "165523.262500", "165524.512500", "165525.762500", "165527.012500", "165528.262500", "165529.512500", "165530.762500", "165532.012500", "165533.262500", "165534.512500", "165535.762500", "165537.012500", "165538.262500", "165539.512500", "165540.762500", "165542.012500", "165543.262500", "165544.512500", "165545.762500", "165547.012500", "165548.262500", "165549.512500", "165550.762500", "165552.012500", "165553.262500", "165554.512500", "165555.762500", "165557.012500", "165558.262500", "165559.512500", "165600.762500", "165602.012500", "165603.262500", "165604.512500", "165605.762500", "165607.012500", "165608.262500", "165609.512500", "165610.762500", "165612.012500", "165613.262500", "165614.512500", "165615.762500", "165617.012500", "165618.262500", "165619.512500", "165620.762500", "165622.012500", "165623.262500", "165624.512500", "165625.762500", "165627.012500", "165628.262500", "165629.512500", "165630.762500", "165632.012500", "165633.262500", "165634.512500", "165635.762500", "165637.012500", "165638.262500", "165639.512500", "165640.762500", "165642.012500", "165643.262500", "165644.512500", "165645.762500", "165647.012500", "165648.262500", "165649.512500", "165650.762500", "165652.012500", "165653.262500", "165654.512500", "165655.762500", "165657.012500", "165658.262500", "165659.512500", "165700.762500", "165702.012500", "165703.262500", "165704.512500", "165705.762500", "165707.012500", "165708.262500", "165709.512500", "165710.762500", "165712.012500", "165713.262500", "165714.512500", "165715.762500", "165717.012500", "165718.262500", "165719.512500", "165720.762500", "165722.012500", "165723.262500", "165724.512500", "165725.762500", "165727.012500", "165728.262500", "165729.512500", "165730.762500", "165732.012500", "165733.262500", "165734.512500", "165735.762500", "165737.012500", "165738.262500", "165739.512500", "165740.762500", "165742.012500", "165743.262500", "165744.512500", "165745.762500", "165747.012500", "165748.262500", "165749.512500", "165750.762500", "165752.012500", "165753.262500", "165754.512500", "165755.762500", "165757.012500", "165758.262500", "165759.512500", "165800.762500", "165802.012500", "165803.262500", "165804.512500", "165805.762500", "165807.012500", "165808.262500", "165809.512500", "165810.762500", "165812.012500", "165813.262500", "165814.512500", "165815.762500", "165817.012500", "165818.262500", "165819.512500", "165820.762500", "165822.012500", "165823.262500", "165824.512500", "165825.762500", "165827.012500", "165828.262500", "165829.512500", "165830.762500", "165832.012500", "165833.262500", "165834.512500", "165835.762500", "165837.012500", "165838.262500", "165839.512500", "165840.762500", "165842.012500", "165843.262500", "165844.512500", "165845.762500", "165847.012500", "165848.262500", "165849.512500", "165850.762500", "165852.012500", "165853.262500", "165854.512500", "165855.762500", "165857.012500", "165858.262500", "165859.512500", "165900.762500", "165902.012500", "165903.262500", "165904.512500", "165905.762500", "165907.012500", "165908.262500", "165909.512500"],
      "ContentTime": ["165322.651000", "165323.651000", "165324.948000", "165326.191000", "165327.460000", "165328.749000", "165329.920000", "165331.180000", "165332.433000", "165333.667000", "165334.919000", "165336.148000", "165337.418000", "165338.695000", "165339.907000", "165341.130000", "165342.428000", "165343.670000", "165344.948000", "165346.195000", "165347.395000", "165348.657000", "165349.975000", "165351.182000", "165352.475000", "165353.684000", "165354.980000", "165356.233000", "165357.416000", "165358.667000", "165359.896000", "165401.167000", "165402.390000", "165403.659000", "165404.924000", "165406.148000", "165407.404000", "165408.648000", "165409.939000", "165411.147000", "165412.412000", "165413.674000", "165414.917000", "165416.183000", "165417.412000", "165418.679000", "165419.889000", "165421.160000", "165422.445000", "165423.678000", "165424.911000", "165426.167000", "165427.420000", "165428.666000", "165429.940000", "165431.156000", "165432.433000", "165433.670000", "165434.973000", "165436.149000", "165437.408000", "165438.634000", "165439.962000", "165441.171000", "165442.419000", "165443.642000", "165444.964000", "165446.162000", "165447.442000", "165448.668000", "165449.899000", "165451.156000", "165452.453000", "165453.647000", "165454.895000", "165456.168000", "165457.402000", "165458.657000", "165459.957000", "165501.178000", "165502.478000", "165503.665000", "165504.915000", "165506.166000", "165507.450000", "165508.693000", "165509.918000", "165511.159000", "165512.410000", "165513.674000", "165514.921000", "165516.149000", "165517.425000", "165518.638000", "165519.937000", "165521.174000", "165522.428000", "165523.655000", "165524.932000", "165526.153000", "165527.447000", "165528.726000", "165529.920000", "165531.175000", "165532.430000", "165533.728000", "165534.925000", "165536.172000", "165537.412000", "165538.677000", "165539.925000", "165541.221000", "165542.450000", "165543.672000", "165544.954000", "165546.193000", "165547.430000", "165548.663000", "165549.966000", "165551.183000", "165552.446000", "165553.695000", "165554.890000", "165556.198000", "165557.453000", "165558.729000", "165559.947000", "165601.165000", "165602.413000", "165603.665000", "165604.958000", "165606.203000", "165607.431000", "165608.671000", "165609.939000", "165611.179000", "165612.453000", "165613.675000", "165614.930000", "165616.195000", "165617.428000", "165618.670000", "165619.985000", "165621.163000", "165622.416000", "165623.698000", "165624.908000", "165626.187000", "165627.406000", "165628.696000", "165629.932000", "165631.156000", "165632.414000", "165633.683000", "165634.922000", "165636.187000", "165637.425000", "165638.636000", "165639.948000", "165641.166000", "165642.462000", "165643.663000", "165644.963000", "165646.254000", "165647.424000", "165648.692000", "165649.942000", "165651.198000", "165652.453000", "165653.719000", "165654.911000", "165656.176000", "165657.398000", "165658.686000", "165659.960000", "165701.176000", "165702.388000", "165703.669000", "165704.914000", "165706.163000", "165707.438000", "165708.672000", "165709.893000", "165711.187000", "165712.426000", "165713.724000", "165714.937000", "165716.134000", "165717.422000", "165718.699000", "165719.929000", "165721.184000", "165722.443000", "165723.670000", "165724.925000", "165726.204000", "165727.414000", "165728.691000", "165729.919000", "165731.220000", "165732.439000", "165733.732000", "165734.933000", "165736.173000", "165737.416000", "165738.660000", "165739.946000", "165741.162000", "165742.433000", "165743.674000", "165744.939000", "165746.175000", "165747.426000", "165748.658000", "165749.918000", "165751.185000", "165752.433000", "165753.676000", "165754.870000", "165756.186000", "165757.453000", "165758.675000", "165759.937000", "165801.169000", "165802.444000", "165803.679000", "165804.994000", "165806.185000", "165807.410000", "165808.653000", "165809.904000", "165811.164000", "165812.406000", "165813.710000", "165814.925000", "165816.201000", "165817.416000", "165818.689000", "165819.911000", "165821.165000", "165822.414000", "165823.689000", "165824.950000", "165826.189000", "165827.432000", "165828.690000", "165829.947000", "165831.161000", "165832.444000", "165833.662000", "165834.928000", "165836.198000", "165837.420000", "165838.690000", "165839.945000", "165841.193000", "165842.467000", "165843.680000", "165844.916000", "165846.169000", "165847.414000", "165848.705000", "165849.983000", "165851.202000", "165852.404000", "165853.663000", "165854.910000", "165856.168000", "165857.416000", "165858.695000", "165859.929000", "165901.187000", "165902.429000", "165903.664000", "165904.951000", "165906.194000", "165907.486000", "165908.655000", "165909.938000", "165911.234000"],
      "InstanceCreationTime": ["165322.651000", "165323.651000", "165324.948000", "165326.191000", "165327.460000", "165328.749000", "165329.920000", "165331.180000", "165332.433000", "165333.667000", "165334.919000", "165336.148000", "165337.418000", "165338.695000", "165339.907000", "165341.130000", "165342.428000", "165343.670000", "165344.948000", "165346.195000", "165347.395000", "165348.657000", "165349.975000", "165351.182000", "165352.475000", "165353.684000", "165354.980000", "165356.233000", "165357.416000", "165358.667000", "165359.896000", "165401.167000", "165402.390000", "165403.659000", "165404.924000", "165406.148000", "165407.404000", "165408.648000", "165409.939000", "165411.147000", "165412.412000", "165413.674000", "165414.917000", "165416.183000", "165417.412000", "165418.679000", "165419.889000", "165421.160000", "165422.445000", "165423.678000", "165424.911000", "165426.167000", "165427.420000", "165428.666000", "165429.940000", "165431.156000", "165432.433000", "165433.670000", "165434.973000", "165436.149000", "165437.408000", "165438.634000", "165439.962000", "165441.171000", "165442.419000", "165443.642000", "165444.964000", "165446.162000", "165447.442000", "165448.668000", "165449.899000", "165451.156000", "165452.453000", "165453.647000", "165454.895000", "165456.168000", "165457.402000", "165458.657000", "165459.957000", "165501.178000", "165502.478000", "165503.665000", "165504.915000", "165506.166000", "165507.450000", "165508.693000", "165509.918000", "165511.159000", "165512.410000", "165513.674000", "165514.921000", "165516.149000", "165517.425000", "165518.638000", "165519.937000", "165521.174000", "165522.428000", "165523.655000", "165524.932000", "165526.153000", "165527.447000", "165528.726000", "165529.920000", "165531.175000", "165532.430000", "165533.728000", "165534.925000", "165536.172000", "165537.412000", "165538.677000", "165539.925000", "165541.221000", "165542.450000", "165543.672000", "165544.954000", "165546.193000", "165547.430000", "165548.663000", "165549.966000", "165551.183000", "165552.446000", "165553.695000", "165554.890000", "165556.198000", "165557.453000", "165558.729000", "165559.947000", "165601.165000", "165602.413000", "165603.665000", "165604.958000", "165606.203000", "165607.431000", "165608.671000", "165609.939000", "165611.179000", "165612.453000", "165613.675000", "165614.930000", "165616.195000", "165617.428000", "165618.670000", "165619.985000", "165621.163000", "165622.416000", "165623.698000", "165624.908000", "165626.187000", "165627.406000", "165628.696000", "165629.932000", "165631.156000", "165632.414000", "165633.683000", "165634.922000", "165636.187000", "165637.425000", "165638.636000", "165639.948000", "165641.166000", "165642.462000", "165643.663000", "165644.963000", "165646.254000", "165647.424000", "165648.692000", "165649.942000", "165651.198000", "165652.453000", "165653.719000", "165654.911000", "165656.176000", "165657.398000", "165658.686000", "165659.960000", "165701.176000", "165702.388000", "165703.669000", "165704.914000", "165706.163000", "165707.438000", "165708.672000", "165709.893000", "165711.187000", "165712.426000", "165713.724000", "165714.937000", "165716.134000", "165717.422000", "165718.699000", "165719.929000", "165721.184000", "165722.443000", "165723.670000", "165724.925000", "165726.204000", "165727.414000", "165728.691000", "165729.919000", "165731.220000", "165732.439000", "165733.732000", "165734.933000", "165736.173000", "165737.416000", "165738.660000", "165739.946000", "165741.162000", "165742.433000", "165743.674000", "165744.939000", "165746.175000", "165747.426000", "165748.658000", "165749.918000", "165751.185000", "165752.433000", "165753.676000", "165754.870000", "165756.186000", "165757.453000", "165758.675000", "165759.937000", "165801.169000", "165802.444000", "165803.679000", "165804.994000", "165806.185000", "165807.410000", "165808.653000", "165809.904000", "165811.164000", "165812.406000", "165813.710000", "165814.925000", "165816.201000", "165817.416000", "165818.689000", "165819.911000", "165821.165000", "165822.414000", "165823.689000", "165824.950000", "165826.189000", "165827.432000", "165828.690000", "165829.947000", "165831.161000", "165832.444000", "165833.662000", "165834.928000", "165836.198000", "165837.420000", "165838.690000", "165839.945000", "165841.193000", "165842.467000", "165843.680000", "165844.916000", "165846.169000", "165847.414000", "165848.705000", "165849.983000", "165851.202000", "165852.404000", "165853.663000", "165854.910000", "165856.168000", "165857.416000", "165858.695000", "165859.929000", "165901.187000", "165902.429000", "165903.664000", "165904.951000", "165906.194000", "165907.486000", "165908.655000", "165909.938000", "165911.234000"],
      "InstanceNumber": [1, 2, 3, 4, 5, 6, 7, 8, 9, 10, 11, 12, 13, 14, 15, 16, 17, 18, 19, 20, 21, 22, 23, 24, 25, 26, 27, 28, 29, 30, 31, 32, 33, 34, 35, 36, 37, 38, 39, 40, 41, 42, 43, 44, 45, 46, 47, 48, 49, 50, 51, 52, 53, 54, 55, 56, 57, 58, 59, 60, 61, 62, 63, 64, 65, 66, 67, 68, 69, 70, 71, 72, 73, 74, 75, 76, 77, 78, 79, 80, 81, 82, 83, 84, 85, 86, 87, 88, 89, 90, 91, 92, 93, 94, 95, 96, 97, 98, 99, 100, 101, 102, 103, 104, 105, 106, 107, 108, 109, 110, 111, 112, 113, 114, 115, 116, 117, 118, 119, 120, 121, 122, 123, 124, 125, 126, 127, 128, 129, 130, 131, 132, 133, 134, 135, 136, 137, 138, 139, 140, 141, 142, 143, 144, 145, 146, 147, 148, 149, 150, 151, 152, 153, 154, 155, 156, 157, 158, 159, 160, 161, 162, 163, 164, 165, 166, 167, 168, 169, 170, 171, 172, 173, 174, 175, 176, 177, 178, 179, 180, 181, 182, 183, 184, 185, 186, 187, 188, 189, 190, 191, 192, 193, 194, 195, 196, 197, 198, 199, 200, 201, 202, 203, 204, 205, 206, 207, 208, 209, 210, 211, 212, 213, 214, 215, 216, 217, 218, 219, 220, 221, 222, 223, 224, 225, 226, 227, 228, 229, 230, 231, 232, 233, 234, 235, 236, 237, 238, 239, 240, 241, 242, 243, 244, 245, 246, 247, 248, 249, 250, 251, 252, 253, 254, 255, 256, 257, 258, 259, 260, 261, 262, 263, 264, 265, 266, 267, 268, 269, 270, 271, 272, 273, 274, 275, 276, 277, 278, 279, 280],
      "LargestImagePixelValue": [1066, 1065, 1070, 1040, 1087, 1112, 1024, 1012, 980, 1005, 996, 1008, 1046, 1121, 1010, 1057, 1008, 989, 992, 1039, 1044, 1051, 1047, 1070, 1081, 1014, 1007, 1009, 945, 1038, 939, 1040, 1045, 1034, 1131, 982, 1030, 848, 1056, 1047, 1024, 1079, 1057, 1060, 1004, 1050, 1104, 909, 1017, 1013, 957, 972, 978, 1058, 939, 1029, 1016, 943, 1008, 1015, 987, 995, 1130, 1012, 1022, 1117, 963, 1040, 974, 1011, 996, 1026, 964, 961, 973, 944, 930, 1006, 975, 968, 1069, 1080, 995, 1031, 1011, 1029, 1041, 982, 965, 971, 962, 1091, 1002, 960, 1007, 1021, 989, 989, 1024, 1089, 1017, 986, 981, 979, 1030, 943, 953, 988, 919, 1003, 945, 984, 1098, 1093, 1029, 1053, 960, 1078, 1014, 963, 993, 982, 984, 989, 955, 993, 956, 964, 943, 981, 972, 920, 949, 1099, 1106, 1025, 1009, 974, 967, 982, 946, 999, 982, 1039, 996, 981, 1007, 967, 1034, 986, 981, 972, 934, 987, 955, 924, 1009, 1029, 961, 975, 1057, 988, 1026, 979, 1046, 1033, 995, 974, 971, 1160, 971, 968, 993, 991, 965, 972, 1009, 967, 1004, 980, 1011, 988, 938, 976, 998, 971, 1020, 984, 966, 1023, 975, 987, 1009, 984, 985, 967, 947, 872, 994, 920, 861, 1063, 1041, 973, 959, 941, 982, 932, 935, 936, 921, 1041, 966, 982, 984, 933, 956, 976, 931, 984, 937, 953, 962, 1054, 976, 960, 956, 958, 976, 1006, 973, 934, 909, 923, 1125, 974, 988, 1011, 935, 985, 955, 947, 1007, 964, 961, 1017, 952, 953, 974, 987, 964, 989, 951, 1006, 986, 954, 995, 992, 982, 994, 1021, 983, 957, 1026, 952, 1000, 1016, 960, 995, 932, 897, 883, 934, 932, 986, 1004, 991, 982, 1022, 966],
      "WindowCenter": [396.0, 394.0, 393.0, 392.0, 392.0, 392.0, 392.0, 392.0, 392.0, 393.0, 393.0, 392.0, 392.0, 392.0, 392.0, 392.0, 392.0, 392.0, 393.0, 393.0, 392.0, 392.0, 391.0, 391.0, 390.0, 390.0, 390.0, 391.0, 391.0, 392.0, 392.0, 393.0, 392.0, 392.0, 393.0, 392.0, 392.0, 390.0, 393.0, 392.0, 392.0, 392.0, 392.0, 391.0, 391.0, 392.0, 392.0, 391.0, 392.0, 391.0, 391.0, 391.0, 391.0, 391.0, 391.0, 392.0, 392.0, 391.0, 392.0, 392.0, 393.0, 393.0, 393.0, 392.0, 392.0, 392.0, 391.0, 392.0, 392.0, 392.0, 392.0, 392.0, 391.0, 392.0, 392.0, 391.0, 392.0, 392.0, 392.0, 392.0, 392.0, 391.0, 391.0, 391.0, 391.0, 392.0, 392.0, 391.0, 392.0, 392.0, 391.0, 392.0, 392.0, 391.0, 392.0, 392.0, 391.0, 391.0, 391.0, 391.0, 391.0, 391.0, 392.0, 392.0, 392.0, 391.0, 392.0, 391.0, 391.0, 392.0, 392.0, 393.0, 394.0, 393.0, 392.0, 392.0, 392.0, 393.0, 392.0, 392.0, 392.0, 391.0, 391.0, 391.0, 390.0, 391.0, 391.0, 390.0, 391.0, 392.0, 392.0, 391.0, 391.0, 391.0, 391.0, 391.0, 392.0, 392.0, 391.0, 391.0, 391.0, 392.0, 392.0, 393.0, 392.0, 392.0, 392.0, 391.0, 392.0, 392.0, 392.0, 392.0, 392.0, 392.0, 392.0, 391.0, 392.0, 392.0, 392.0, 392.0, 392.0, 391.0, 391.0, 391.0, 392.0, 392.0, 391.0, 391.0, 391.0, 393.0, 391.0, 391.0, 392.0, 392.0, 392.0, 391.0, 391.0, 391.0, 391.0, 391.0, 392.0, 392.0, 391.0, 391.0, 391.0, 391.0, 392.0, 392.0, 392.0, 392.0, 392.0, 392.0, 392.0, 391.0, 391.0, 391.0, 391.0, 391.0, 393.0, 393.0, 391.0, 392.0, 391.0, 391.0, 391.0, 391.0, 392.0, 391.0, 391.0, 391.0, 391.0, 392.0, 391.0, 392.0, 392.0, 391.0, 392.0, 392.0, 391.0, 392.0, 391.0, 392.0, 391.0, 392.0, 392.0, 391.0, 391.0, 391.0, 392.0, 392.0, 392.0, 391.0, 391.0, 391.0, 393.0, 391.0, 391.0, 391.0, 391.0, 391.0, 391.0, 391.0, 392.0, 391.0, 392.0, 392.0, 391.0, 392.0, 392.0, 391.0, 392.0, 391.0, 391.0, 392.0, 391.0, 390.0, 390.0, 390.0, 390.0, 390.0, 391.0, 390.0, 391.0, 392.0, 392.0, 392.0, 392.0, 391.0, 392.0, 391.0, 391.0, 390.0, 391.0, 390.0, 390.0, 390.0, 390.0, 390.0, 392.0, 391.0],
      "WindowWidth": [838.0, 834.0, 833.0, 831.0, 831.0, 831.0, 830.0, 831.0, 832.0, 831.0, 832.0, 831.0, 830.0, 831.0, 831.0, 831.0, 830.0, 831.0, 831.0, 832.0, 831.0, 831.0, 828.0, 828.0, 827.0, 827.0, 827.0, 828.0, 829.0, 831.0, 831.0, 832.0, 830.0, 830.0, 832.0, 830.0, 831.0, 828.0, 831.0, 830.0, 830.0, 831.0, 829.0, 829.0, 829.0, 829.0, 830.0, 829.0, 830.0, 828.0, 829.0, 829.0, 829.0, 829.0, 828.0, 830.0, 830.0, 829.0, 831.0, 831.0, 833.0, 832.0, 832.0, 830.0, 830.0, 830.0, 829.0, 830.0, 830.0, 830.0, 830.0, 831.0, 829.0, 830.0, 830.0, 830.0, 831.0, 831.0, 831.0, 830.0, 831.0, 829.0, 828.0, 828.0, 828.0, 830.0, 831.0, 829.0, 830.0, 830.0, 829.0, 831.0, 830.0, 829.0, 830.0, 829.0, 829.0, 829.0, 828.0, 829.0, 828.0, 829.0, 830.0, 830.0, 831.0, 829.0, 830.0, 829.0, 830.0, 831.0, 831.0, 833.0, 833.0, 832.0, 830.0, 830.0, 830.0, 832.0, 831.0, 831.0, 830.0, 829.0, 829.0, 828.0, 828.0, 829.0, 828.0, 828.0, 829.0, 830.0, 830.0, 829.0, 828.0, 828.0, 828.0, 828.0, 830.0, 830.0, 829.0, 829.0, 829.0, 830.0, 830.0, 832.0, 831.0, 830.0, 830.0, 829.0, 831.0, 831.0, 831.0, 831.0, 831.0, 831.0, 830.0, 830.0, 831.0, 831.0, 830.0, 830.0, 831.0, 829.0, 829.0, 828.0, 829.0, 830.0, 829.0, 829.0, 829.0, 831.0, 829.0, 829.0, 830.0, 830.0, 830.0, 829.0, 829.0, 829.0, 829.0, 829.0, 830.0, 830.0, 828.0, 829.0, 829.0, 829.0, 831.0, 830.0, 831.0, 831.0, 830.0, 830.0, 830.0, 829.0, 830.0, 829.0, 830.0, 830.0, 833.0, 832.0, 830.0, 830.0, 829.0, 828.0, 828.0, 829.0, 830.0, 830.0, 830.0, 830.0, 829.0, 831.0, 829.0, 830.0, 830.0, 829.0, 830.0, 831.0, 830.0, 831.0, 830.0, 831.0, 830.0, 831.0, 830.0, 829.0, 829.0, 829.0, 830.0, 830.0, 831.0, 830.0, 830.0, 830.0, 832.0, 829.0, 829.0, 829.0, 828.0, 829.0, 829.0, 828.0, 830.0, 829.0, 830.0, 831.0, 830.0, 831.0, 831.0, 830.0, 830.0, 830.0, 830.0, 830.0, 829.0, 828.0, 828.0, 828.0, 827.0, 827.0, 828.0, 828.0, 829.0, 830.0, 830.0, 830.0, 830.0, 829.0, 830.0, 830.0, 829.0, 828.0, 828.0, 827.0, 828.0, 828.0, 828.0, 828.0, 830.0, 829.0]
    },
    "slices": {}
  }
}