{
  "AcquisitionMatrixPE": 96,
  "AcquisitionNumber": 1,
  "AcquisitionTime": "17:37:38.602500",
  "BandwidthPerPixelPhaseEncode": 18.939,
  "BaseResolution": 96,
  "BodyPartExamined": "BRAIN",
  "ConsistencyInfo": "N4_VE11C_LATEST_20160120",
  "ConversionSoftware": "dcm2niix",
  "ConversionSoftwareVersion": "v1.0.20170923 (OpenJPEG build) GCC6.3.0",
  "DerivedVendorReportedEchoSpacing": 0.000550011,
  "DeviceSerialNumber": "66112",
  "DwellTime": 2.3e-06,
  "EchoTime": 0.033,
  "EchoTrainLength": 96,
  "EffectiveEchoSpacing": 0.000550011,
  "FlipAngle": 64,
  "ImageType": [
    "ORIGINAL",
    "PRIMARY",
    "FMRI",
    "NONE",
    "ND",
    "NORM",
    "MOSAIC"
],
  "InstitutionAddress": "Maynard_3_Hanover_NH_US_03755",
  "InstitutionName": "Dartmouth_College_-_PBS",
  "MagneticFieldStrength": 3,
  "Manufacturer": "Siemens",
  "ManufacturersModelName": "Prisma",
  "Modality": "MR",
  "MultibandAccelerationFactor": 4,
  "PartialFourier": 1,
  "PercentPhaseFOV": 100,
  "PhaseEncodingDirection": "j-",
  "PhaseEncodingSteps": 96,
  "PhaseResolution": 1,
  "ProcedureStepDescription": "Gobbini_Matteo_1017_famface-angles",
  "ProtocolName": "func_run-09_task-str1back",
  "PulseSequenceDetails": "%SiemensSeq%_ep2d_bold",
  "ReceiveCoilActiveElements": "HEA;HEP",
  "ReceiveCoilName": "Head_32",
  "ReconMatrixPE": 96,
  "RepetitionTime": 1.25,
  "ScanOptions": "FS",
  "ScanningSequence": "EP",
  "SequenceName": "_epfid2d1_96",
  "SequenceVariant": "SK",
  "SeriesDescription": "func_run-09_task-str1back",
  "SliceTiming": [0.8775, 0, 0.615, 0.0875, 0.7025, 0.175, 0.79, 0.3525, 0.9675, 0.44, 1.055, 0.5275, 1.1425, 0.2625, 0.8775, 0, 0.615, 0.0875, 0.7025, 0.175, 0.79, 0.3525, 0.9675, 0.44, 1.055, 0.5275, 1.1425, 0.2625, 0.8775, 0, 0.615, 0.0875, 0.7025, 0.175, 0.79, 0.3525, 0.9675, 0.44, 1.055, 0.5275, 1.1425, 0.2625, 0.8775, 0, 0.615, 0.0875, 0.7025, 0.175, 0.79, 0.3525, 0.9675, 0.44, 1.055, 0.5275, 1.1425, 0.2625],
  "SoftwareVersions": "syngo_MR_E11",
  "StationName": "AWP66112",
  "TaskName": "str1back",
  "TotalReadoutTime": 0.0522511,
  "dcmmeta_affine": [
    [-2.4948906898498535, 0.013063459657132626, 0.15921556949615479, 117.25891876220703],
    [0.03031955286860466, 2.485060691833496, 0.27120766043663025, -115.8316421508789],
    [0.15684698522090912, -0.27258431911468506, 2.480140447616577, -65.5165023803711],
    [0.0, 0.0, 0.0, 1.0]
],
  "dcmmeta_reorient_transform": [
    [0.0, -1.0, 0.0, 95.0],
    [1.0, 0.0, 0.0, 0.0],
    [0.0, 0.0, 1.0, 0.0],
    [0.0, 0.0, 0.0, 1.0]
],
  "dcmmeta_shape": [96, 96, 56, 280],
  "dcmmeta_slice_dim": 2,
  "dcmmeta_version": 0.6,
  "global": {
    "const": {
      "AccessionNumber": "A000234",
      "AcquisitionMatrix": [96, 0, 0, 96],
      "AngioFlag": "N",
      "BitsAllocated": 16,
      "BitsStored": 12,
      "BodyPartExamined": "BRAIN",
      "Columns": 768,
      "EchoNumbers": 1,
      "EchoTime": 33.0,
      "EchoTrainLength": 96,
      "FlipAngle": 64.0,
      "HighBit": 11,
      "ImageOrientationPatient": [0.99795629145804, -0.0121278209914, 0.06273879419714, 0.00522538374111, 0.99402431676021, 0.10903372438906],
      "ImagePositionPatient": [-961.17255639885, -945.04219074195, -235.70092661961],
      "ImageType": [
        "ORIGINAL",
        "PRIMARY",
        "FMRI",
        "NONE",
        "ND",
        "NORM",
        "MOSAIC"
],
      "ImagedNucleus": "1H",
      "ImagingFrequency": 123.252371,
      "InPlanePhaseEncodingDirection": "COL",
      "MRAcquisitionType": "2D",
      "MagneticFieldStrength": 3.0,
      "Manufacturer": "SIEMENS",
      "ManufacturerModelName": "Prisma",
      "Modality": "MR",
      "NumberOfAverages": 1.0,
      "NumberOfPhaseEncodingSteps": 96,
      "PercentPhaseFieldOfView": 100.0,
      "PercentSampling": 100.0,
      "PerformedProcedureStepStartTime": "162045.106000",
      "PhotometricInterpretation": "MONOCHROME2",
      "PixelBandwidth": 2265.0,
      "PixelRepresentation": 0,
      "PixelSpacing": [2.5, 2.5],
      "PositionReferenceIndicator": "",
      "ProtocolName": "func_run-09_task-str1back",
      "RepetitionTime": 1250.0,
      "Rows": 768,
      "SAR": 0.04946632584266,
      "SamplesPerPixel": 1,
      "ScanOptions": "FS",
      "ScanningSequence": "EP",
      "SequenceName": "*epfid2d1_96",
      "SequenceVariant": "SK",
      "SeriesDescription": "func_run-09_task-str1back",
      "SeriesNumber": 67,
      "SeriesTime": "173740.136000",
      "SliceLocation": -70.094043128439,
      "SliceThickness": 2.5,
      "SmallestImagePixelValue": 0,
      "SoftwareVersions": "syngo MR E11",
      "SpacingBetweenSlices": 2.5000000620294,
      "SpecificCharacterSet": "ISO_IR 100",
      "StudyID": "1",
      "StudyTime": "162045.036000",
      "TransmitCoilName": "Body",
      "VariableFlipAngleFlag": "N",
      "WindowCenterWidthExplanation": "Algo1",
      "dBdt": 0.0},
    "slices": {}
  },
  "time": {
    "samples": {
      "AcquisitionNumber": [1, 2, 3, 4, 5, 6, 7, 8, 9, 10, 11, 12, 13, 14, 15, 16, 17, 18, 19, 20, 21, 22, 23, 24, 25, 26, 27, 28, 29, 30, 31, 32, 33, 34, 35, 36, 37, 38, 39, 40, 41, 42, 43, 44, 45, 46, 47, 48, 49, 50, 51, 52, 53, 54, 55, 56, 57, 58, 59, 60, 61, 62, 63, 64, 65, 66, 67, 68, 69, 70, 71, 72, 73, 74, 75, 76, 77, 78, 79, 80, 81, 82, 83, 84, 85, 86, 87, 88, 89, 90, 91, 92, 93, 94, 95, 96, 97, 98, 99, 100, 101, 102, 103, 104, 105, 106, 107, 108, 109, 110, 111, 112, 113, 114, 115, 116, 117, 118, 119, 120, 121, 122, 123, 124, 125, 126, 127, 128, 129, 130, 131, 132, 133, 134, 135, 136, 137, 138, 139, 140, 141, 142, 143, 144, 145, 146, 147, 148, 149, 150, 151, 152, 153, 154, 155, 156, 157, 158, 159, 160, 161, 162, 163, 164, 165, 166, 167, 168, 169, 170, 171, 172, 173, 174, 175, 176, 177, 178, 179, 180, 181, 182, 183, 184, 185, 186, 187, 188, 189, 190, 191, 192, 193, 194, 195, 196, 197, 198, 199, 200, 201, 202, 203, 204, 205, 206, 207, 208, 209, 210, 211, 212, 213, 214, 215, 216, 217, 218, 219, 220, 221, 222, 223, 224, 225, 226, 227, 228, 229, 230, 231, 232, 233, 234, 235, 236, 237, 238, 239, 240, 241, 242, 243, 244, 245, 246, 247, 248, 249, 250, 251, 252, 253, 254, 255, 256, 257, 258, 259, 260, 261, 262, 263, 264, 265, 266, 267, 268, 269, 270, 271, 272, 273, 274, 275, 276, 277, 278, 279, 280],
      "AcquisitionTime": ["173738.602500", "173739.852500", "173741.102500", "173742.352500", "173743.602500", "173744.852500", "173746.102500", "173747.352500", "173748.602500", "173749.852500", "173751.102500", "173752.352500", "173753.602500", "173754.852500", "173756.102500", "173757.352500", "173758.602500", "173759.852500", "173801.102500", "173802.352500", "173803.602500", "173804.852500", "173806.102500", "173807.352500", "173808.602500", "173809.852500", "173811.102500", "173812.352500", "173813.602500", "173814.852500", "173816.102500", "173817.352500", "173818.602500", "173819.852500", "173821.102500", "173822.352500", "173823.602500", "173824.852500", "173826.102500", "173827.352500", "173828.602500", "173829.852500", "173831.102500", "173832.352500", "173833.602500", "173834.852500", "173836.102500", "173837.352500", "173838.602500", "173839.852500", "173841.102500", "173842.352500", "173843.602500", "173844.852500", "173846.102500", "173847.352500", "173848.602500", "173849.852500", "173851.102500", "173852.352500", "173853.602500", "173854.852500", "173856.102500", "173857.352500", "173858.602500", "173859.852500", "173901.102500", "173902.352500", "173903.602500", "173904.852500", "173906.102500", "173907.352500", "173908.602500", "173909.852500", "173911.102500", "173912.352500", "173913.602500", "173914.852500", "173916.102500", "173917.352500", "173918.602500", "173919.852500", "173921.102500", "173922.352500", "173923.602500", "173924.852500", "173926.102500", "173927.352500", "173928.602500", "173929.852500", "173931.102500", "173932.352500", "173933.602500", "173934.852500", "173936.102500", "173937.352500", "173938.602500", "173939.852500", "173941.102500", "173942.352500", "173943.602500", "173944.852500", "173946.102500", "173947.352500", "173948.602500", "173949.852500", "173951.102500", "173952.352500", "173953.602500", "173954.852500", "173956.102500", "173957.352500", "173958.602500", "173959.852500", "174001.102500", "174002.352500", "174003.602500", "174004.852500", "174006.102500", "174007.352500", "174008.602500", "174009.852500", "174011.102500", "174012.352500", "174013.602500", "174014.852500", "174016.102500", "174017.352500", "174018.602500", "174019.852500", "174021.102500", "174022.352500", "174023.602500", "174024.852500", "174026.102500", "174027.352500", "174028.602500", "174029.852500", "174031.102500", "174032.352500", "174033.602500", "174034.852500", "174036.102500", "174037.352500", "174038.602500", "174039.852500", "174041.102500", "174042.352500", "174043.602500", "174044.852500", "174046.102500", "174047.352500", "174048.602500", "174049.852500", "174051.102500", "174052.352500", "174053.602500", "174054.852500", "174056.102500", "174057.352500", "174058.602500", "174059.852500", "174101.102500", "174102.352500", "174103.602500", "174104.852500", "174106.102500", "174107.352500", "174108.602500", "174109.852500", "174111.102500", "174112.352500", "174113.602500", "174114.852500", "174116.102500", "174117.352500", "174118.602500", "174119.852500", "174121.102500", "174122.352500", "174123.602500", "174124.852500", "174126.102500", "174127.352500", "174128.602500", "174129.852500", "174131.102500", "174132.352500", "174133.602500", "174134.852500", "174136.102500", "174137.352500", "174138.602500", "174139.852500", "174141.102500", "174142.352500", "174143.602500", "174144.852500", "174146.102500", "174147.352500", "174148.602500", "174149.852500", "174151.102500", "174152.352500", "174153.602500", "174154.852500", "174156.102500", "174157.352500", "174158.602500", "174159.852500", "174201.102500", "174202.352500", "174203.602500", "174204.852500", "174206.102500", "174207.352500", "174208.602500", "174209.852500", "174211.102500", "174212.352500", "174213.602500", "174214.852500", "174216.102500", "174217.352500", "174218.602500", "174219.852500", "174221.102500", "174222.352500", "174223.602500", "174224.852500", "174226.102500", "174227.352500", "174228.602500", "174229.852500", "174231.102500", "174232.352500", "174233.602500", "174234.852500", "174236.102500", "174237.352500", "174238.602500", "174239.852500", "174241.102500", "174242.352500", "174243.602500", "174244.852500", "174246.102500", "174247.352500", "174248.602500", "174249.852500", "174251.102500", "174252.352500", "174253.602500", "174254.852500", "174256.102500", "174257.352500", "174258.602500", "174259.852500", "174301.102500", "174302.352500", "174303.602500", "174304.852500", "174306.102500", "174307.352500", "174308.602500", "174309.852500", "174311.102500", "174312.352500", "174313.602500", "174314.852500", "174316.102500", "174317.352500", "174318.602500", "174319.852500", "174321.102500", "174322.352500", "174323.602500", "174324.852500", "174326.102500", "174327.352500"],
      "ContentTime": ["173740.140000", "173741.185000", "173742.430000", "173743.711000", "173744.927000", "173746.184000", "173747.393000", "173748.708000", "173749.943000", "173751.177000", "173752.487000", "173753.710000", "173754.950000", "173756.157000", "173757.446000", "173758.681000", "173759.946000", "173801.188000", "173802.436000", "173803.697000", "173804.932000", "173806.202000", "173807.443000", "173808.706000", "173809.921000", "173811.177000", "173812.417000", "173813.653000", "173814.945000", "173816.150000", "173817.427000", "173818.702000", "173819.934000", "173821.245000", "173822.431000", "173823.673000", "173824.925000", "173826.157000", "173827.454000", "173828.693000", "173829.949000", "173831.210000", "173832.457000", "173833.675000", "173834.934000", "173836.189000", "173837.447000", "173838.670000", "173839.987000", "173841.253000", "173842.427000", "173843.689000", "173844.944000", "173846.212000", "173847.423000", "173848.699000", "173849.904000", "173851.214000", "173852.459000", "173853.684000", "173855.004000", "173856.163000", "173857.421000", "173858.724000", "173859.926000", "173901.236000", "173902.412000", "173903.711000", "173904.986000", "173906.230000", "173907.435000", "173908.675000", "173909.946000", "173911.175000", "173912.513000", "173913.680000", "173914.938000", "173916.166000", "173917.439000", "173918.687000", "173919.934000", "173921.202000", "173922.415000", "173923.666000", "173925.014000", "173926.252000", "173927.411000", "173928.670000", "173929.984000", "173931.179000", "173932.435000", "173933.680000", "173935.029000", "173936.193000", "173937.442000", "173938.706000", "173939.922000", "173941.213000", "173942.434000", "173943.692000", "173944.935000", "173946.214000", "173947.473000", "173948.721000", "173949.942000", "173951.204000", "173952.481000", "173953.685000", "173954.941000", "173956.186000", "173957.488000", "173958.715000", "173959.938000", "174001.181000", "174002.446000", "174003.697000", "174004.948000", "174006.194000", "174007.461000", "174008.710000", "174009.944000", "174011.189000", "174012.453000", "174013.711000", "174014.970000", "174016.201000", "174017.469000", "174018.704000", "174019.984000", "174021.240000", "174022.455000", "174023.637000", "174024.946000", "174026.216000", "174027.467000", "174028.685000", "174029.970000", "174031.198000", "174032.481000", "174033.702000", "174034.938000", "174036.197000", "174037.436000", "174038.702000", "174039.966000", "174041.209000", "174042.430000", "174043.680000", "174045.014000", "174046.216000", "174047.459000", "174048.675000", "174049.932000", "174051.200000", "174052.429000", "174053.713000", "174054.970000", "174056.199000", "174057.429000", "174058.695000", "174059.941000", "174101.259000", "174102.458000", "174103.681000", "174104.956000", "174106.190000", "174107.459000", "174108.724000", "174109.962000", "174111.210000", "174112.456000", "174113.689000", "174114.910000", "174116.211000", "174117.445000", "174118.692000", "174119.937000", "174121.215000", "174122.439000", "174123.711000", "174124.966000", "174126.205000", "174127.434000", "174128.701000", "174129.956000", "174131.210000", "174132.432000", "174133.702000", "174134.948000", "174136.163000", "174137.469000", "174138.695000", "174139.946000", "174141.164000", "174142.455000", "174143.678000", "174144.977000", "174146.175000", "174147.434000", "174148.697000", "174149.925000", "174151.196000", "174152.451000", "174153.695000", "174154.922000", "174156.187000", "174157.456000", "174158.685000", "174159.943000", "174201.201000", "174202.434000", "174203.679000", "174204.922000", "174206.190000", "174207.423000", "174208.689000", "174209.986000", "174211.245000", "174212.426000", "174213.715000", "174214.949000", "174216.199000", "174217.448000", "174218.734000", "174219.987000", "174221.233000", "174222.453000", "174223.724000", "174225.034000", "174226.170000", "174227.422000", "174228.675000", "174229.926000", "174231.209000", "174232.429000", "174233.688000", "174234.965000", "174236.214000", "174237.463000", "174238.698000", "174239.935000", "174241.212000", "174242.468000", "174243.667000", "174244.952000", "174246.187000", "174247.452000", "174248.702000", "174249.936000", "174251.203000", "174252.431000", "174253.719000", "174254.925000", "174256.231000", "174257.421000", "174258.676000", "174259.931000", "174301.178000", "174302.460000", "174303.679000", "174304.943000", "174306.233000", "174307.445000", "174308.690000", "174309.945000", "174311.196000", "174312.441000", "174313.656000", "174314.974000", "174316.175000", "174317.441000", "174318.724000", "174319.936000", "174321.220000", "174322.484000", "174323.741000", "174324.958000", "174326.190000", "174327.461000", "174328.753000"],
      "InstanceCreationTime": ["173740.140000", "173741.185000", "173742.430000", "173743.711000", "173744.927000", "173746.184000", "173747.393000", "173748.708000", "173749.943000", "173751.177000", "173752.487000", "173753.710000", "173754.950000", "173756.157000", "173757.446000", "173758.681000", "173759.946000", "173801.188000", "173802.436000", "173803.697000", "173804.932000", "173806.202000", "173807.443000", "173808.706000", "173809.921000", "173811.177000", "173812.417000", "173813.653000", "173814.945000", "173816.150000", "173817.427000", "173818.702000", "173819.934000", "173821.245000", "173822.431000", "173823.673000", "173824.925000", "173826.157000", "173827.454000", "173828.693000", "173829.949000", "173831.210000", "173832.457000", "173833.675000", "173834.934000", "173836.189000", "173837.447000", "173838.670000", "173839.987000", "173841.253000", "173842.427000", "173843.689000", "173844.944000", "173846.212000", "173847.423000", "173848.699000", "173849.904000", "173851.214000", "173852.459000", "173853.684000", "173855.004000", "173856.163000", "173857.421000", "173858.724000", "173859.926000", "173901.236000", "173902.412000", "173903.711000", "173904.986000", "173906.230000", "173907.435000", "173908.675000", "173909.946000", "173911.175000", "173912.513000", "173913.680000", "173914.938000", "173916.166000", "173917.439000", "173918.687000", "173919.934000", "173921.202000", "173922.415000", "173923.666000", "173925.014000", "173926.252000", "173927.411000", "173928.670000", "173929.984000", "173931.179000", "173932.435000", "173933.680000", "173935.029000", "173936.193000", "173937.442000", "173938.706000", "173939.922000", "173941.213000", "173942.434000", "173943.692000", "173944.935000", "173946.214000", "173947.473000", "173948.721000", "173949.942000", "173951.204000", "173952.481000", "173953.685000", "173954.941000", "173956.186000", "173957.488000", "173958.715000", "173959.938000", "174001.181000", "174002.446000", "174003.697000", "174004.948000", "174006.194000", "174007.461000", "174008.710000", "174009.944000", "174011.189000", "174012.453000", "174013.711000", "174014.970000", "174016.201000", "174017.469000", "174018.704000", "174019.984000", "174021.240000", "174022.455000", "174023.637000", "174024.946000", "174026.216000", "174027.467000", "174028.685000", "174029.970000", "174031.198000", "174032.481000", "174033.702000", "174034.938000", "174036.197000", "174037.436000", "174038.702000", "174039.966000", "174041.209000", "174042.430000", "174043.680000", "174045.014000", "174046.216000", "174047.459000", "174048.675000", "174049.932000", "174051.200000", "174052.429000", "174053.713000", "174054.970000", "174056.199000", "174057.429000", "174058.695000", "174059.941000", "174101.259000", "174102.458000", "174103.681000", "174104.956000", "174106.190000", "174107.459000", "174108.724000", "174109.962000", "174111.210000", "174112.456000", "174113.689000", "174114.910000", "174116.211000", "174117.445000", "174118.692000", "174119.937000", "174121.215000", "174122.439000", "174123.711000", "174124.966000", "174126.205000", "174127.434000", "174128.701000", "174129.956000", "174131.210000", "174132.432000", "174133.702000", "174134.948000", "174136.163000", "174137.469000", "174138.695000", "174139.946000", "174141.164000", "174142.455000", "174143.678000", "174144.977000", "174146.175000", "174147.434000", "174148.697000", "174149.925000", "174151.196000", "174152.451000", "174153.695000", "174154.922000", "174156.187000", "174157.456000", "174158.685000", "174159.943000", "174201.201000", "174202.434000", "174203.679000", "174204.922000", "174206.190000", "174207.423000", "174208.689000", "174209.986000", "174211.245000", "174212.426000", "174213.715000", "174214.949000", "174216.199000", "174217.448000", "174218.734000", "174219.987000", "174221.233000", "174222.453000", "174223.724000", "174225.034000", "174226.170000", "174227.422000", "174228.675000", "174229.926000", "174231.209000", "174232.429000", "174233.688000", "174234.965000", "174236.214000", "174237.463000", "174238.698000", "174239.935000", "174241.212000", "174242.468000", "174243.667000", "174244.952000", "174246.187000", "174247.452000", "174248.702000", "174249.936000", "174251.203000", "174252.431000", "174253.719000", "174254.925000", "174256.231000", "174257.421000", "174258.676000", "174259.931000", "174301.178000", "174302.460000", "174303.679000", "174304.943000", "174306.233000", "174307.445000", "174308.690000", "174309.945000", "174311.196000", "174312.441000", "174313.656000", "174314.974000", "174316.175000", "174317.441000", "174318.724000", "174319.936000", "174321.220000", "174322.484000", "174323.741000", "174324.958000", "174326.190000", "174327.461000", "174328.753000"],
      "InstanceNumber": [1, 2, 3, 4, 5, 6, 7, 8, 9, 10, 11, 12, 13, 14, 15, 16, 17, 18, 19, 20, 21, 22, 23, 24, 25, 26, 27, 28, 29, 30, 31, 32, 33, 34, 35, 36, 37, 38, 39, 40, 41, 42, 43, 44, 45, 46, 47, 48, 49, 50, 51, 52, 53, 54, 55, 56, 57, 58, 59, 60, 61, 62, 63, 64, 65, 66, 67, 68, 69, 70, 71, 72, 73, 74, 75, 76, 77, 78, 79, 80, 81, 82, 83, 84, 85, 86, 87, 88, 89, 90, 91, 92, 93, 94, 95, 96, 97, 98, 99, 100, 101, 102, 103, 104, 105, 106, 107, 108, 109, 110, 111, 112, 113, 114, 115, 116, 117, 118, 119, 120, 121, 122, 123, 124, 125, 126, 127, 128, 129, 130, 131, 132, 133, 134, 135, 136, 137, 138, 139, 140, 141, 142, 143, 144, 145, 146, 147, 148, 149, 150, 151, 152, 153, 154, 155, 156, 157, 158, 159, 160, 161, 162, 163, 164, 165, 166, 167, 168, 169, 170, 171, 172, 173, 174, 175, 176, 177, 178, 179, 180, 181, 182, 183, 184, 185, 186, 187, 188, 189, 190, 191, 192, 193, 194, 195, 196, 197, 198, 199, 200, 201, 202, 203, 204, 205, 206, 207, 208, 209, 210, 211, 212, 213, 214, 215, 216, 217, 218, 219, 220, 221, 222, 223, 224, 225, 226, 227, 228, 229, 230, 231, 232, 233, 234, 235, 236, 237, 238, 239, 240, 241, 242, 243, 244, 245, 246, 247, 248, 249, 250, 251, 252, 253, 254, 255, 256, 257, 258, 259, 260, 261, 262, 263, 264, 265, 266, 267, 268, 269, 270, 271, 272, 273, 274, 275, 276, 277, 278, 279, 280],
      "LargestImagePixelValue": [852, 890, 847, 921, 878, 1023, 927, 1103, 1067, 977, 1029, 933, 849, 922, 834, 866, 915, 967, 851, 820, 888, 803, 851, 1056, 879, 1046, 831, 852, 1117, 939, 950, 854, 893, 967, 845, 844, 871, 967, 930, 858, 862, 893, 979, 831, 913, 802, 798, 953, 929, 998, 857, 966, 912, 885, 1202, 961, 922, 951, 820, 807, 931, 875, 821, 852, 805, 987, 996, 900, 968, 931, 888, 877, 914, 934, 973, 894, 864, 981, 843, 1098, 919, 826, 973, 1030, 805, 837, 1050, 924, 903, 922, 956, 906, 1171, 918, 810, 1135, 1010, 856, 940, 879, 906, 821, 852, 813, 906, 1032, 953, 1107, 866, 871, 859, 814, 1121, 886, 828, 830, 824, 873, 1016, 991, 897, 890, 861, 818, 815, 1047, 985, 826, 935, 861, 817, 792, 826, 890, 938, 889, 879, 825, 835, 854, 850, 851, 907, 879, 974, 882, 985, 885, 810, 850, 901, 915, 1048, 896, 920, 866, 896, 862, 854, 920, 997, 930, 876, 823, 864, 914, 881, 840, 833, 836, 1014, 1012, 967, 989, 907, 919, 846, 921, 851, 824, 1043, 951, 859, 1009, 948, 923, 849, 855, 846, 893, 897, 853, 886, 1092, 908, 833, 1011, 853, 881, 964, 919, 860, 872, 937, 832, 869, 874, 895, 833, 825, 844, 885, 832, 1117, 864, 833, 868, 817, 929, 859, 827, 849, 831, 885, 841, 878, 806, 876, 832, 874, 897, 924, 862, 926, 871, 814, 830, 847, 1001, 811, 868, 817, 860, 1009, 1001, 1055, 924, 843, 833, 915, 879, 977, 821, 814, 874, 1028, 901, 937, 865, 1011, 831, 1046, 899, 878, 878, 814, 828, 835, 854, 990, 910, 877, 996, 878, 933, 842, 861, 953, 1027, 890],
      "WindowCenter": [394.0, 394.0, 392.0, 393.0, 393.0, 394.0, 392.0, 394.0, 393.0, 391.0, 391.0, 391.0, 391.0, 392.0, 392.0, 392.0, 392.0, 392.0, 390.0, 390.0, 391.0, 391.0, 391.0, 393.0, 391.0, 393.0, 390.0, 391.0, 394.0, 393.0, 392.0, 391.0, 392.0, 392.0, 391.0, 391.0, 392.0, 392.0, 392.0, 391.0, 391.0, 391.0, 392.0, 390.0, 391.0, 390.0, 391.0, 393.0, 394.0, 393.0, 392.0, 393.0, 392.0, 392.0, 395.0, 393.0, 392.0, 392.0, 390.0, 390.0, 391.0, 391.0, 391.0, 392.0, 391.0, 394.0, 393.0, 392.0, 392.0, 392.0, 391.0, 391.0, 392.0, 392.0, 393.0, 392.0, 391.0, 392.0, 390.0, 393.0, 391.0, 390.0, 391.0, 391.0, 389.0, 390.0, 393.0, 392.0, 392.0, 392.0, 392.0, 391.0, 394.0, 392.0, 392.0, 394.0, 393.0, 390.0, 390.0, 389.0, 390.0, 389.0, 390.0, 391.0, 392.0, 393.0, 392.0, 393.0, 390.0, 390.0, 390.0, 390.0, 394.0, 391.0, 390.0, 390.0, 390.0, 391.0, 393.0, 393.0, 392.0, 392.0, 391.0, 391.0, 392.0, 395.0, 393.0, 391.0, 392.0, 392.0, 391.0, 391.0, 391.0, 392.0, 392.0, 391.0, 392.0, 391.0, 391.0, 392.0, 392.0, 392.0, 392.0, 391.0, 392.0, 391.0, 392.0, 391.0, 390.0, 391.0, 392.0, 392.0, 393.0, 391.0, 392.0, 391.0, 392.0, 391.0, 391.0, 392.0, 393.0, 392.0, 391.0, 390.0, 391.0, 392.0, 392.0, 393.0, 393.0, 393.0, 394.0, 393.0, 392.0, 392.0, 391.0, 392.0, 391.0, 392.0, 391.0, 391.0, 393.0, 391.0, 390.0, 391.0, 390.0, 390.0, 389.0, 390.0, 390.0, 392.0, 392.0, 392.0, 392.0, 393.0, 392.0, 391.0, 393.0, 392.0, 391.0, 392.0, 392.0, 391.0, 391.0, 392.0, 392.0, 391.0, 391.0, 392.0, 391.0, 391.0, 391.0, 391.0, 391.0, 394.0, 390.0, 391.0, 391.0, 391.0, 391.0, 391.0, 390.0, 391.0, 391.0, 391.0, 391.0, 391.0, 390.0, 391.0, 391.0, 392.0, 392.0, 392.0, 391.0, 391.0, 390.0, 390.0, 390.0, 391.0, 392.0, 390.0, 391.0, 390.0, 391.0, 393.0, 393.0, 393.0, 392.0, 391.0, 391.0, 392.0, 391.0, 392.0, 391.0, 391.0, 391.0, 393.0, 391.0, 391.0, 391.0, 393.0, 391.0, 393.0, 391.0, 391.0, 391.0, 391.0, 392.0, 393.0, 393.0, 394.0, 393.0, 392.0, 393.0, 392.0, 392.0, 391.0, 390.0, 392.0, 392.0, 390.0],
      "WindowWidth": [837.0, 835.0, 832.0, 833.0, 832.0, 835.0, 832.0, 834.0, 832.0, 830.0, 828.0, 829.0, 830.0, 832.0, 832.0, 831.0, 831.0, 830.0, 828.0, 828.0, 830.0, 830.0, 830.0, 833.0, 830.0, 832.0, 829.0, 829.0, 833.0, 832.0, 832.0, 830.0, 831.0, 831.0, 830.0, 830.0, 831.0, 832.0, 831.0, 830.0, 830.0, 830.0, 831.0, 828.0, 829.0, 828.0, 829.0, 832.0, 834.0, 834.0, 832.0, 834.0, 832.0, 832.0, 836.0, 833.0, 831.0, 830.0, 828.0, 828.0, 830.0, 830.0, 829.0, 831.0, 831.0, 834.0, 833.0, 831.0, 831.0, 831.0, 830.0, 830.0, 830.0, 831.0, 832.0, 831.0, 830.0, 831.0, 828.0, 832.0, 830.0, 828.0, 830.0, 829.0, 826.0, 829.0, 833.0, 832.0, 832.0, 831.0, 830.0, 829.0, 833.0, 832.0, 832.0, 835.0, 832.0, 828.0, 828.0, 826.0, 827.0, 827.0, 828.0, 829.0, 831.0, 833.0, 832.0, 832.0, 828.0, 829.0, 829.0, 829.0, 833.0, 830.0, 828.0, 829.0, 828.0, 830.0, 832.0, 832.0, 831.0, 831.0, 830.0, 831.0, 832.0, 835.0, 834.0, 831.0, 832.0, 832.0, 831.0, 830.0, 830.0, 831.0, 831.0, 830.0, 831.0, 831.0, 831.0, 831.0, 831.0, 831.0, 832.0, 830.0, 832.0, 829.0, 830.0, 829.0, 828.0, 830.0, 831.0, 831.0, 832.0, 829.0, 831.0, 830.0, 831.0, 830.0, 830.0, 831.0, 832.0, 830.0, 830.0, 828.0, 829.0, 831.0, 831.0, 833.0, 833.0, 833.0, 834.0, 833.0, 832.0, 831.0, 830.0, 830.0, 830.0, 832.0, 831.0, 830.0, 832.0, 830.0, 827.0, 828.0, 828.0, 827.0, 826.0, 828.0, 829.0, 832.0, 832.0, 831.0, 831.0, 833.0, 831.0, 830.0, 833.0, 831.0, 830.0, 831.0, 831.0, 830.0, 830.0, 832.0, 831.0, 831.0, 830.0, 831.0, 830.0, 829.0, 830.0, 831.0, 830.0, 833.0, 829.0, 829.0, 830.0, 829.0, 830.0, 829.0, 828.0, 829.0, 829.0, 830.0, 829.0, 829.0, 828.0, 830.0, 829.0, 831.0, 831.0, 830.0, 829.0, 829.0, 828.0, 828.0, 829.0, 829.0, 831.0, 828.0, 829.0, 828.0, 830.0, 832.0, 832.0, 833.0, 831.0, 829.0, 829.0, 831.0, 830.0, 831.0, 829.0, 830.0, 830.0, 832.0, 829.0, 830.0, 830.0, 832.0, 829.0, 832.0, 829.0, 829.0, 830.0, 830.0, 832.0, 833.0, 833.0, 835.0, 833.0, 831.0, 832.0, 831.0, 831.0, 829.0, 829.0, 830.0, 831.0, 828.0]
    },
    "slices": {}
  }
}