{
  "AcquisitionMatrixPE": 96,
  "AcquisitionNumber": 1,
  "AcquisitionTime": "17:06:39.467500",
  "BandwidthPerPixelPhaseEncode": 18.939,
  "BaseResolution": 96,
  "BodyPartExamined": "BRAIN",
  "ConsistencyInfo": "N4_VE11C_LATEST_20160120",
  "ConversionSoftware": "dcm2niix",
  "ConversionSoftwareVersion": "v1.0.20170923 (OpenJPEG build) GCC6.3.0",
  "DerivedVendorReportedEchoSpacing": 0.000550011,
  "DeviceSerialNumber": "66112",
  "DwellTime": 2.3e-06,
  "EchoTime": 0.033,
  "EchoTrainLength": 96,
  "EffectiveEchoSpacing": 0.000550011,
  "FlipAngle": 64,
  "ImageType": [
    "ORIGINAL",
    "PRIMARY",
    "FMRI",
    "NONE",
    "ND",
    "NORM",
    "MOSAIC"
],
  "InstitutionAddress": "Maynard_3_Hanover_NH_US_03755",
  "InstitutionName": "Dartmouth_College_-_PBS",
  "MagneticFieldStrength": 3,
  "Manufacturer": "Siemens",
  "ManufacturersModelName": "Prisma",
  "Modality": "MR",
  "MultibandAccelerationFactor": 4,
  "PartialFourier": 1,
  "PercentPhaseFOV": 100,
  "PhaseEncodingDirection": "j-",
  "PhaseEncodingSteps": 96,
  "PhaseResolution": 1,
  "ProcedureStepDescription": "Gobbini_Matteo_1017_famface-angles",
  "ProtocolName": "func_run-05_task-fam1back",
  "PulseSequenceDetails": "%SiemensSeq%_ep2d_bold",
  "ReceiveCoilActiveElements": "HEA;HEP",
  "ReceiveCoilName": "Head_32",
  "ReconMatrixPE": 96,
  "RepetitionTime": 1.25,
  "ScanOptions": "FS",
  "ScanningSequence": "EP",
  "SequenceName": "_epfid2d1_96",
  "SequenceVariant": "SK",
  "SeriesDescription": "func_run-05_task-fam1back",
  "SliceTiming": [0.8775, 0, 0.615, 0.0875, 0.7025, 0.175, 0.79, 0.35, 0.965, 0.44, 1.055, 0.5275, 1.1425, 0.2625, 0.8775, 0, 0.615, 0.0875, 0.7025, 0.175, 0.79, 0.35, 0.965, 0.44, 1.055, 0.5275, 1.1425, 0.2625, 0.8775, 0, 0.615, 0.0875, 0.7025, 0.175, 0.79, 0.35, 0.965, 0.44, 1.055, 0.5275, 1.1425, 0.2625, 0.8775, 0, 0.615, 0.0875, 0.7025, 0.175, 0.79, 0.35, 0.965, 0.44, 1.055, 0.5275, 1.1425, 0.2625],
  "SoftwareVersions": "syngo_MR_E11",
  "StationName": "AWP66112",
  "TaskName": "fam1back",
  "TotalReadoutTime": 0.0522511,
  "dcmmeta_affine": [
    [-2.4948906898498535, 0.013063459657132626, 0.15921556949615479, 117.25891876220703],
    [0.03031955286860466, 2.485060691833496, 0.27120766043663025, -115.8316421508789],
    [0.15684698522090912, -0.27258431911468506, 2.480140447616577, -65.5165023803711],
    [0.0, 0.0, 0.0, 1.0]
],
  "dcmmeta_reorient_transform": [
    [0.0, -1.0, 0.0, 95.0],
    [1.0, 0.0, 0.0, 0.0],
    [0.0, 0.0, 1.0, 0.0],
    [0.0, 0.0, 0.0, 1.0]
],
  "dcmmeta_shape": [96, 96, 56, 280],
  "dcmmeta_slice_dim": 2,
  "dcmmeta_version": 0.6,
  "global": {
    "const": {
      "AccessionNumber": "A000234",
      "AcquisitionMatrix": [96, 0, 0, 96],
      "AngioFlag": "N",
      "BitsAllocated": 16,
      "BitsStored": 12,
      "BodyPartExamined": "BRAIN",
      "Columns": 768,
      "EchoNumbers": 1,
      "EchoTime": 33.0,
      "EchoTrainLength": 96,
      "FlipAngle": 64.0,
      "HighBit": 11,
      "ImageOrientationPatient": [0.99795629145804, -0.0121278209914, 0.06273879419714, 0.00522538374111, 0.99402431676021, 0.10903372438906],
      "ImagePositionPatient": [-961.17255639885, -945.04219074195, -235.70092661961],
      "ImageType": [
        "ORIGINAL",
        "PRIMARY",
        "FMRI",
        "NONE",
        "ND",
        "NORM",
        "MOSAIC"
],
      "ImagedNucleus": "1H",
      "ImagingFrequency": 123.252367,
      "InPlanePhaseEncodingDirection": "COL",
      "MRAcquisitionType": "2D",
      "MagneticFieldStrength": 3.0,
      "Manufacturer": "SIEMENS",
      "ManufacturerModelName": "Prisma",
      "Modality": "MR",
      "NumberOfAverages": 1.0,
      "NumberOfPhaseEncodingSteps": 96,
      "PercentPhaseFieldOfView": 100.0,
      "PercentSampling": 100.0,
      "PerformedProcedureStepStartTime": "162045.106000",
      "PhotometricInterpretation": "MONOCHROME2",
      "PixelBandwidth": 2265.0,
      "PixelRepresentation": 0,
      "PixelSpacing": [2.5, 2.5],
      "PositionReferenceIndicator": "",
      "ProtocolName": "func_run-05_task-fam1back",
      "RepetitionTime": 1250.0,
      "Rows": 768,
      "SAR": 0.04946632584266,
      "SamplesPerPixel": 1,
      "ScanOptions": "FS",
      "ScanningSequence": "EP",
      "SequenceName": "*epfid2d1_96",
      "SequenceVariant": "SK",
      "SeriesDescription": "func_run-05_task-fam1back",
      "SeriesNumber": 36,
      "SeriesTime": "170640.553000",
      "SliceLocation": -70.094043128439,
      "SliceThickness": 2.5,
      "SmallestImagePixelValue": 0,
      "SoftwareVersions": "syngo MR E11",
      "SpacingBetweenSlices": 2.5000000620294,
      "SpecificCharacterSet": "ISO_IR 100",
      "StudyID": "1",
      "StudyTime": "162045.036000",
      "TransmitCoilName": "Body",
      "VariableFlipAngleFlag": "N",
      "WindowCenterWidthExplanation": "Algo1",
      "dBdt": 0.0},
    "slices": {}
  },
  "time": {
    "samples": {
      "AcquisitionNumber": [1, 2, 3, 4, 5, 6, 7, 8, 9, 10, 11, 12, 13, 14, 15, 16, 17, 18, 19, 20, 21, 22, 23, 24, 25, 26, 27, 28, 29, 30, 31, 32, 33, 34, 35, 36, 37, 38, 39, 40, 41, 42, 43, 44, 45, 46, 47, 48, 49, 50, 51, 52, 53, 54, 55, 56, 57, 58, 59, 60, 61, 62, 63, 64, 65, 66, 67, 68, 69, 70, 71, 72, 73, 74, 75, 76, 77, 78, 79, 80, 81, 82, 83, 84, 85, 86, 87, 88, 89, 90, 91, 92, 93, 94, 95, 96, 97, 98, 99, 100, 101, 102, 103, 104, 105, 106, 107, 108, 109, 110, 111, 112, 113, 114, 115, 116, 117, 118, 119, 120, 121, 122, 123, 124, 125, 126, 127, 128, 129, 130, 131, 132, 133, 134, 135, 136, 137, 138, 139, 140, 141, 142, 143, 144, 145, 146, 147, 148, 149, 150, 151, 152, 153, 154, 155, 156, 157, 158, 159, 160, 161, 162, 163, 164, 165, 166, 167, 168, 169, 170, 171, 172, 173, 174, 175, 176, 177, 178, 179, 180, 181, 182, 183, 184, 185, 186, 187, 188, 189, 190, 191, 192, 193, 194, 195, 196, 197, 198, 199, 200, 201, 202, 203, 204, 205, 206, 207, 208, 209, 210, 211, 212, 213, 214, 215, 216, 217, 218, 219, 220, 221, 222, 223, 224, 225, 226, 227, 228, 229, 230, 231, 232, 233, 234, 235, 236, 237, 238, 239, 240, 241, 242, 243, 244, 245, 246, 247, 248, 249, 250, 251, 252, 253, 254, 255, 256, 257, 258, 259, 260, 261, 262, 263, 264, 265, 266, 267, 268, 269, 270, 271, 272, 273, 274, 275, 276, 277, 278, 279, 280],
      "AcquisitionTime": ["170639.467500", "170640.717500", "170641.967500", "170643.217500", "170644.467500", "170645.717500", "170646.967500", "170648.217500", "170649.467500", "170650.717500", "170651.967500", "170653.217500", "170654.467500", "170655.717500", "170656.967500", "170658.217500", "170659.467500", "170700.717500", "170701.967500", "170703.217500", "170704.467500", "170705.717500", "170706.967500", "170708.217500", "170709.467500", "170710.717500", "170711.967500", "170713.217500", "170714.467500", "170715.717500", "170716.967500", "170718.217500", "170719.467500", "170720.717500", "170721.967500", "170723.217500", "170724.467500", "170725.717500", "170726.967500", "170728.217500", "170729.467500", "170730.717500", "170731.967500", "170733.217500", "170734.467500", "170735.717500", "170736.967500", "170738.217500", "170739.467500", "170740.717500", "170741.967500", "170743.217500", "170744.467500", "170745.717500", "170746.967500", "170748.217500", "170749.467500", "170750.717500", "170751.967500", "170753.217500", "170754.467500", "170755.717500", "170756.967500", "170758.217500", "170759.467500", "170800.717500", "170801.967500", "170803.217500", "170804.467500", "170805.717500", "170806.967500", "170808.217500", "170809.467500", "170810.717500", "170811.967500", "170813.217500", "170814.467500", "170815.717500", "170816.967500", "170818.217500", "170819.467500", "170820.717500", "170821.967500", "170823.217500", "170824.467500", "170825.717500", "170826.967500", "170828.217500", "170829.467500", "170830.717500", "170831.967500", "170833.217500", "170834.467500", "170835.717500", "170836.967500", "170838.217500", "170839.467500", "170840.717500", "170841.967500", "170843.217500", "170844.467500", "170845.717500", "170846.967500", "170848.217500", "170849.467500", "170850.717500", "170851.967500", "170853.217500", "170854.467500", "170855.717500", "170856.967500", "170858.217500", "170859.467500", "170900.717500", "170901.967500", "170903.217500", "170904.467500", "170905.717500", "170906.967500", "170908.217500", "170909.467500", "170910.717500", "170911.967500", "170913.217500", "170914.467500", "170915.717500", "170916.967500", "170918.217500", "170919.467500", "170920.717500", "170921.967500", "170923.217500", "170924.467500", "170925.717500", "170926.967500", "170928.217500", "170929.467500", "170930.717500", "170931.967500", "170933.217500", "170934.467500", "170935.717500", "170936.967500", "170938.217500", "170939.467500", "170940.717500", "170941.967500", "170943.217500", "170944.467500", "170945.717500", "170946.967500", "170948.217500", "170949.467500", "170950.717500", "170951.967500", "170953.217500", "170954.467500", "170955.717500", "170956.967500", "170958.217500", "170959.467500", "171000.717500", "171001.967500", "171003.217500", "171004.467500", "171005.717500", "171006.967500", "171008.217500", "171009.467500", "171010.717500", "171011.967500", "171013.217500", "171014.467500", "171015.717500", "171016.967500", "171018.217500", "171019.467500", "171020.717500", "171021.967500", "171023.217500", "171024.467500", "171025.717500", "171026.967500", "171028.217500", "171029.467500", "171030.717500", "171031.967500", "171033.217500", "171034.467500", "171035.717500", "171036.967500", "171038.217500", "171039.467500", "171040.717500", "171041.967500", "171043.217500", "171044.467500", "171045.717500", "171046.967500", "171048.217500", "171049.467500", "171050.717500", "171051.967500", "171053.217500", "171054.467500", "171055.717500", "171056.967500", "171058.217500", "171059.467500", "171100.717500", "171101.967500", "171103.217500", "171104.467500", "171105.717500", "171106.967500", "171108.217500", "171109.467500", "171110.717500", "171111.967500", "171113.217500", "171114.467500", "171115.717500", "171116.967500", "171118.217500", "171119.467500", "171120.717500", "171121.967500", "171123.217500", "171124.467500", "171125.717500", "171126.967500", "171128.217500", "171129.467500", "171130.717500", "171131.967500", "171133.217500", "171134.467500", "171135.717500", "171136.967500", "171138.217500", "171139.467500", "171140.717500", "171141.967500", "171143.217500", "171144.467500", "171145.717500", "171146.967500", "171148.217500", "171149.467500", "171150.717500", "171151.967500", "171153.217500", "171154.467500", "171155.717500", "171156.967500", "171158.217500", "171159.467500", "171200.717500", "171201.967500", "171203.217500", "171204.467500", "171205.717500", "171206.967500", "171208.217500", "171209.467500", "171210.717500", "171211.967500", "171213.217500", "171214.467500", "171215.717500", "171216.967500", "171218.217500", "171219.467500", "171220.717500", "171221.967500", "171223.217500", "171224.467500", "171225.717500", "171226.967500", "171228.217500"],
      "ContentTime": ["170640.556000", "170641.600000", "170642.838000", "170644.100000", "170645.344000", "170646.613000", "170647.862000", "170649.097000", "170650.343000", "170651.630000", "170652.848000", "170654.084000", "170655.355000", "170656.645000", "170657.846000", "170659.078000", "170700.338000", "170701.630000", "170702.801000", "170704.079000", "170705.326000", "170706.580000", "170707.862000", "170709.078000", "170710.369000", "170711.585000", "170712.810000", "170714.089000", "170715.345000", "170716.612000", "170717.835000", "170719.083000", "170720.395000", "170721.598000", "170722.830000", "170724.108000", "170725.305000", "170726.591000", "170727.889000", "170729.073000", "170730.332000", "170731.587000", "170732.833000", "170734.082000", "170735.345000", "170736.586000", "170737.841000", "170739.071000", "170740.332000", "170741.586000", "170742.826000", "170744.082000", "170745.362000", "170746.590000", "170747.824000", "170749.122000", "170750.330000", "170751.627000", "170752.850000", "170754.091000", "170755.395000", "170756.608000", "170757.834000", "170759.104000", "170800.302000", "170801.618000", "170802.850000", "170804.089000", "170805.345000", "170806.574000", "170807.829000", "170809.101000", "170810.337000", "170811.590000", "170812.891000", "170814.097000", "170815.344000", "170816.565000", "170817.816000", "170819.103000", "170820.320000", "170821.587000", "170822.840000", "170824.127000", "170825.350000", "170826.556000", "170827.833000", "170829.091000", "170830.306000", "170831.592000", "170832.846000", "170834.103000", "170835.340000", "170836.591000", "170837.850000", "170839.102000", "170840.345000", "170841.600000", "170842.886000", "170844.090000", "170845.352000", "170846.629000", "170847.862000", "170849.124000", "170850.353000", "170851.579000", "170852.874000", "170854.087000", "170855.349000", "170856.562000", "170857.846000", "170859.091000", "170900.361000", "170901.635000", "170902.849000", "170904.147000", "170905.364000", "170906.598000", "170907.860000", "170909.164000", "170910.345000", "170911.620000", "170912.889000", "170914.111000", "170915.393000", "170916.575000", "170917.824000", "170919.110000", "170920.349000", "170921.609000", "170922.884000", "170924.105000", "170925.346000", "170926.578000", "170927.870000", "170929.101000", "170930.351000", "170931.604000", "170932.848000", "170934.089000", "170935.305000", "170936.608000", "170937.882000", "170939.060000", "170940.346000", "170941.597000", "170942.871000", "170944.106000", "170945.355000", "170946.602000", "170947.818000", "170949.085000", "170950.356000", "170951.600000", "170952.841000", "170954.098000", "170955.354000", "170956.597000", "170957.863000", "170959.114000", "171000.345000", "171001.592000", "171002.843000", "171004.094000", "171005.352000", "171006.601000", "171007.853000", "171009.107000", "171010.365000", "171011.600000", "171012.846000", "171014.165000", "171015.344000", "171016.579000", "171017.862000", "171019.067000", "171020.330000", "171021.572000", "171022.848000", "171024.095000", "171025.357000", "171026.595000", "171027.879000", "171029.176000", "171030.310000", "171031.586000", "171032.860000", "171034.155000", "171035.347000", "171036.581000", "171037.858000", "171039.088000", "171040.339000", "171041.628000", "171042.879000", "171044.129000", "171045.420000", "171046.636000", "171047.868000", "171049.131000", "171050.341000", "171051.626000", "171052.854000", "171054.086000", "171055.352000", "171056.634000", "171057.906000", "171059.078000", "171100.367000", "171101.609000", "171102.859000", "171104.095000", "171105.358000", "171106.605000", "171107.827000", "171109.091000", "171110.339000", "171111.565000", "171112.889000", "171114.112000", "171115.354000", "171116.610000", "171117.848000", "171119.103000", "171120.332000", "171121.650000", "171122.849000", "171124.094000", "171125.401000", "171126.580000", "171127.832000", "171129.102000", "171130.341000", "171131.587000", "171132.845000", "171134.110000", "171135.353000", "171136.612000", "171137.830000", "171139.112000", "171140.349000", "171141.602000", "171142.862000", "171144.135000", "171145.311000", "171146.596000", "171147.850000", "171149.106000", "171150.359000", "171151.589000", "171152.835000", "171154.102000", "171155.353000", "171156.603000", "171157.857000", "171159.104000", "171200.356000", "171201.611000", "171202.825000", "171204.098000", "171205.334000", "171206.643000", "171207.878000", "171209.123000", "171210.332000", "171211.602000", "171212.870000", "171214.085000", "171215.319000", "171216.599000", "171217.893000", "171219.082000", "171220.317000", "171221.615000", "171222.837000", "171224.093000", "171225.346000", "171226.608000", "171227.890000", "171229.205000"],
      "InstanceCreationTime": ["170640.556000", "170641.600000", "170642.838000", "170644.100000", "170645.344000", "170646.613000", "170647.862000", "170649.097000", "170650.343000", "170651.630000", "170652.848000", "170654.084000", "170655.355000", "170656.645000", "170657.846000", "170659.078000", "170700.338000", "170701.630000", "170702.801000", "170704.079000", "170705.326000", "170706.580000", "170707.862000", "170709.078000", "170710.369000", "170711.585000", "170712.810000", "170714.089000", "170715.345000", "170716.612000", "170717.835000", "170719.083000", "170720.395000", "170721.598000", "170722.830000", "170724.108000", "170725.305000", "170726.591000", "170727.889000", "170729.073000", "170730.332000", "170731.587000", "170732.833000", "170734.082000", "170735.345000", "170736.586000", "170737.841000", "170739.071000", "170740.332000", "170741.586000", "170742.826000", "170744.082000", "170745.362000", "170746.590000", "170747.824000", "170749.122000", "170750.330000", "170751.627000", "170752.850000", "170754.091000", "170755.395000", "170756.608000", "170757.834000", "170759.104000", "170800.302000", "170801.618000", "170802.850000", "170804.089000", "170805.345000", "170806.574000", "170807.829000", "170809.101000", "170810.337000", "170811.590000", "170812.891000", "170814.097000", "170815.344000", "170816.565000", "170817.816000", "170819.103000", "170820.320000", "170821.587000", "170822.840000", "170824.127000", "170825.350000", "170826.556000", "170827.833000", "170829.091000", "170830.306000", "170831.592000", "170832.846000", "170834.103000", "170835.340000", "170836.591000", "170837.850000", "170839.102000", "170840.345000", "170841.600000", "170842.886000", "170844.090000", "170845.352000", "170846.629000", "170847.862000", "170849.124000", "170850.353000", "170851.579000", "170852.874000", "170854.087000", "170855.349000", "170856.562000", "170857.846000", "170859.091000", "170900.361000", "170901.635000", "170902.849000", "170904.147000", "170905.364000", "170906.598000", "170907.860000", "170909.164000", "170910.345000", "170911.620000", "170912.889000", "170914.111000", "170915.393000", "170916.575000", "170917.824000", "170919.110000", "170920.349000", "170921.609000", "170922.884000", "170924.105000", "170925.346000", "170926.578000", "170927.870000", "170929.101000", "170930.351000", "170931.604000", "170932.848000", "170934.089000", "170935.305000", "170936.608000", "170937.882000", "170939.060000", "170940.346000", "170941.597000", "170942.871000", "170944.106000", "170945.355000", "170946.602000", "170947.818000", "170949.085000", "170950.356000", "170951.600000", "170952.841000", "170954.098000", "170955.354000", "170956.597000", "170957.863000", "170959.114000", "171000.345000", "171001.592000", "171002.843000", "171004.094000", "171005.352000", "171006.601000", "171007.853000", "171009.107000", "171010.365000", "171011.600000", "171012.846000", "171014.165000", "171015.344000", "171016.579000", "171017.862000", "171019.067000", "171020.330000", "171021.572000", "171022.848000", "171024.095000", "171025.357000", "171026.595000", "171027.879000", "171029.176000", "171030.310000", "171031.586000", "171032.860000", "171034.155000", "171035.347000", "171036.581000", "171037.858000", "171039.088000", "171040.339000", "171041.628000", "171042.879000", "171044.129000", "171045.420000", "171046.636000", "171047.868000", "171049.131000", "171050.341000", "171051.626000", "171052.854000", "171054.086000", "171055.352000", "171056.634000", "171057.906000", "171059.078000", "171100.367000", "171101.609000", "171102.859000", "171104.095000", "171105.358000", "171106.605000", "171107.827000", "171109.091000", "171110.339000", "171111.565000", "171112.889000", "171114.112000", "171115.354000", "171116.610000", "171117.848000", "171119.103000", "171120.332000", "171121.650000", "171122.849000", "171124.094000", "171125.401000", "171126.580000", "171127.832000", "171129.102000", "171130.341000", "171131.587000", "171132.845000", "171134.110000", "171135.353000", "171136.612000", "171137.830000", "171139.112000", "171140.349000", "171141.602000", "171142.862000", "171144.135000", "171145.311000", "171146.596000", "171147.850000", "171149.106000", "171150.359000", "171151.589000", "171152.835000", "171154.102000", "171155.353000", "171156.603000", "171157.857000", "171159.104000", "171200.356000", "171201.611000", "171202.825000", "171204.098000", "171205.334000", "171206.643000", "171207.878000", "171209.123000", "171210.332000", "171211.602000", "171212.870000", "171214.085000", "171215.319000", "171216.599000", "171217.893000", "171219.082000", "171220.317000", "171221.615000", "171222.837000", "171224.093000", "171225.346000", "171226.608000", "171227.890000", "171229.205000"],
      "InstanceNumber": [1, 2, 3, 4, 5, 6, 7, 8, 9, 10, 11, 12, 13, 14, 15, 16, 17, 18, 19, 20, 21, 22, 23, 24, 25, 26, 27, 28, 29, 30, 31, 32, 33, 34, 35, 36, 37, 38, 39, 40, 41, 42, 43, 44, 45, 46, 47, 48, 49, 50, 51, 52, 53, 54, 55, 56, 57, 58, 59, 60, 61, 62, 63, 64, 65, 66, 67, 68, 69, 70, 71, 72, 73, 74, 75, 76, 77, 78, 79, 80, 81, 82, 83, 84, 85, 86, 87, 88, 89, 90, 91, 92, 93, 94, 95, 96, 97, 98, 99, 100, 101, 102, 103, 104, 105, 106, 107, 108, 109, 110, 111, 112, 113, 114, 115, 116, 117, 118, 119, 120, 121, 122, 123, 124, 125, 126, 127, 128, 129, 130, 131, 132, 133, 134, 135, 136, 137, 138, 139, 140, 141, 142, 143, 144, 145, 146, 147, 148, 149, 150, 151, 152, 153, 154, 155, 156, 157, 158, 159, 160, 161, 162, 163, 164, 165, 166, 167, 168, 169, 170, 171, 172, 173, 174, 175, 176, 177, 178, 179, 180, 181, 182, 183, 184, 185, 186, 187, 188, 189, 190, 191, 192, 193, 194, 195, 196, 197, 198, 199, 200, 201, 202, 203, 204, 205, 206, 207, 208, 209, 210, 211, 212, 213, 214, 215, 216, 217, 218, 219, 220, 221, 222, 223, 224, 225, 226, 227, 228, 229, 230, 231, 232, 233, 234, 235, 236, 237, 238, 239, 240, 241, 242, 243, 244, 245, 246, 247, 248, 249, 250, 251, 252, 253, 254, 255, 256, 257, 258, 259, 260, 261, 262, 263, 264, 265, 266, 267, 268, 269, 270, 271, 272, 273, 274, 275, 276, 277, 278, 279, 280],
      "LargestImagePixelValue": [994, 933, 843, 821, 1149, 952, 826, 1137, 903, 846, 892, 884, 975, 817, 889, 865, 1002, 930, 930, 973, 994, 860, 1031, 938, 906, 1068, 1126, 845, 863, 827, 864, 811, 809, 895, 1061, 938, 799, 847, 844, 865, 1072, 1021, 1023, 835, 839, 873, 830, 880, 824, 871, 1022, 919, 1084, 931, 932, 977, 900, 1013, 943, 886, 856, 861, 835, 892, 842, 860, 891, 874, 904, 938, 1033, 1060, 974, 954, 878, 831, 902, 853, 858, 833, 980, 903, 892, 965, 849, 843, 883, 888, 838, 862, 852, 848, 855, 928, 867, 855, 849, 973, 840, 887, 848, 994, 853, 827, 1236, 986, 821, 818, 863, 860, 917, 866, 907, 891, 952, 889, 846, 829, 832, 836, 915, 831, 948, 851, 807, 826, 1007, 938, 994, 881, 865, 886, 836, 885, 968, 818, 870, 854, 914, 951, 899, 902, 983, 897, 872, 860, 842, 878, 855, 897, 816, 875, 867, 1047, 956, 904, 816, 901, 872, 835, 968, 1017, 828, 859, 933, 817, 886, 985, 1022, 1000, 846, 1029, 979, 926, 1179, 984, 857, 978, 845, 955, 860, 831, 917, 961, 846, 1002, 960, 866, 996, 1040, 974, 950, 815, 985, 892, 840, 807, 842, 981, 1084, 1021, 968, 827, 998, 976, 883, 840, 960, 853, 816, 905, 870, 881, 926, 865, 1117, 885, 801, 824, 866, 839, 1002, 990, 894, 949, 1104, 942, 901, 918, 889, 828, 803, 884, 868, 831, 871, 896, 871, 814, 810, 896, 825, 897, 830, 845, 837, 870, 1026, 913, 1041, 911, 947, 881, 876, 931, 861, 925, 874, 833, 838, 829, 875, 1009, 924, 888, 843, 855, 906, 927, 1033, 910, 935, 903, 969, 937, 859, 840, 869, 851, 1071],
      "WindowCenter": [394.0, 392.0, 391.0, 391.0, 394.0, 392.0, 391.0, 393.0, 391.0, 390.0, 392.0, 392.0, 393.0, 391.0, 392.0, 391.0, 393.0, 392.0, 392.0, 392.0, 393.0, 392.0, 394.0, 392.0, 391.0, 393.0, 392.0, 390.0, 390.0, 390.0, 390.0, 391.0, 391.0, 392.0, 393.0, 392.0, 390.0, 390.0, 390.0, 390.0, 393.0, 393.0, 393.0, 391.0, 391.0, 391.0, 391.0, 391.0, 391.0, 392.0, 393.0, 392.0, 394.0, 392.0, 392.0, 393.0, 392.0, 393.0, 391.0, 391.0, 391.0, 391.0, 391.0, 392.0, 391.0, 391.0, 392.0, 392.0, 392.0, 393.0, 393.0, 393.0, 391.0, 391.0, 390.0, 390.0, 391.0, 391.0, 391.0, 391.0, 392.0, 391.0, 392.0, 392.0, 391.0, 391.0, 391.0, 391.0, 391.0, 391.0, 390.0, 391.0, 391.0, 392.0, 390.0, 391.0, 390.0, 392.0, 391.0, 392.0, 391.0, 393.0, 391.0, 391.0, 394.0, 392.0, 389.0, 389.0, 390.0, 391.0, 392.0, 391.0, 391.0, 391.0, 392.0, 390.0, 390.0, 390.0, 390.0, 390.0, 391.0, 391.0, 392.0, 390.0, 390.0, 390.0, 392.0, 392.0, 393.0, 392.0, 391.0, 392.0, 391.0, 391.0, 392.0, 391.0, 392.0, 393.0, 393.0, 393.0, 392.0, 391.0, 392.0, 391.0, 391.0, 391.0, 391.0, 391.0, 391.0, 392.0, 391.0, 391.0, 391.0, 393.0, 392.0, 392.0, 391.0, 392.0, 391.0, 391.0, 392.0, 393.0, 391.0, 391.0, 392.0, 391.0, 391.0, 393.0, 393.0, 393.0, 393.0, 395.0, 394.0, 393.0, 395.0, 392.0, 391.0, 392.0, 390.0, 391.0, 390.0, 391.0, 392.0, 393.0, 391.0, 393.0, 392.0, 390.0, 392.0, 393.0, 392.0, 392.0, 390.0, 391.0, 390.0, 391.0, 390.0, 391.0, 393.0, 394.0, 393.0, 393.0, 391.0, 394.0, 393.0, 392.0, 391.0, 392.0, 391.0, 391.0, 391.0, 391.0, 391.0, 391.0, 391.0, 393.0, 391.0, 390.0, 391.0, 391.0, 391.0, 393.0, 393.0, 392.0, 392.0, 394.0, 392.0, 391.0, 392.0, 391.0, 391.0, 390.0, 391.0, 391.0, 391.0, 391.0, 392.0, 392.0, 391.0, 391.0, 392.0, 391.0, 392.0, 391.0, 391.0, 391.0, 391.0, 393.0, 392.0, 393.0, 392.0, 392.0, 391.0, 391.0, 392.0, 391.0, 392.0, 391.0, 391.0, 391.0, 390.0, 391.0, 392.0, 392.0, 391.0, 391.0, 392.0, 392.0, 392.0, 393.0, 391.0, 392.0, 392.0, 392.0, 392.0, 391.0, 391.0, 391.0, 391.0, 393.0],
      "WindowWidth": [836.0, 832.0, 830.0, 829.0, 833.0, 831.0, 829.0, 832.0, 829.0, 829.0, 831.0, 831.0, 833.0, 830.0, 831.0, 830.0, 832.0, 831.0, 832.0, 831.0, 832.0, 831.0, 834.0, 831.0, 830.0, 832.0, 831.0, 828.0, 828.0, 827.0, 829.0, 829.0, 829.0, 831.0, 833.0, 832.0, 828.0, 828.0, 827.0, 828.0, 832.0, 832.0, 832.0, 829.0, 829.0, 829.0, 830.0, 830.0, 829.0, 831.0, 833.0, 832.0, 834.0, 832.0, 832.0, 832.0, 831.0, 832.0, 830.0, 829.0, 829.0, 829.0, 829.0, 830.0, 830.0, 830.0, 831.0, 832.0, 832.0, 833.0, 833.0, 832.0, 829.0, 829.0, 828.0, 829.0, 830.0, 830.0, 830.0, 830.0, 831.0, 830.0, 831.0, 831.0, 829.0, 829.0, 830.0, 830.0, 829.0, 829.0, 829.0, 829.0, 829.0, 831.0, 829.0, 829.0, 829.0, 831.0, 829.0, 831.0, 830.0, 832.0, 830.0, 830.0, 834.0, 830.0, 827.0, 827.0, 828.0, 829.0, 831.0, 830.0, 830.0, 830.0, 830.0, 829.0, 828.0, 828.0, 829.0, 828.0, 829.0, 829.0, 831.0, 829.0, 828.0, 828.0, 831.0, 831.0, 832.0, 831.0, 830.0, 831.0, 830.0, 830.0, 830.0, 829.0, 832.0, 832.0, 833.0, 833.0, 831.0, 830.0, 831.0, 830.0, 829.0, 830.0, 830.0, 830.0, 830.0, 831.0, 829.0, 830.0, 830.0, 832.0, 832.0, 831.0, 830.0, 831.0, 830.0, 829.0, 831.0, 832.0, 829.0, 830.0, 831.0, 829.0, 830.0, 832.0, 833.0, 833.0, 833.0, 836.0, 835.0, 833.0, 835.0, 832.0, 829.0, 830.0, 828.0, 830.0, 829.0, 830.0, 832.0, 833.0, 831.0, 833.0, 832.0, 829.0, 831.0, 832.0, 831.0, 830.0, 828.0, 830.0, 829.0, 829.0, 829.0, 830.0, 833.0, 834.0, 833.0, 833.0, 831.0, 834.0, 833.0, 831.0, 830.0, 832.0, 830.0, 830.0, 830.0, 830.0, 830.0, 830.0, 829.0, 832.0, 829.0, 828.0, 829.0, 829.0, 829.0, 832.0, 832.0, 831.0, 832.0, 834.0, 831.0, 830.0, 830.0, 830.0, 829.0, 828.0, 829.0, 830.0, 829.0, 830.0, 831.0, 831.0, 830.0, 830.0, 831.0, 829.0, 831.0, 829.0, 829.0, 829.0, 830.0, 832.0, 831.0, 833.0, 831.0, 831.0, 830.0, 830.0, 832.0, 830.0, 831.0, 830.0, 829.0, 829.0, 828.0, 830.0, 831.0, 831.0, 830.0, 830.0, 831.0, 831.0, 831.0, 832.0, 829.0, 831.0, 830.0, 831.0, 831.0, 829.0, 829.0, 829.0, 830.0, 833.0]
    },
    "slices": {}
  }
}