{
  "AcquisitionMatrixPE": 96,
  "AcquisitionNumber": 1,
  "AcquisitionTime": "18:10:54.382500",
  "BandwidthPerPixelPhaseEncode": 18.939,
  "BaseResolution": 96,
  "BodyPartExamined": "BRAIN",
  "ConsistencyInfo": "N4_VE11C_LATEST_20160120",
  "ConversionSoftware": "dcm2niix",
  "ConversionSoftwareVersion": "v1.0.20170923 (OpenJPEG build) GCC6.3.0",
  "DerivedVendorReportedEchoSpacing": 0.000550011,
  "DeviceSerialNumber": "66112",
  "DwellTime": 2.3e-06,
  "EchoTime": 0.033,
  "EchoTrainLength": 96,
  "EffectiveEchoSpacing": 0.000550011,
  "FlipAngle": 64,
  "ImageType": [
    "ORIGINAL",
    "PRIMARY",
    "FMRI",
    "NONE",
    "ND",
    "NORM",
    "MOSAIC"
],
  "InstitutionAddress": "Maynard_3_Hanover_NH_US_03755",
  "InstitutionName": "Dartmouth_College_-_PBS",
  "MagneticFieldStrength": 3,
  "Manufacturer": "Siemens",
  "ManufacturersModelName": "Prisma",
  "Modality": "MR",
  "MultibandAccelerationFactor": 4,
  "PartialFourier": 1,
  "PercentPhaseFOV": 100,
  "PhaseEncodingDirection": "j-",
  "PhaseEncodingSteps": 96,
  "PhaseResolution": 1,
  "ProcedureStepDescription": "Gobbini_Matteo_1017_famface-angles",
  "ProtocolName": "func_run-05_task-str1back",
  "PulseSequenceDetails": "%SiemensSeq%_ep2d_bold",
  "ReceiveCoilActiveElements": "HEP",
  "ReceiveCoilName": "Head_32",
  "ReconMatrixPE": 96,
  "RepetitionTime": 1.25,
  "ScanOptions": "FS",
  "ScanningSequence": "EP",
  "SequenceName": "_epfid2d1_96",
  "SequenceVariant": "SK",
  "SeriesDescription": "func_run-05_task-str1back",
  "SliceTiming": [0.8775, 0, 0.615, 0.0875, 0.7025, 0.175, 0.79, 0.35, 0.965, 0.44, 1.055, 0.5275, 1.1425, 0.2625, 0.8775, 0, 0.615, 0.0875, 0.7025, 0.175, 0.79, 0.35, 0.965, 0.44, 1.055, 0.5275, 1.1425, 0.2625, 0.8775, 0, 0.615, 0.0875, 0.7025, 0.175, 0.79, 0.35, 0.965, 0.44, 1.055, 0.5275, 1.1425, 0.2625, 0.8775, 0, 0.615, 0.0875, 0.7025, 0.175, 0.79, 0.35, 0.965, 0.44, 1.055, 0.5275, 1.1425, 0.2625],
  "SoftwareVersions": "syngo_MR_E11",
  "StationName": "AWP66112",
  "TaskName": "str1back",
  "TotalReadoutTime": 0.0522511,
  "dcmmeta_affine": [
    [-2.4971351623535156, -0.11776188015937805, -0.021169394254684448, 128.55369567871094],
    [-0.1165677085518837, 2.4941794872283936, -0.12442245334386826, -88.91621398925781],
    [-0.026980994269251823, 0.12329280376434326, 2.496812343597412, -87.3169937133789],
    [0.0, 0.0, 0.0, 1.0]
],
  "dcmmeta_reorient_transform": [
    [0.0, -1.0, 0.0, 95.0],
    [1.0, 0.0, 0.0, 0.0],
    [0.0, 0.0, 1.0, 0.0],
    [0.0, 0.0, 0.0, 1.0]
],
  "dcmmeta_shape": [96, 96, 56, 280],
  "dcmmeta_slice_dim": 2,
  "dcmmeta_version": 0.6,
  "global": {
    "const": {
      "AccessionNumber": "A000610",
      "AcquisitionMatrix": [96, 0, 0, 96],
      "AngioFlag": "N",
      "BitsAllocated": 16,
      "BitsStored": 12,
      "BodyPartExamined": "BRAIN",
      "Columns": 768,
      "EchoNumbers": 1,
      "EchoTime": 33.0,
      "EchoTrainLength": 96,
      "FlipAngle": 64.0,
      "HighBit": 11,
      "ImageOrientationPatient": [0.99885406308245, 0.04662708235353, -0.0107923980136, -0.0471047529395, 0.99767177153345, -0.0493171221365],
      "ImagePositionPatient": [-916.83573055001, -1025.2418655518, -25.112182433222],
      "ImageType": [
        "ORIGINAL",
        "PRIMARY",
        "FMRI",
        "NONE",
        "ND",
        "NORM",
        "MOSAIC"
],
      "ImagedNucleus": "1H",
      "ImagingFrequency": 123.252388,
      "InPlanePhaseEncodingDirection": "COL",
      "MRAcquisitionType": "2D",
      "MagneticFieldStrength": 3.0,
      "Manufacturer": "SIEMENS",
      "ManufacturerModelName": "Prisma",
      "Modality": "MR",
      "NumberOfAverages": 1.0,
      "NumberOfPhaseEncodingSteps": 96,
      "PercentPhaseFieldOfView": 100.0,
      "PercentSampling": 100.0,
      "PerformedProcedureStepStartTime": "172747.956000",
      "PhotometricInterpretation": "MONOCHROME2",
      "PixelBandwidth": 2265.0,
      "PixelRepresentation": 0,
      "PixelSpacing": [2.5, 2.5],
      "PositionReferenceIndicator": "",
      "ProtocolName": "func_run-05_task-str1back",
      "RepetitionTime": 1250.0,
      "Rows": 768,
      "SAR": 0.0471560695587,
      "SamplesPerPixel": 1,
      "ScanOptions": "FS",
      "ScanningSequence": "EP",
      "SequenceName": "*epfid2d1_96",
      "SequenceVariant": "SK",
      "SeriesDescription": "func_run-05_task-str1back",
      "SeriesNumber": 36,
      "SeriesTime": "181055.604000",
      "SliceLocation": -83.868946354438,
      "SliceThickness": 2.5,
      "SmallestImagePixelValue": 0,
      "SoftwareVersions": "syngo MR E11",
      "SpacingBetweenSlices": 2.5000000804829,
      "SpecificCharacterSet": "ISO_IR 100",
      "StudyID": "2",
      "StudyTime": "172747.909000",
      "TransmitCoilName": "Body",
      "VariableFlipAngleFlag": "N",
      "WindowCenterWidthExplanation": "Algo1",
      "dBdt": 0.0},
    "slices": {}
  },
  "time": {
    "samples": {
      "AcquisitionNumber": [1, 2, 3, 4, 5, 6, 7, 8, 9, 10, 11, 12, 13, 14, 15, 16, 17, 18, 19, 20, 21, 22, 23, 24, 25, 26, 27, 28, 29, 30, 31, 32, 33, 34, 35, 36, 37, 38, 39, 40, 41, 42, 43, 44, 45, 46, 47, 48, 49, 50, 51, 52, 53, 54, 55, 56, 57, 58, 59, 60, 61, 62, 63, 64, 65, 66, 67, 68, 69, 70, 71, 72, 73, 74, 75, 76, 77, 78, 79, 80, 81, 82, 83, 84, 85, 86, 87, 88, 89, 90, 91, 92, 93, 94, 95, 96, 97, 98, 99, 100, 101, 102, 103, 104, 105, 106, 107, 108, 109, 110, 111, 112, 113, 114, 115, 116, 117, 118, 119, 120, 121, 122, 123, 124, 125, 126, 127, 128, 129, 130, 131, 132, 133, 134, 135, 136, 137, 138, 139, 140, 141, 142, 143, 144, 145, 146, 147, 148, 149, 150, 151, 152, 153, 154, 155, 156, 157, 158, 159, 160, 161, 162, 163, 164, 165, 166, 167, 168, 169, 170, 171, 172, 173, 174, 175, 176, 177, 178, 179, 180, 181, 182, 183, 184, 185, 186, 187, 188, 189, 190, 191, 192, 193, 194, 195, 196, 197, 198, 199, 200, 201, 202, 203, 204, 205, 206, 207, 208, 209, 210, 211, 212, 213, 214, 215, 216, 217, 218, 219, 220, 221, 222, 223, 224, 225, 226, 227, 228, 229, 230, 231, 232, 233, 234, 235, 236, 237, 238, 239, 240, 241, 242, 243, 244, 245, 246, 247, 248, 249, 250, 251, 252, 253, 254, 255, 256, 257, 258, 259, 260, 261, 262, 263, 264, 265, 266, 267, 268, 269, 270, 271, 272, 273, 274, 275, 276, 277, 278, 279, 280],
      "AcquisitionTime": ["181054.382500", "181055.632500", "181056.882500", "181058.132500", "181059.382500", "181100.632500", "181101.882500", "181103.132500", "181104.382500", "181105.632500", "181106.882500", "181108.132500", "181109.382500", "181110.632500", "181111.882500", "181113.132500", "181114.382500", "181115.632500", "181116.882500", "181118.132500", "181119.382500", "181120.632500", "181121.882500", "181123.132500", "181124.382500", "181125.632500", "181126.882500", "181128.132500", "181129.382500", "181130.632500", "181131.882500", "181133.132500", "181134.382500", "181135.632500", "181136.882500", "181138.132500", "181139.382500", "181140.632500", "181141.882500", "181143.132500", "181144.382500", "181145.632500", "181146.882500", "181148.132500", "181149.382500", "181150.632500", "181151.882500", "181153.132500", "181154.382500", "181155.632500", "181156.882500", "181158.132500", "181159.382500", "181200.632500", "181201.882500", "181203.132500", "181204.382500", "181205.632500", "181206.882500", "181208.132500", "181209.382500", "181210.632500", "181211.882500", "181213.132500", "181214.382500", "181215.632500", "181216.882500", "181218.132500", "181219.382500", "181220.632500", "181221.882500", "181223.132500", "181224.382500", "181225.632500", "181226.882500", "181228.132500", "181229.382500", "181230.632500", "181231.882500", "181233.132500", "181234.382500", "181235.632500", "181236.882500", "181238.132500", "181239.382500", "181240.632500", "181241.882500", "181243.132500", "181244.382500", "181245.632500", "181246.882500", "181248.132500", "181249.382500", "181250.632500", "181251.882500", "181253.132500", "181254.382500", "181255.632500", "181256.882500", "181258.132500", "181259.382500", "181300.632500", "181301.882500", "181303.132500", "181304.382500", "181305.632500", "181306.882500", "181308.132500", "181309.382500", "181310.632500", "181311.882500", "181313.132500", "181314.382500", "181315.632500", "181316.882500", "181318.132500", "181319.382500", "181320.632500", "181321.882500", "181323.132500", "181324.382500", "181325.632500", "181326.882500", "181328.132500", "181329.382500", "181330.632500", "181331.882500", "181333.132500", "181334.382500", "181335.632500", "181336.882500", "181338.132500", "181339.382500", "181340.632500", "181341.882500", "181343.132500", "181344.382500", "181345.632500", "181346.882500", "181348.132500", "181349.382500", "181350.632500", "181351.882500", "181353.132500", "181354.382500", "181355.632500", "181356.882500", "181358.132500", "181359.382500", "181400.632500", "181401.882500", "181403.132500", "181404.382500", "181405.632500", "181406.882500", "181408.132500", "181409.382500", "181410.632500", "181411.882500", "181413.132500", "181414.382500", "181415.632500", "181416.882500", "181418.132500", "181419.382500", "181420.632500", "181421.882500", "181423.132500", "181424.382500", "181425.632500", "181426.882500", "181428.132500", "181429.382500", "181430.632500", "181431.882500", "181433.132500", "181434.382500", "181435.632500", "181436.882500", "181438.132500", "181439.382500", "181440.632500", "181441.882500", "181443.132500", "181444.382500", "181445.632500", "181446.882500", "181448.132500", "181449.382500", "181450.632500", "181451.882500", "181453.132500", "181454.382500", "181455.632500", "181456.882500", "181458.132500", "181459.382500", "181500.632500", "181501.882500", "181503.132500", "181504.382500", "181505.632500", "181506.882500", "181508.132500", "181509.382500", "181510.632500", "181511.882500", "181513.132500", "181514.382500", "181515.632500", "181516.882500", "181518.132500", "181519.382500", "181520.632500", "181521.882500", "181523.132500", "181524.382500", "181525.632500", "181526.882500", "181528.132500", "181529.382500", "181530.632500", "181531.882500", "181533.132500", "181534.382500", "181535.632500", "181536.882500", "181538.132500", "181539.382500", "181540.632500", "181541.882500", "181543.132500", "181544.382500", "181545.632500", "181546.882500", "181548.132500", "181549.382500", "181550.632500", "181551.882500", "181553.132500", "181554.382500", "181555.632500", "181556.882500", "181558.132500", "181559.382500", "181600.632500", "181601.882500", "181603.132500", "181604.382500", "181605.632500", "181606.882500", "181608.132500", "181609.382500", "181610.632500", "181611.882500", "181613.132500", "181614.382500", "181615.632500", "181616.882500", "181618.132500", "181619.382500", "181620.632500", "181621.882500", "181623.132500", "181624.382500", "181625.632500", "181626.882500", "181628.132500", "181629.382500", "181630.632500", "181631.882500", "181633.132500", "181634.382500", "181635.632500", "181636.882500", "181638.132500", "181639.382500", "181640.632500", "181641.882500", "181643.132500"],
      "ContentTime": ["181055.608000", "181056.740000", "181058.021000", "181059.255000", "181100.493000", "181101.776000", "181103.028000", "181104.265000", "181105.480000", "181106.748000", "181107.995000", "181109.247000", "181110.495000", "181111.743000", "181112.991000", "181114.243000", "181115.492000", "181116.755000", "181117.995000", "181119.272000", "181120.500000", "181121.734000", "181122.998000", "181124.235000", "181125.498000", "181126.760000", "181128.008000", "181129.259000", "181130.501000", "181131.766000", "181132.993000", "181134.280000", "181135.506000", "181136.770000", "181138.008000", "181139.240000", "181140.509000", "181141.755000", "181143.004000", "181144.236000", "181145.508000", "181146.758000", "181148.004000", "181149.253000", "181150.495000", "181151.755000", "181152.988000", "181154.244000", "181155.514000", "181156.776000", "181158.023000", "181159.262000", "181200.506000", "181201.756000", "181202.982000", "181204.264000", "181205.496000", "181206.749000", "181207.995000", "181209.251000", "181210.499000", "181211.735000", "181213.007000", "181214.251000", "181215.482000", "181216.750000", "181217.996000", "181219.246000", "181220.493000", "181221.762000", "181223.000000", "181224.249000", "181225.501000", "181226.787000", "181227.992000", "181229.232000", "181230.493000", "181231.738000", "181233.002000", "181234.234000", "181235.496000", "181236.733000", "181238.000000", "181239.250000", "181240.492000", "181241.758000", "181243.004000", "181244.249000", "181245.491000", "181246.757000", "181247.989000", "181249.262000", "181250.497000", "181251.746000", "181252.995000", "181254.247000", "181255.511000", "181256.776000", "181258.002000", "181259.228000", "181300.500000", "181301.780000", "181303.008000", "181304.320000", "181305.511000", "181306.773000", "181308.018000", "181309.270000", "181310.537000", "181311.805000", "181313.005000", "181314.258000", "181315.505000", "181316.742000", "181318.019000", "181319.273000", "181320.505000", "181321.744000", "181323.016000", "181324.265000", "181325.514000", "181326.756000", "181327.982000", "181329.280000", "181330.515000", "181331.777000", "181332.990000", "181334.258000", "181335.532000", "181336.774000", "181337.990000", "181339.278000", "181340.527000", "181341.784000", "181343.066000", "181344.257000", "181345.515000", "181346.769000", "181348.000000", "181349.248000", "181350.499000", "181351.779000", "181353.014000", "181354.235000", "181355.504000", "181356.748000", "181358.028000", "181359.266000", "181400.517000", "181401.739000", "181403.012000", "181404.274000", "181405.518000", "181406.763000", "181408.014000", "181409.239000", "181410.514000", "181411.758000", "181413.011000", "181414.265000", "181415.496000", "181416.735000", "181417.987000", "181419.234000", "181420.502000", "181421.782000", "181422.996000", "181424.256000", "181425.492000", "181426.753000", "181428.007000", "181429.254000", "181430.568000", "181431.762000", "181433.008000", "181434.263000", "181435.530000", "181436.733000", "181438.004000", "181439.281000", "181440.513000", "181441.764000", "181443.014000", "181444.234000", "181445.510000", "181446.769000", "181448.007000", "181449.241000", "181450.504000", "181451.781000", "181453.016000", "181454.252000", "181455.509000", "181456.761000", "181457.998000", "181459.258000", "181500.495000", "181501.757000", "181503.004000", "181504.258000", "181505.512000", "181506.761000", "181508.028000", "181509.264000", "181510.498000", "181511.759000", "181513.034000", "181514.239000", "181515.499000", "181516.753000", "181518.010000", "181519.243000", "181520.511000", "181521.752000", "181523.021000", "181524.267000", "181525.522000", "181526.747000", "181528.001000", "181529.301000", "181530.498000", "181531.750000", "181533.007000", "181534.270000", "181535.508000", "181536.767000", "181538.022000", "181539.259000", "181540.511000", "181541.753000", "181543.004000", "181544.260000", "181545.499000", "181546.767000", "181548.014000", "181549.255000", "181550.507000", "181551.762000", "181553.020000", "181554.255000", "181555.506000", "181556.746000", "181558.008000", "181559.265000", "181600.512000", "181601.764000", "181603.007000", "181604.259000", "181605.523000", "181606.772000", "181608.008000", "181609.273000", "181610.504000", "181611.741000", "181613.010000", "181614.258000", "181615.501000", "181616.733000", "181617.997000", "181619.253000", "181620.552000", "181621.771000", "181622.989000", "181624.227000", "181625.513000", "181626.755000", "181628.008000", "181629.269000", "181630.542000", "181631.761000", "181632.995000", "181634.248000", "181635.509000", "181636.762000", "181638.004000", "181639.231000", "181640.508000", "181641.739000", "181643.011000", "181644.294000"],
      "InstanceCreationTime": ["181055.608000", "181056.740000", "181058.021000", "181059.255000", "181100.493000", "181101.776000", "181103.028000", "181104.265000", "181105.480000", "181106.748000", "181107.995000", "181109.247000", "181110.495000", "181111.743000", "181112.991000", "181114.243000", "181115.492000", "181116.755000", "181117.995000", "181119.272000", "181120.500000", "181121.734000", "181122.998000", "181124.235000", "181125.498000", "181126.760000", "181128.008000", "181129.259000", "181130.501000", "181131.766000", "181132.993000", "181134.280000", "181135.506000", "181136.770000", "181138.008000", "181139.240000", "181140.509000", "181141.755000", "181143.004000", "181144.236000", "181145.508000", "181146.758000", "181148.004000", "181149.253000", "181150.495000", "181151.755000", "181152.988000", "181154.244000", "181155.514000", "181156.776000", "181158.023000", "181159.262000", "181200.506000", "181201.756000", "181202.982000", "181204.264000", "181205.496000", "181206.749000", "181207.995000", "181209.251000", "181210.499000", "181211.735000", "181213.007000", "181214.251000", "181215.482000", "181216.750000", "181217.996000", "181219.246000", "181220.493000", "181221.762000", "181223.000000", "181224.249000", "181225.501000", "181226.787000", "181227.992000", "181229.232000", "181230.493000", "181231.738000", "181233.002000", "181234.234000", "181235.496000", "181236.733000", "181238.000000", "181239.250000", "181240.492000", "181241.758000", "181243.004000", "181244.249000", "181245.491000", "181246.757000", "181247.989000", "181249.262000", "181250.497000", "181251.746000", "181252.995000", "181254.247000", "181255.511000", "181256.776000", "181258.002000", "181259.228000", "181300.500000", "181301.780000", "181303.008000", "181304.320000", "181305.511000", "181306.773000", "181308.018000", "181309.270000", "181310.537000", "181311.805000", "181313.005000", "181314.258000", "181315.505000", "181316.742000", "181318.019000", "181319.273000", "181320.505000", "181321.744000", "181323.016000", "181324.265000", "181325.514000", "181326.756000", "181327.982000", "181329.280000", "181330.515000", "181331.777000", "181332.990000", "181334.258000", "181335.532000", "181336.774000", "181337.990000", "181339.278000", "181340.527000", "181341.784000", "181343.066000", "181344.257000", "181345.515000", "181346.769000", "181348.000000", "181349.248000", "181350.499000", "181351.779000", "181353.014000", "181354.235000", "181355.504000", "181356.748000", "181358.028000", "181359.266000", "181400.517000", "181401.739000", "181403.012000", "181404.274000", "181405.518000", "181406.763000", "181408.014000", "181409.239000", "181410.514000", "181411.758000", "181413.011000", "181414.265000", "181415.496000", "181416.735000", "181417.987000", "181419.234000", "181420.502000", "181421.782000", "181422.996000", "181424.256000", "181425.492000", "181426.753000", "181428.007000", "181429.254000", "181430.568000", "181431.762000", "181433.008000", "181434.263000", "181435.530000", "181436.733000", "181438.004000", "181439.281000", "181440.513000", "181441.764000", "181443.014000", "181444.234000", "181445.510000", "181446.769000", "181448.007000", "181449.241000", "181450.504000", "181451.781000", "181453.016000", "181454.252000", "181455.509000", "181456.761000", "181457.998000", "181459.258000", "181500.495000", "181501.757000", "181503.004000", "181504.258000", "181505.512000", "181506.761000", "181508.028000", "181509.264000", "181510.498000", "181511.759000", "181513.034000", "181514.239000", "181515.499000", "181516.753000", "181518.010000", "181519.243000", "181520.511000", "181521.752000", "181523.021000", "181524.267000", "181525.522000", "181526.747000", "181528.001000", "181529.301000", "181530.498000", "181531.750000", "181533.007000", "181534.270000", "181535.508000", "181536.767000", "181538.022000", "181539.259000", "181540.511000", "181541.753000", "181543.004000", "181544.260000", "181545.499000", "181546.767000", "181548.014000", "181549.255000", "181550.507000", "181551.762000", "181553.020000", "181554.255000", "181555.506000", "181556.746000", "181558.008000", "181559.265000", "181600.512000", "181601.764000", "181603.007000", "181604.259000", "181605.523000", "181606.772000", "181608.008000", "181609.273000", "181610.504000", "181611.741000", "181613.010000", "181614.258000", "181615.501000", "181616.733000", "181617.997000", "181619.253000", "181620.552000", "181621.771000", "181622.989000", "181624.227000", "181625.513000", "181626.755000", "181628.008000", "181629.269000", "181630.542000", "181631.761000", "181632.995000", "181634.248000", "181635.509000", "181636.762000", "181638.004000", "181639.231000", "181640.508000", "181641.739000", "181643.011000", "181644.294000"],
      "InstanceNumber": [1, 2, 3, 4, 5, 6, 7, 8, 9, 10, 11, 12, 13, 14, 15, 16, 17, 18, 19, 20, 21, 22, 23, 24, 25, 26, 27, 28, 29, 30, 31, 32, 33, 34, 35, 36, 37, 38, 39, 40, 41, 42, 43, 44, 45, 46, 47, 48, 49, 50, 51, 52, 53, 54, 55, 56, 57, 58, 59, 60, 61, 62, 63, 64, 65, 66, 67, 68, 69, 70, 71, 72, 73, 74, 75, 76, 77, 78, 79, 80, 81, 82, 83, 84, 85, 86, 87, 88, 89, 90, 91, 92, 93, 94, 95, 96, 97, 98, 99, 100, 101, 102, 103, 104, 105, 106, 107, 108, 109, 110, 111, 112, 113, 114, 115, 116, 117, 118, 119, 120, 121, 122, 123, 124, 125, 126, 127, 128, 129, 130, 131, 132, 133, 134, 135, 136, 137, 138, 139, 140, 141, 142, 143, 144, 145, 146, 147, 148, 149, 150, 151, 152, 153, 154, 155, 156, 157, 158, 159, 160, 161, 162, 163, 164, 165, 166, 167, 168, 169, 170, 171, 172, 173, 174, 175, 176, 177, 178, 179, 180, 181, 182, 183, 184, 185, 186, 187, 188, 189, 190, 191, 192, 193, 194, 195, 196, 197, 198, 199, 200, 201, 202, 203, 204, 205, 206, 207, 208, 209, 210, 211, 212, 213, 214, 215, 216, 217, 218, 219, 220, 221, 222, 223, 224, 225, 226, 227, 228, 229, 230, 231, 232, 233, 234, 235, 236, 237, 238, 239, 240, 241, 242, 243, 244, 245, 246, 247, 248, 249, 250, 251, 252, 253, 254, 255, 256, 257, 258, 259, 260, 261, 262, 263, 264, 265, 266, 267, 268, 269, 270, 271, 272, 273, 274, 275, 276, 277, 278, 279, 280],
      "LargestImagePixelValue": [1083, 733, 712, 1037, 899, 1206, 943, 734, 743, 816, 900, 906, 752, 726, 727, 1154, 1187, 799, 722, 772, 907, 900, 861, 717, 719, 972, 1001, 969, 731, 721, 738, 911, 1244, 787, 715, 983, 773, 768, 1161, 746, 750, 748, 842, 1229, 789, 730, 718, 738, 1023, 890, 814, 729, 734, 754, 1189, 1091, 797, 745, 734, 880, 718, 720, 771, 734, 815, 1180, 1038, 744, 724, 730, 1013, 727, 731, 1055, 1135, 1128, 751, 738, 758, 725, 1041, 754, 718, 748, 995, 1011, 729, 730, 881, 815, 1178, 884, 738, 742, 752, 763, 753, 782, 728, 730, 734, 1134, 1049, 984, 754, 731, 752, 768, 848, 1085, 748, 722, 735, 1167, 1005, 759, 778, 1016, 1111, 850, 751, 761, 735, 755, 1019, 735, 731, 799, 803, 1106, 1003, 819, 753, 740, 747, 795, 971, 732, 727, 754, 758, 878, 1118, 800, 748, 725, 741, 837, 1067, 1184, 789, 734, 743, 1010, 1096, 749, 738, 740, 963, 950, 996, 749, 776, 773, 896, 942, 737, 958, 836, 1010, 966, 752, 739, 764, 815, 937, 1099, 759, 743, 730, 804, 783, 1118, 767, 748, 740, 1048, 1186, 1139, 814, 994, 763, 804, 735, 729, 802, 741, 748, 748, 842, 1088, 1063, 763, 743, 734, 766, 1027, 890, 745, 746, 825, 850, 1106, 815, 740, 748, 746, 748, 901, 775, 745, 743, 758, 833, 992, 739, 746, 814, 813, 873, 1037, 762, 749, 764, 765, 1054, 1038, 956, 758, 738, 777, 863, 1025, 861, 747, 756, 740, 919, 911, 742, 768, 771, 1088, 1058, 756, 755, 726, 1076, 986, 747, 736, 770, 1072, 763, 751, 758, 891, 1174, 758, 734, 864, 788, 1140, 754, 745, 736, 794, 1140, 747, 742],
      "WindowCenter": [348.0, 338.0, 337.0, 346.0, 342.0, 349.0, 343.0, 337.0, 336.0, 338.0, 341.0, 341.0, 337.0, 336.0, 336.0, 349.0, 349.0, 339.0, 336.0, 338.0, 341.0, 341.0, 341.0, 336.0, 336.0, 344.0, 344.0, 342.0, 337.0, 336.0, 337.0, 343.0, 350.0, 338.0, 336.0, 343.0, 337.0, 337.0, 348.0, 336.0, 337.0, 337.0, 340.0, 350.0, 337.0, 336.0, 335.0, 336.0, 344.0, 341.0, 338.0, 336.0, 337.0, 337.0, 348.0, 347.0, 338.0, 336.0, 336.0, 340.0, 335.0, 336.0, 338.0, 337.0, 340.0, 348.0, 345.0, 336.0, 335.0, 336.0, 345.0, 336.0, 337.0, 346.0, 347.0, 346.0, 336.0, 335.0, 336.0, 335.0, 345.0, 337.0, 336.0, 337.0, 344.0, 345.0, 336.0, 337.0, 341.0, 338.0, 348.0, 340.0, 335.0, 335.0, 336.0, 337.0, 337.0, 338.0, 336.0, 337.0, 337.0, 348.0, 346.0, 343.0, 337.0, 336.0, 337.0, 337.0, 340.0, 346.0, 337.0, 336.0, 337.0, 348.0, 344.0, 337.0, 337.0, 344.0, 346.0, 339.0, 336.0, 336.0, 336.0, 337.0, 345.0, 337.0, 337.0, 339.0, 339.0, 346.0, 344.0, 338.0, 337.0, 336.0, 336.0, 338.0, 343.0, 337.0, 336.0, 338.0, 338.0, 342.0, 349.0, 339.0, 337.0, 336.0, 337.0, 340.0, 346.0, 349.0, 338.0, 336.0, 336.0, 344.0, 346.0, 336.0, 336.0, 336.0, 343.0, 343.0, 343.0, 336.0, 338.0, 339.0, 342.0, 344.0, 337.0, 343.0, 339.0, 344.0, 343.0, 337.0, 336.0, 338.0, 339.0, 343.0, 347.0, 337.0, 337.0, 336.0, 339.0, 338.0, 347.0, 338.0, 338.0, 338.0, 347.0, 349.0, 347.0, 338.0, 343.0, 336.0, 337.0, 335.0, 335.0, 338.0, 336.0, 337.0, 337.0, 340.0, 346.0, 346.0, 337.0, 336.0, 336.0, 337.0, 344.0, 342.0, 336.0, 336.0, 338.0, 340.0, 347.0, 339.0, 336.0, 336.0, 337.0, 337.0, 342.0, 339.0, 338.0, 338.0, 338.0, 341.0, 346.0, 338.0, 339.0, 340.0, 341.0, 342.0, 346.0, 338.0, 338.0, 338.0, 339.0, 347.0, 346.0, 344.0, 338.0, 337.0, 338.0, 340.0, 345.0, 340.0, 336.0, 337.0, 337.0, 342.0, 343.0, 338.0, 338.0, 339.0, 347.0, 347.0, 338.0, 338.0, 337.0, 347.0, 345.0, 337.0, 338.0, 339.0, 347.0, 338.0, 338.0, 338.0, 342.0, 349.0, 338.0, 337.0, 341.0, 339.0, 348.0, 338.0, 337.0, 337.0, 339.0, 348.0, 337.0, 337.0],
      "WindowWidth": [751.0, 736.0, 734.0, 746.0, 740.0, 749.0, 741.0, 733.0, 731.0, 735.0, 739.0, 738.0, 733.0, 733.0, 733.0, 749.0, 749.0, 735.0, 731.0, 734.0, 739.0, 739.0, 739.0, 732.0, 732.0, 742.0, 743.0, 740.0, 733.0, 732.0, 733.0, 741.0, 751.0, 735.0, 732.0, 741.0, 733.0, 733.0, 747.0, 732.0, 734.0, 733.0, 737.0, 750.0, 733.0, 732.0, 731.0, 732.0, 743.0, 738.0, 735.0, 731.0, 733.0, 734.0, 748.0, 746.0, 734.0, 732.0, 731.0, 737.0, 731.0, 731.0, 735.0, 733.0, 737.0, 748.0, 743.0, 732.0, 731.0, 732.0, 744.0, 733.0, 733.0, 745.0, 746.0, 744.0, 731.0, 730.0, 732.0, 731.0, 743.0, 734.0, 732.0, 733.0, 743.0, 744.0, 733.0, 733.0, 738.0, 735.0, 747.0, 737.0, 731.0, 730.0, 731.0, 732.0, 733.0, 735.0, 733.0, 734.0, 733.0, 748.0, 744.0, 741.0, 733.0, 732.0, 733.0, 734.0, 737.0, 746.0, 733.0, 733.0, 734.0, 748.0, 743.0, 733.0, 734.0, 742.0, 745.0, 735.0, 731.0, 731.0, 731.0, 733.0, 743.0, 733.0, 733.0, 735.0, 735.0, 745.0, 742.0, 735.0, 733.0, 731.0, 732.0, 734.0, 741.0, 733.0, 733.0, 735.0, 735.0, 740.0, 749.0, 737.0, 734.0, 733.0, 734.0, 737.0, 746.0, 749.0, 734.0, 732.0, 732.0, 742.0, 745.0, 732.0, 731.0, 732.0, 740.0, 740.0, 741.0, 732.0, 735.0, 736.0, 741.0, 742.0, 734.0, 741.0, 736.0, 742.0, 740.0, 732.0, 732.0, 734.0, 736.0, 741.0, 746.0, 733.0, 733.0, 733.0, 736.0, 735.0, 747.0, 734.0, 735.0, 735.0, 747.0, 749.0, 747.0, 735.0, 740.0, 731.0, 732.0, 730.0, 730.0, 734.0, 732.0, 733.0, 733.0, 737.0, 746.0, 744.0, 733.0, 732.0, 732.0, 733.0, 742.0, 739.0, 732.0, 732.0, 735.0, 737.0, 745.0, 735.0, 732.0, 732.0, 733.0, 734.0, 741.0, 736.0, 735.0, 735.0, 736.0, 740.0, 746.0, 735.0, 736.0, 739.0, 739.0, 740.0, 746.0, 736.0, 735.0, 736.0, 737.0, 748.0, 746.0, 742.0, 734.0, 734.0, 735.0, 738.0, 744.0, 738.0, 732.0, 734.0, 734.0, 741.0, 742.0, 735.0, 736.0, 736.0, 747.0, 747.0, 735.0, 735.0, 733.0, 747.0, 744.0, 734.0, 735.0, 736.0, 747.0, 734.0, 734.0, 735.0, 740.0, 749.0, 734.0, 733.0, 739.0, 736.0, 748.0, 735.0, 734.0, 734.0, 736.0, 748.0, 734.0, 734.0]
    },
    "slices": {}
  }
}