{
  "AcquisitionMatrixPE": 96,
  "AcquisitionNumber": 1,
  "AcquisitionTime": "18:31:35.665000",
  "BandwidthPerPixelPhaseEncode": 18.939,
  "BaseResolution": 96,
  "BodyPartExamined": "BRAIN",
  "ConsistencyInfo": "N4_VE11C_LATEST_20160120",
  "ConversionSoftware": "dcm2niix",
  "ConversionSoftwareVersion": "v1.0.20170923 (OpenJPEG build) GCC6.3.0",
  "DerivedVendorReportedEchoSpacing": 0.000550011,
  "DeviceSerialNumber": "66112",
  "DwellTime": 2.3e-06,
  "EchoTime": 0.033,
  "EchoTrainLength": 96,
  "EffectiveEchoSpacing": 0.000550011,
  "FlipAngle": 64,
  "ImageType": [
    "ORIGINAL",
    "PRIMARY",
    "FMRI",
    "NONE",
    "ND",
    "NORM",
    "MOSAIC"
],
  "InstitutionAddress": "Maynard_3_Hanover_NH_US_03755",
  "InstitutionName": "Dartmouth_College_-_PBS",
  "MagneticFieldStrength": 3,
  "Manufacturer": "Siemens",
  "ManufacturersModelName": "Prisma",
  "Modality": "MR",
  "MultibandAccelerationFactor": 4,
  "PartialFourier": 1,
  "PercentPhaseFOV": 100,
  "PhaseEncodingDirection": "j-",
  "PhaseEncodingSteps": 96,
  "PhaseResolution": 1,
  "ProcedureStepDescription": "Gobbini_Matteo_1017_famface-angles",
  "ProtocolName": "func_run-08_task-str1back",
  "PulseSequenceDetails": "%SiemensSeq%_ep2d_bold",
  "ReceiveCoilActiveElements": "HEP",
  "ReceiveCoilName": "Head_32",
  "ReconMatrixPE": 96,
  "RepetitionTime": 1.25,
  "ScanOptions": "FS",
  "ScanningSequence": "EP",
  "SequenceName": "_epfid2d1_96",
  "SequenceVariant": "SK",
  "SeriesDescription": "func_run-08_task-str1back",
  "SliceTiming": [0.88, 0, 0.615, 0.09, 0.705, 0.1775, 0.7925, 0.3525, 0.9675, 0.44, 1.055, 0.5275, 1.1425, 0.265, 0.88, 0, 0.615, 0.09, 0.705, 0.1775, 0.7925, 0.3525, 0.9675, 0.44, 1.055, 0.5275, 1.1425, 0.265, 0.88, 0, 0.615, 0.09, 0.705, 0.1775, 0.7925, 0.3525, 0.9675, 0.44, 1.055, 0.5275, 1.1425, 0.265, 0.88, 0, 0.615, 0.09, 0.705, 0.1775, 0.7925, 0.3525, 0.9675, 0.44, 1.055, 0.5275, 1.1425, 0.265],
  "SoftwareVersions": "syngo_MR_E11",
  "StationName": "AWP66112",
  "TaskName": "str1back",
  "TotalReadoutTime": 0.0522511,
  "dcmmeta_affine": [
    [-2.4971351623535156, -0.11776188015937805, -0.021169394254684448, 128.55369567871094],
    [-0.1165677085518837, 2.4941794872283936, -0.12442245334386826, -88.91621398925781],
    [-0.026980994269251823, 0.12329280376434326, 2.496812343597412, -87.3169937133789],
    [0.0, 0.0, 0.0, 1.0]
],
  "dcmmeta_reorient_transform": [
    [0.0, -1.0, 0.0, 95.0],
    [1.0, 0.0, 0.0, 0.0],
    [0.0, 0.0, 1.0, 0.0],
    [0.0, 0.0, 0.0, 1.0]
],
  "dcmmeta_shape": [96, 96, 56, 280],
  "dcmmeta_slice_dim": 2,
  "dcmmeta_version": 0.6,
  "global": {
    "const": {
      "AccessionNumber": "A000610",
      "AcquisitionMatrix": [96, 0, 0, 96],
      "AngioFlag": "N",
      "BitsAllocated": 16,
      "BitsStored": 12,
      "BodyPartExamined": "BRAIN",
      "Columns": 768,
      "EchoNumbers": 1,
      "EchoTime": 33.0,
      "EchoTrainLength": 96,
      "FlipAngle": 64.0,
      "HighBit": 11,
      "ImageOrientationPatient": [0.99885406308245, 0.04662708235353, -0.0107923980136, -0.0471047529395, 0.99767177153345, -0.0493171221365],
      "ImagePositionPatient": [-916.83573055001, -1025.2418655518, -25.112182433222],
      "ImageType": [
        "ORIGINAL",
        "PRIMARY",
        "FMRI",
        "NONE",
        "ND",
        "NORM",
        "MOSAIC"
],
      "ImagedNucleus": "1H",
      "ImagingFrequency": 123.252391,
      "InPlanePhaseEncodingDirection": "COL",
      "MRAcquisitionType": "2D",
      "MagneticFieldStrength": 3.0,
      "Manufacturer": "SIEMENS",
      "ManufacturerModelName": "Prisma",
      "Modality": "MR",
      "NumberOfAverages": 1.0,
      "NumberOfPhaseEncodingSteps": 96,
      "PercentPhaseFieldOfView": 100.0,
      "PercentSampling": 100.0,
      "PerformedProcedureStepStartTime": "172747.956000",
      "PhotometricInterpretation": "MONOCHROME2",
      "PixelBandwidth": 2265.0,
      "PixelRepresentation": 0,
      "PixelSpacing": [2.5, 2.5],
      "PositionReferenceIndicator": "",
      "ProtocolName": "func_run-08_task-str1back",
      "RepetitionTime": 1250.0,
      "Rows": 768,
      "SAR": 0.0471560695587,
      "SamplesPerPixel": 1,
      "ScanOptions": "FS",
      "ScanningSequence": "EP",
      "SequenceName": "*epfid2d1_96",
      "SequenceVariant": "SK",
      "SeriesDescription": "func_run-08_task-str1back",
      "SeriesNumber": 57,
      "SeriesTime": "183137.416000",
      "SliceLocation": -83.868946354438,
      "SliceThickness": 2.5,
      "SmallestImagePixelValue": 0,
      "SoftwareVersions": "syngo MR E11",
      "SpacingBetweenSlices": 2.5000000804829,
      "SpecificCharacterSet": "ISO_IR 100",
      "StudyID": "2",
      "StudyTime": "172747.909000",
      "TransmitCoilName": "Body",
      "VariableFlipAngleFlag": "N",
      "WindowCenterWidthExplanation": "Algo1",
      "dBdt": 0.0},
    "slices": {}
  },
  "time": {
    "samples": {
      "AcquisitionNumber": [1, 2, 3, 4, 5, 6, 7, 8, 9, 10, 11, 12, 13, 14, 15, 16, 17, 18, 19, 20, 21, 22, 23, 24, 25, 26, 27, 28, 29, 30, 31, 32, 33, 34, 35, 36, 37, 38, 39, 40, 41, 42, 43, 44, 45, 46, 47, 48, 49, 50, 51, 52, 53, 54, 55, 56, 57, 58, 59, 60, 61, 62, 63, 64, 65, 66, 67, 68, 69, 70, 71, 72, 73, 74, 75, 76, 77, 78, 79, 80, 81, 82, 83, 84, 85, 86, 87, 88, 89, 90, 91, 92, 93, 94, 95, 96, 97, 98, 99, 100, 101, 102, 103, 104, 105, 106, 107, 108, 109, 110, 111, 112, 113, 114, 115, 116, 117, 118, 119, 120, 121, 122, 123, 124, 125, 126, 127, 128, 129, 130, 131, 132, 133, 134, 135, 136, 137, 138, 139, 140, 141, 142, 143, 144, 145, 146, 147, 148, 149, 150, 151, 152, 153, 154, 155, 156, 157, 158, 159, 160, 161, 162, 163, 164, 165, 166, 167, 168, 169, 170, 171, 172, 173, 174, 175, 176, 177, 178, 179, 180, 181, 182, 183, 184, 185, 186, 187, 188, 189, 190, 191, 192, 193, 194, 195, 196, 197, 198, 199, 200, 201, 202, 203, 204, 205, 206, 207, 208, 209, 210, 211, 212, 213, 214, 215, 216, 217, 218, 219, 220, 221, 222, 223, 224, 225, 226, 227, 228, 229, 230, 231, 232, 233, 234, 235, 236, 237, 238, 239, 240, 241, 242, 243, 244, 245, 246, 247, 248, 249, 250, 251, 252, 253, 254, 255, 256, 257, 258, 259, 260, 261, 262, 263, 264, 265, 266, 267, 268, 269, 270, 271, 272, 273, 274, 275, 276, 277, 278, 279, 280],
      "AcquisitionTime": ["183135.665000", "183136.915000", "183138.165000", "183139.415000", "183140.665000", "183141.915000", "183143.165000", "183144.415000", "183145.665000", "183146.915000", "183148.165000", "183149.415000", "183150.665000", "183151.915000", "183153.165000", "183154.415000", "183155.665000", "183156.915000", "183158.165000", "183159.415000", "183200.665000", "183201.915000", "183203.165000", "183204.415000", "183205.665000", "183206.915000", "183208.165000", "183209.415000", "183210.665000", "183211.915000", "183213.165000", "183214.415000", "183215.665000", "183216.915000", "183218.165000", "183219.415000", "183220.665000", "183221.915000", "183223.165000", "183224.415000", "183225.665000", "183226.915000", "183228.165000", "183229.415000", "183230.665000", "183231.915000", "183233.165000", "183234.415000", "183235.665000", "183236.915000", "183238.165000", "183239.415000", "183240.665000", "183241.915000", "183243.165000", "183244.415000", "183245.665000", "183246.915000", "183248.165000", "183249.415000", "183250.665000", "183251.915000", "183253.165000", "183254.415000", "183255.665000", "183256.915000", "183258.165000", "183259.415000", "183300.665000", "183301.915000", "183303.165000", "183304.415000", "183305.665000", "183306.915000", "183308.165000", "183309.415000", "183310.665000", "183311.915000", "183313.165000", "183314.415000", "183315.665000", "183316.915000", "183318.165000", "183319.415000", "183320.665000", "183321.915000", "183323.165000", "183324.415000", "183325.665000", "183326.915000", "183328.165000", "183329.415000", "183330.665000", "183331.915000", "183333.165000", "183334.415000", "183335.665000", "183336.915000", "183338.165000", "183339.415000", "183340.665000", "183341.915000", "183343.165000", "183344.415000", "183345.665000", "183346.915000", "183348.165000", "183349.415000", "183350.665000", "183351.915000", "183353.165000", "183354.415000", "183355.665000", "183356.915000", "183358.165000", "183359.415000", "183400.665000", "183401.915000", "183403.165000", "183404.415000", "183405.665000", "183406.915000", "183408.165000", "183409.415000", "183410.665000", "183411.915000", "183413.165000", "183414.415000", "183415.665000", "183416.915000", "183418.165000", "183419.415000", "183420.665000", "183421.915000", "183423.165000", "183424.415000", "183425.665000", "183426.915000", "183428.165000", "183429.415000", "183430.665000", "183431.915000", "183433.165000", "183434.415000", "183435.665000", "183436.915000", "183438.165000", "183439.415000", "183440.665000", "183441.915000", "183443.165000", "183444.415000", "183445.665000", "183446.915000", "183448.165000", "183449.415000", "183450.665000", "183451.915000", "183453.165000", "183454.415000", "183455.665000", "183456.915000", "183458.165000", "183459.415000", "183500.665000", "183501.915000", "183503.165000", "183504.415000", "183505.665000", "183506.915000", "183508.165000", "183509.415000", "183510.665000", "183511.915000", "183513.165000", "183514.415000", "183515.665000", "183516.915000", "183518.165000", "183519.415000", "183520.665000", "183521.915000", "183523.165000", "183524.415000", "183525.665000", "183526.915000", "183528.165000", "183529.415000", "183530.665000", "183531.915000", "183533.165000", "183534.415000", "183535.665000", "183536.915000", "183538.165000", "183539.415000", "183540.665000", "183541.915000", "183543.165000", "183544.415000", "183545.665000", "183546.915000", "183548.165000", "183549.415000", "183550.665000", "183551.915000", "183553.165000", "183554.415000", "183555.665000", "183556.915000", "183558.165000", "183559.415000", "183600.665000", "183601.915000", "183603.165000", "183604.415000", "183605.665000", "183606.915000", "183608.165000", "183609.415000", "183610.665000", "183611.915000", "183613.165000", "183614.415000", "183615.665000", "183616.915000", "183618.165000", "183619.415000", "183620.665000", "183621.915000", "183623.165000", "183624.415000", "183625.665000", "183626.915000", "183628.165000", "183629.415000", "183630.665000", "183631.915000", "183633.165000", "183634.415000", "183635.665000", "183636.915000", "183638.165000", "183639.415000", "183640.665000", "183641.915000", "183643.165000", "183644.415000", "183645.665000", "183646.915000", "183648.165000", "183649.415000", "183650.665000", "183651.915000", "183653.165000", "183654.415000", "183655.665000", "183656.915000", "183658.165000", "183659.415000", "183700.665000", "183701.915000", "183703.165000", "183704.415000", "183705.665000", "183706.915000", "183708.165000", "183709.415000", "183710.665000", "183711.915000", "183713.165000", "183714.415000", "183715.665000", "183716.915000", "183718.165000", "183719.415000", "183720.665000", "183721.915000", "183723.165000", "183724.415000"],
      "ContentTime": ["183137.420000", "183138.567000", "183139.836000", "183141.063000", "183142.306000", "183143.595000", "183144.872000", "183146.076000", "183147.329000", "183148.554000", "183149.812000", "183151.057000", "183152.330000", "183153.556000", "183154.815000", "183156.064000", "183157.315000", "183158.600000", "183159.805000", "183201.053000", "183202.380000", "183203.567000", "183204.830000", "183206.073000", "183207.309000", "183208.574000", "183209.832000", "183211.047000", "183212.297000", "183213.574000", "183214.823000", "183216.045000", "183217.332000", "183218.580000", "183219.805000", "183221.060000", "183222.315000", "183223.562000", "183224.802000", "183226.088000", "183227.313000", "183228.551000", "183229.812000", "183231.059000", "183232.305000", "183233.555000", "183234.787000", "183236.076000", "183237.315000", "183238.546000", "183239.822000", "183241.084000", "183242.311000", "183243.568000", "183244.801000", "183246.062000", "183247.298000", "183248.565000", "183249.815000", "183251.058000", "183252.306000", "183253.547000", "183254.817000", "183256.077000", "183257.317000", "183258.568000", "183259.810000", "183301.047000", "183302.327000", "183303.580000", "183304.810000", "183306.058000", "183307.306000", "183308.573000", "183309.835000", "183311.059000", "183312.309000", "183313.546000", "183314.819000", "183316.039000", "183317.313000", "183318.591000", "183319.825000", "183321.085000", "183322.319000", "183323.568000", "183324.822000", "183326.062000", "183327.315000", "183328.558000", "183329.807000", "183331.058000", "183332.301000", "183333.544000", "183334.822000", "183336.067000", "183337.299000", "183338.598000", "183339.843000", "183341.067000", "183342.331000", "183343.603000", "183344.822000", "183346.063000", "183347.308000", "183348.568000", "183349.835000", "183351.076000", "183352.328000", "183353.600000", "183354.841000", "183356.081000", "183357.321000", "183358.607000", "183359.825000", "183401.084000", "183402.323000", "183403.578000", "183404.838000", "183406.101000", "183407.318000", "183408.620000", "183409.824000", "183411.062000", "183412.320000", "183413.558000", "183414.817000", "183416.091000", "183417.299000", "183418.575000", "183419.837000", "183421.060000", "183422.329000", "183423.599000", "183424.871000", "183426.091000", "183427.356000", "183428.602000", "183429.811000", "183431.068000", "183432.326000", "183433.584000", "183434.827000", "183436.091000", "183437.341000", "183438.578000", "183439.848000", "183441.069000", "183442.335000", "183443.552000", "183444.925000", "183446.077000", "183447.324000", "183448.583000", "183449.815000", "183451.063000", "183452.311000", "183453.568000", "183454.816000", "183456.068000", "183457.317000", "183458.571000", "183459.868000", "183501.094000", "183502.320000", "183503.570000", "183504.859000", "183506.061000", "183507.310000", "183508.567000", "183509.796000", "183511.076000", "183512.313000", "183513.576000", "183514.810000", "183516.070000", "183517.319000", "183518.566000", "183519.872000", "183521.062000", "183522.322000", "183523.585000", "183524.844000", "183526.083000", "183527.321000", "183528.585000", "183529.834000", "183531.066000", "183532.312000", "183533.560000", "183534.859000", "183536.059000", "183537.332000", "183538.588000", "183539.859000", "183541.084000", "183542.324000", "183543.583000", "183544.820000", "183546.068000", "183547.343000", "183548.564000", "183549.838000", "183551.073000", "183552.287000", "183553.574000", "183554.826000", "183556.072000", "183557.314000", "183558.585000", "183559.824000", "183601.070000", "183602.334000", "183603.574000", "183604.838000", "183606.064000", "183607.323000", "183608.586000", "183609.830000", "183611.088000", "183612.307000", "183613.569000", "183614.819000", "183616.061000", "183617.350000", "183618.556000", "183619.837000", "183621.084000", "183622.300000", "183623.579000", "183624.834000", "183626.068000", "183627.317000", "183628.568000", "183629.828000", "183631.103000", "183632.309000", "183633.570000", "183634.827000", "183636.040000", "183637.328000", "183638.588000", "183639.850000", "183641.070000", "183642.311000", "183643.570000", "183644.799000", "183646.068000", "183647.333000", "183648.566000", "183649.825000", "183651.092000", "183652.304000", "183653.576000", "183654.816000", "183656.067000", "183657.309000", "183658.566000", "183659.802000", "183701.054000", "183702.340000", "183703.584000", "183704.807000", "183706.083000", "183707.332000", "183708.581000", "183709.826000", "183711.113000", "183712.317000", "183713.569000", "183714.821000", "183716.073000", "183717.339000", "183718.613000", "183719.815000", "183721.087000", "183722.346000", "183723.580000", "183724.803000", "183726.105000"],
      "InstanceCreationTime": ["183137.420000", "183138.567000", "183139.836000", "183141.063000", "183142.306000", "183143.595000", "183144.872000", "183146.076000", "183147.329000", "183148.554000", "183149.812000", "183151.057000", "183152.330000", "183153.556000", "183154.815000", "183156.064000", "183157.315000", "183158.600000", "183159.805000", "183201.053000", "183202.380000", "183203.567000", "183204.830000", "183206.073000", "183207.309000", "183208.574000", "183209.832000", "183211.047000", "183212.297000", "183213.574000", "183214.823000", "183216.045000", "183217.332000", "183218.580000", "183219.805000", "183221.060000", "183222.315000", "183223.562000", "183224.802000", "183226.088000", "183227.313000", "183228.551000", "183229.812000", "183231.059000", "183232.305000", "183233.555000", "183234.787000", "183236.076000", "183237.315000", "183238.546000", "183239.822000", "183241.084000", "183242.311000", "183243.568000", "183244.801000", "183246.062000", "183247.298000", "183248.565000", "183249.815000", "183251.058000", "183252.306000", "183253.547000", "183254.817000", "183256.077000", "183257.317000", "183258.568000", "183259.810000", "183301.047000", "183302.327000", "183303.580000", "183304.810000", "183306.058000", "183307.306000", "183308.573000", "183309.835000", "183311.059000", "183312.309000", "183313.546000", "183314.819000", "183316.039000", "183317.313000", "183318.591000", "183319.825000", "183321.085000", "183322.319000", "183323.568000", "183324.822000", "183326.062000", "183327.315000", "183328.558000", "183329.807000", "183331.058000", "183332.301000", "183333.544000", "183334.822000", "183336.067000", "183337.299000", "183338.598000", "183339.843000", "183341.067000", "183342.331000", "183343.603000", "183344.822000", "183346.063000", "183347.308000", "183348.568000", "183349.835000", "183351.076000", "183352.328000", "183353.600000", "183354.841000", "183356.081000", "183357.321000", "183358.607000", "183359.825000", "183401.084000", "183402.323000", "183403.578000", "183404.838000", "183406.101000", "183407.318000", "183408.620000", "183409.824000", "183411.062000", "183412.320000", "183413.558000", "183414.817000", "183416.091000", "183417.299000", "183418.575000", "183419.837000", "183421.060000", "183422.329000", "183423.599000", "183424.871000", "183426.091000", "183427.356000", "183428.602000", "183429.811000", "183431.068000", "183432.326000", "183433.584000", "183434.827000", "183436.091000", "183437.341000", "183438.578000", "183439.848000", "183441.069000", "183442.335000", "183443.552000", "183444.925000", "183446.077000", "183447.324000", "183448.583000", "183449.815000", "183451.063000", "183452.311000", "183453.568000", "183454.816000", "183456.068000", "183457.317000", "183458.571000", "183459.868000", "183501.094000", "183502.320000", "183503.570000", "183504.859000", "183506.061000", "183507.310000", "183508.567000", "183509.796000", "183511.076000", "183512.313000", "183513.576000", "183514.810000", "183516.070000", "183517.319000", "183518.566000", "183519.872000", "183521.062000", "183522.322000", "183523.585000", "183524.844000", "183526.083000", "183527.321000", "183528.585000", "183529.834000", "183531.066000", "183532.312000", "183533.560000", "183534.859000", "183536.059000", "183537.332000", "183538.588000", "183539.859000", "183541.084000", "183542.324000", "183543.583000", "183544.820000", "183546.068000", "183547.343000", "183548.564000", "183549.838000", "183551.073000", "183552.287000", "183553.574000", "183554.826000", "183556.072000", "183557.314000", "183558.585000", "183559.824000", "183601.070000", "183602.334000", "183603.574000", "183604.838000", "183606.064000", "183607.323000", "183608.586000", "183609.830000", "183611.088000", "183612.307000", "183613.569000", "183614.819000", "183616.061000", "183617.350000", "183618.556000", "183619.837000", "183621.084000", "183622.300000", "183623.579000", "183624.834000", "183626.068000", "183627.317000", "183628.568000", "183629.828000", "183631.103000", "183632.309000", "183633.570000", "183634.827000", "183636.040000", "183637.328000", "183638.588000", "183639.850000", "183641.070000", "183642.311000", "183643.570000", "183644.799000", "183646.068000", "183647.333000", "183648.566000", "183649.825000", "183651.092000", "183652.304000", "183653.576000", "183654.816000", "183656.067000", "183657.309000", "183658.566000", "183659.802000", "183701.054000", "183702.340000", "183703.584000", "183704.807000", "183706.083000", "183707.332000", "183708.581000", "183709.826000", "183711.113000", "183712.317000", "183713.569000", "183714.821000", "183716.073000", "183717.339000", "183718.613000", "183719.815000", "183721.087000", "183722.346000", "183723.580000", "183724.803000", "183726.105000"],
      "InstanceNumber": [1, 2, 3, 4, 5, 6, 7, 8, 9, 10, 11, 12, 13, 14, 15, 16, 17, 18, 19, 20, 21, 22, 23, 24, 25, 26, 27, 28, 29, 30, 31, 32, 33, 34, 35, 36, 37, 38, 39, 40, 41, 42, 43, 44, 45, 46, 47, 48, 49, 50, 51, 52, 53, 54, 55, 56, 57, 58, 59, 60, 61, 62, 63, 64, 65, 66, 67, 68, 69, 70, 71, 72, 73, 74, 75, 76, 77, 78, 79, 80, 81, 82, 83, 84, 85, 86, 87, 88, 89, 90, 91, 92, 93, 94, 95, 96, 97, 98, 99, 100, 101, 102, 103, 104, 105, 106, 107, 108, 109, 110, 111, 112, 113, 114, 115, 116, 117, 118, 119, 120, 121, 122, 123, 124, 125, 126, 127, 128, 129, 130, 131, 132, 133, 134, 135, 136, 137, 138, 139, 140, 141, 142, 143, 144, 145, 146, 147, 148, 149, 150, 151, 152, 153, 154, 155, 156, 157, 158, 159, 160, 161, 162, 163, 164, 165, 166, 167, 168, 169, 170, 171, 172, 173, 174, 175, 176, 177, 178, 179, 180, 181, 182, 183, 184, 185, 186, 187, 188, 189, 190, 191, 192, 193, 194, 195, 196, 197, 198, 199, 200, 201, 202, 203, 204, 205, 206, 207, 208, 209, 210, 211, 212, 213, 214, 215, 216, 217, 218, 219, 220, 221, 222, 223, 224, 225, 226, 227, 228, 229, 230, 231, 232, 233, 234, 235, 236, 237, 238, 239, 240, 241, 242, 243, 244, 245, 246, 247, 248, 249, 250, 251, 252, 253, 254, 255, 256, 257, 258, 259, 260, 261, 262, 263, 264, 265, 266, 267, 268, 269, 270, 271, 272, 273, 274, 275, 276, 277, 278, 279, 280],
      "LargestImagePixelValue": [835, 771, 954, 853, 1024, 773, 749, 771, 773, 873, 980, 763, 746, 747, 790, 1003, 918, 764, 761, 756, 938, 890, 748, 758, 744, 842, 817, 956, 757, 753, 799, 848, 984, 755, 751, 760, 901, 906, 800, 787, 889, 884, 964, 762, 741, 815, 831, 965, 763, 752, 813, 910, 762, 750, 844, 873, 1093, 936, 761, 743, 739, 903, 833, 744, 749, 760, 933, 981, 784, 747, 958, 846, 1012, 766, 790, 809, 846, 853, 835, 760, 753, 765, 852, 869, 756, 740, 797, 853, 1066, 918, 757, 751, 737, 879, 861, 760, 753, 816, 1005, 842, 833, 764, 749, 888, 868, 797, 763, 750, 874, 835, 809, 754, 747, 950, 929, 928, 769, 754, 838, 801, 919, 750, 751, 848, 1019, 889, 769, 759, 858, 905, 848, 745, 750, 864, 856, 761, 751, 813, 1044, 763, 763, 771, 954, 989, 759, 742, 748, 876, 980, 893, 753, 751, 781, 806, 923, 836, 745, 742, 753, 1037, 991, 767, 763, 740, 967, 847, 740, 744, 771, 1014, 796, 755, 746, 829, 939, 859, 756, 739, 818, 822, 762, 757, 801, 991, 839, 880, 840, 895, 954, 843, 742, 752, 790, 787, 990, 753, 760, 773, 790, 1002, 842, 758, 796, 763, 909, 964, 760, 740, 754, 811, 940, 752, 752, 747, 791, 957, 902, 759, 760, 752, 864, 866, 756, 746, 865, 825, 962, 873, 749, 755, 755, 879, 814, 924, 759, 752, 827, 835, 1022, 752, 752, 760, 831, 1019, 777, 743, 785, 770, 1024, 811, 766, 798, 807, 1032, 776, 752, 780, 949, 881, 970, 761, 761, 759, 806, 986, 752, 752, 757, 831, 1035, 908, 758, 751, 755, 996, 984, 765, 757, 751, 916],
      "WindowCenter": [341.0, 338.0, 343.0, 339.0, 344.0, 336.0, 335.0, 337.0, 337.0, 339.0, 342.0, 336.0, 335.0, 336.0, 337.0, 343.0, 341.0, 336.0, 336.0, 336.0, 341.0, 341.0, 335.0, 336.0, 335.0, 338.0, 338.0, 342.0, 337.0, 337.0, 338.0, 338.0, 343.0, 336.0, 336.0, 337.0, 341.0, 342.0, 338.0, 337.0, 340.0, 340.0, 342.0, 336.0, 336.0, 338.0, 339.0, 343.0, 337.0, 337.0, 339.0, 342.0, 337.0, 337.0, 339.0, 340.0, 346.0, 341.0, 335.0, 335.0, 335.0, 340.0, 338.0, 336.0, 336.0, 337.0, 343.0, 344.0, 338.0, 336.0, 342.0, 339.0, 344.0, 336.0, 337.0, 337.0, 338.0, 339.0, 338.0, 336.0, 336.0, 336.0, 339.0, 340.0, 337.0, 336.0, 338.0, 340.0, 345.0, 341.0, 336.0, 336.0, 335.0, 340.0, 340.0, 337.0, 337.0, 339.0, 343.0, 338.0, 338.0, 336.0, 335.0, 340.0, 339.0, 337.0, 336.0, 336.0, 339.0, 338.0, 337.0, 337.0, 336.0, 342.0, 341.0, 341.0, 336.0, 336.0, 338.0, 337.0, 341.0, 336.0, 337.0, 339.0, 344.0, 340.0, 336.0, 336.0, 339.0, 341.0, 339.0, 336.0, 337.0, 340.0, 340.0, 337.0, 338.0, 339.0, 345.0, 337.0, 337.0, 337.0, 342.0, 343.0, 336.0, 335.0, 335.0, 340.0, 342.0, 340.0, 336.0, 336.0, 337.0, 337.0, 341.0, 339.0, 336.0, 336.0, 337.0, 344.0, 343.0, 336.0, 336.0, 336.0, 342.0, 339.0, 336.0, 336.0, 337.0, 344.0, 338.0, 336.0, 336.0, 338.0, 341.0, 339.0, 336.0, 336.0, 338.0, 339.0, 337.0, 338.0, 339.0, 345.0, 340.0, 340.0, 339.0, 340.0, 342.0, 338.0, 335.0, 336.0, 337.0, 337.0, 343.0, 336.0, 336.0, 337.0, 337.0, 343.0, 338.0, 336.0, 337.0, 336.0, 340.0, 342.0, 336.0, 335.0, 336.0, 339.0, 342.0, 336.0, 336.0, 336.0, 337.0, 343.0, 340.0, 336.0, 336.0, 336.0, 340.0, 340.0, 337.0, 336.0, 340.0, 338.0, 342.0, 340.0, 335.0, 336.0, 336.0, 340.0, 338.0, 341.0, 336.0, 336.0, 338.0, 339.0, 344.0, 336.0, 336.0, 336.0, 339.0, 344.0, 337.0, 335.0, 337.0, 337.0, 344.0, 338.0, 336.0, 337.0, 338.0, 344.0, 337.0, 336.0, 337.0, 341.0, 340.0, 342.0, 336.0, 336.0, 336.0, 337.0, 343.0, 337.0, 336.0, 337.0, 339.0, 344.0, 340.0, 336.0, 336.0, 336.0, 343.0, 343.0, 336.0, 336.0, 336.0, 341.0],
      "WindowWidth": [742.0, 735.0, 741.0, 735.0, 741.0, 731.0, 730.0, 732.0, 732.0, 735.0, 740.0, 731.0, 731.0, 731.0, 733.0, 741.0, 738.0, 731.0, 731.0, 731.0, 738.0, 738.0, 731.0, 732.0, 731.0, 735.0, 734.0, 739.0, 733.0, 732.0, 734.0, 735.0, 740.0, 732.0, 732.0, 733.0, 738.0, 739.0, 735.0, 734.0, 736.0, 736.0, 739.0, 732.0, 731.0, 735.0, 736.0, 740.0, 733.0, 733.0, 735.0, 740.0, 733.0, 733.0, 736.0, 737.0, 744.0, 738.0, 730.0, 729.0, 730.0, 736.0, 734.0, 732.0, 732.0, 733.0, 741.0, 743.0, 734.0, 732.0, 739.0, 736.0, 741.0, 732.0, 733.0, 733.0, 734.0, 735.0, 734.0, 731.0, 731.0, 731.0, 736.0, 736.0, 733.0, 732.0, 735.0, 737.0, 743.0, 738.0, 731.0, 731.0, 731.0, 737.0, 737.0, 733.0, 733.0, 735.0, 741.0, 735.0, 734.0, 732.0, 731.0, 736.0, 735.0, 733.0, 731.0, 731.0, 736.0, 735.0, 733.0, 733.0, 731.0, 739.0, 738.0, 738.0, 732.0, 731.0, 735.0, 733.0, 738.0, 732.0, 733.0, 736.0, 743.0, 737.0, 732.0, 732.0, 735.0, 738.0, 736.0, 731.0, 733.0, 737.0, 737.0, 734.0, 734.0, 737.0, 744.0, 733.0, 733.0, 734.0, 739.0, 740.0, 731.0, 731.0, 731.0, 736.0, 740.0, 736.0, 731.0, 731.0, 732.0, 733.0, 738.0, 736.0, 731.0, 732.0, 733.0, 742.0, 741.0, 731.0, 731.0, 731.0, 739.0, 736.0, 731.0, 731.0, 733.0, 743.0, 734.0, 732.0, 731.0, 734.0, 739.0, 735.0, 732.0, 731.0, 734.0, 735.0, 733.0, 734.0, 736.0, 744.0, 737.0, 738.0, 735.0, 737.0, 739.0, 734.0, 730.0, 731.0, 733.0, 733.0, 741.0, 732.0, 732.0, 732.0, 733.0, 741.0, 735.0, 731.0, 733.0, 731.0, 736.0, 739.0, 732.0, 731.0, 732.0, 735.0, 739.0, 732.0, 732.0, 731.0, 733.0, 740.0, 737.0, 732.0, 732.0, 732.0, 737.0, 737.0, 733.0, 733.0, 737.0, 734.0, 739.0, 736.0, 730.0, 731.0, 731.0, 736.0, 734.0, 738.0, 732.0, 732.0, 734.0, 735.0, 742.0, 732.0, 732.0, 732.0, 736.0, 742.0, 733.0, 731.0, 732.0, 733.0, 742.0, 734.0, 732.0, 733.0, 734.0, 742.0, 732.0, 732.0, 732.0, 739.0, 736.0, 739.0, 732.0, 731.0, 732.0, 733.0, 740.0, 733.0, 732.0, 733.0, 736.0, 743.0, 737.0, 731.0, 731.0, 732.0, 741.0, 740.0, 732.0, 732.0, 732.0, 738.0]
    },
    "slices": {}
  }
}