{
  "AcquisitionMatrixPE": 96,
  "AcquisitionNumber": 1,
  "AcquisitionTime": "17:51:33.817500",
  "BandwidthPerPixelPhaseEncode": 18.939,
  "BaseResolution": 96,
  "BodyPartExamined": "BRAIN",
  "ConsistencyInfo": "N4_VE11C_LATEST_20160120",
  "ConversionSoftware": "dcm2niix",
  "ConversionSoftwareVersion": "v1.0.20170923 (OpenJPEG build) GCC6.3.0",
  "DerivedVendorReportedEchoSpacing": 0.000550011,
  "DeviceSerialNumber": "66112",
  "DwellTime": 2.3e-06,
  "EchoTime": 0.033,
  "EchoTrainLength": 96,
  "EffectiveEchoSpacing": 0.000550011,
  "FlipAngle": 64,
  "ImageType": [
    "ORIGINAL",
    "PRIMARY",
    "FMRI",
    "NONE",
    "ND",
    "NORM",
    "MOSAIC"
],
  "InstitutionAddress": "Maynard_3_Hanover_NH_US_03755",
  "InstitutionName": "Dartmouth_College_-_PBS",
  "MagneticFieldStrength": 3,
  "Manufacturer": "Siemens",
  "ManufacturersModelName": "Prisma",
  "Modality": "MR",
  "MultibandAccelerationFactor": 4,
  "PartialFourier": 1,
  "PercentPhaseFOV": 100,
  "PhaseEncodingDirection": "j-",
  "PhaseEncodingSteps": 96,
  "PhaseResolution": 1,
  "ProcedureStepDescription": "Gobbini_Matteo_1017_famface-angles",
  "ProtocolName": "func_run-02_task-fam1back",
  "PulseSequenceDetails": "%SiemensSeq%_ep2d_bold",
  "ReceiveCoilActiveElements": "HEP",
  "ReceiveCoilName": "Head_32",
  "ReconMatrixPE": 96,
  "RepetitionTime": 1.25,
  "ScanOptions": "FS",
  "ScanningSequence": "EP",
  "SequenceName": "_epfid2d1_96",
  "SequenceVariant": "SK",
  "SeriesDescription": "func_run-02_task-fam1back",
  "SliceTiming": [0.88, 0, 0.615, 0.0875, 0.7025, 0.1775, 0.7925, 0.3525, 0.9675, 0.44, 1.055, 0.5275, 1.1425, 0.265, 0.88, 0, 0.615, 0.0875, 0.7025, 0.1775, 0.7925, 0.3525, 0.9675, 0.44, 1.055, 0.5275, 1.1425, 0.265, 0.88, 0, 0.615, 0.0875, 0.7025, 0.1775, 0.7925, 0.3525, 0.9675, 0.44, 1.055, 0.5275, 1.1425, 0.265, 0.88, 0, 0.615, 0.0875, 0.7025, 0.1775, 0.7925, 0.3525, 0.9675, 0.44, 1.055, 0.5275, 1.1425, 0.265],
  "SoftwareVersions": "syngo_MR_E11",
  "StationName": "AWP66112",
  "TaskName": "fam1back",
  "TotalReadoutTime": 0.0522511,
  "dcmmeta_affine": [
    [-2.4971351623535156, -0.11776188015937805, -0.021169394254684448, 128.55369567871094],
    [-0.1165677085518837, 2.4941794872283936, -0.12442245334386826, -88.91621398925781],
    [-0.026980994269251823, 0.12329280376434326, 2.496812343597412, -87.3169937133789],
    [0.0, 0.0, 0.0, 1.0]
],
  "dcmmeta_reorient_transform": [
    [0.0, -1.0, 0.0, 95.0],
    [1.0, 0.0, 0.0, 0.0],
    [0.0, 0.0, 1.0, 0.0],
    [0.0, 0.0, 0.0, 1.0]
],
  "dcmmeta_shape": [96, 96, 56, 280],
  "dcmmeta_slice_dim": 2,
  "dcmmeta_version": 0.6,
  "global": {
    "const": {
      "AccessionNumber": "A000610",
      "AcquisitionMatrix": [96, 0, 0, 96],
      "AngioFlag": "N",
      "BitsAllocated": 16,
      "BitsStored": 12,
      "BodyPartExamined": "BRAIN",
      "Columns": 768,
      "EchoNumbers": 1,
      "EchoTime": 33.0,
      "EchoTrainLength": 96,
      "FlipAngle": 64.0,
      "HighBit": 11,
      "ImageOrientationPatient": [0.99885406308245, 0.04662708235353, -0.0107923980136, -0.0471047529395, 0.99767177153345, -0.0493171221365],
      "ImagePositionPatient": [-916.83573055001, -1025.2418655518, -25.112182433222],
      "ImageType": [
        "ORIGINAL",
        "PRIMARY",
        "FMRI",
        "NONE",
        "ND",
        "NORM",
        "MOSAIC"
],
      "ImagedNucleus": "1H",
      "ImagingFrequency": 123.252381,
      "InPlanePhaseEncodingDirection": "COL",
      "MRAcquisitionType": "2D",
      "MagneticFieldStrength": 3.0,
      "Manufacturer": "SIEMENS",
      "ManufacturerModelName": "Prisma",
      "Modality": "MR",
      "NumberOfAverages": 1.0,
      "NumberOfPhaseEncodingSteps": 96,
      "PercentPhaseFieldOfView": 100.0,
      "PercentSampling": 100.0,
      "PerformedProcedureStepStartTime": "172747.956000",
      "PhotometricInterpretation": "MONOCHROME2",
      "PixelBandwidth": 2265.0,
      "PixelRepresentation": 0,
      "PixelSpacing": [2.5, 2.5],
      "PositionReferenceIndicator": "",
      "ProtocolName": "func_run-02_task-fam1back",
      "RepetitionTime": 1250.0,
      "Rows": 768,
      "SAR": 0.0471560695587,
      "SamplesPerPixel": 1,
      "ScanOptions": "FS",
      "ScanningSequence": "EP",
      "SequenceName": "*epfid2d1_96",
      "SequenceVariant": "SK",
      "SeriesDescription": "func_run-02_task-fam1back",
      "SeriesNumber": 15,
      "SeriesTime": "175134.684000",
      "SliceLocation": -83.868946354438,
      "SliceThickness": 2.5,
      "SmallestImagePixelValue": 0,
      "SoftwareVersions": "syngo MR E11",
      "SpacingBetweenSlices": 2.5000000804829,
      "SpecificCharacterSet": "ISO_IR 100",
      "StudyID": "2",
      "StudyTime": "172747.909000",
      "TransmitCoilName": "Body",
      "VariableFlipAngleFlag": "N",
      "WindowCenterWidthExplanation": "Algo1",
      "dBdt": 0.0},
    "slices": {}
  },
  "time": {
    "samples": {
      "AcquisitionNumber": [1, 2, 3, 4, 5, 6, 7, 8, 9, 10, 11, 12, 13, 14, 15, 16, 17, 18, 19, 20, 21, 22, 23, 24, 25, 26, 27, 28, 29, 30, 31, 32, 33, 34, 35, 36, 37, 38, 39, 40, 41, 42, 43, 44, 45, 46, 47, 48, 49, 50, 51, 52, 53, 54, 55, 56, 57, 58, 59, 60, 61, 62, 63, 64, 65, 66, 67, 68, 69, 70, 71, 72, 73, 74, 75, 76, 77, 78, 79, 80, 81, 82, 83, 84, 85, 86, 87, 88, 89, 90, 91, 92, 93, 94, 95, 96, 97, 98, 99, 100, 101, 102, 103, 104, 105, 106, 107, 108, 109, 110, 111, 112, 113, 114, 115, 116, 117, 118, 119, 120, 121, 122, 123, 124, 125, 126, 127, 128, 129, 130, 131, 132, 133, 134, 135, 136, 137, 138, 139, 140, 141, 142, 143, 144, 145, 146, 147, 148, 149, 150, 151, 152, 153, 154, 155, 156, 157, 158, 159, 160, 161, 162, 163, 164, 165, 166, 167, 168, 169, 170, 171, 172, 173, 174, 175, 176, 177, 178, 179, 180, 181, 182, 183, 184, 185, 186, 187, 188, 189, 190, 191, 192, 193, 194, 195, 196, 197, 198, 199, 200, 201, 202, 203, 204, 205, 206, 207, 208, 209, 210, 211, 212, 213, 214, 215, 216, 217, 218, 219, 220, 221, 222, 223, 224, 225, 226, 227, 228, 229, 230, 231, 232, 233, 234, 235, 236, 237, 238, 239, 240, 241, 242, 243, 244, 245, 246, 247, 248, 249, 250, 251, 252, 253, 254, 255, 256, 257, 258, 259, 260, 261, 262, 263, 264, 265, 266, 267, 268, 269, 270, 271, 272, 273, 274, 275, 276, 277, 278, 279, 280],
      "AcquisitionTime": ["175133.817500", "175135.067500", "175136.317500", "175137.567500", "175138.817500", "175140.067500", "175141.317500", "175142.567500", "175143.817500", "175145.067500", "175146.317500", "175147.567500", "175148.817500", "175150.067500", "175151.317500", "175152.567500", "175153.817500", "175155.067500", "175156.317500", "175157.567500", "175158.817500", "175200.067500", "175201.317500", "175202.567500", "175203.817500", "175205.067500", "175206.317500", "175207.567500", "175208.817500", "175210.067500", "175211.317500", "175212.567500", "175213.817500", "175215.067500", "175216.317500", "175217.567500", "175218.817500", "175220.067500", "175221.317500", "175222.567500", "175223.817500", "175225.067500", "175226.317500", "175227.567500", "175228.817500", "175230.067500", "175231.317500", "175232.567500", "175233.817500", "175235.067500", "175236.317500", "175237.567500", "175238.817500", "175240.067500", "175241.317500", "175242.567500", "175243.817500", "175245.067500", "175246.317500", "175247.567500", "175248.817500", "175250.067500", "175251.317500", "175252.567500", "175253.817500", "175255.067500", "175256.317500", "175257.567500", "175258.817500", "175300.067500", "175301.317500", "175302.567500", "175303.817500", "175305.067500", "175306.317500", "175307.567500", "175308.817500", "175310.067500", "175311.317500", "175312.567500", "175313.817500", "175315.067500", "175316.317500", "175317.567500", "175318.817500", "175320.067500", "175321.317500", "175322.567500", "175323.817500", "175325.067500", "175326.317500", "175327.567500", "175328.817500", "175330.067500", "175331.317500", "175332.567500", "175333.817500", "175335.067500", "175336.317500", "175337.567500", "175338.817500", "175340.067500", "175341.317500", "175342.567500", "175343.817500", "175345.067500", "175346.317500", "175347.567500", "175348.817500", "175350.067500", "175351.317500", "175352.567500", "175353.817500", "175355.067500", "175356.317500", "175357.567500", "175358.817500", "175400.067500", "175401.317500", "175402.567500", "175403.817500", "175405.067500", "175406.317500", "175407.567500", "175408.817500", "175410.067500", "175411.317500", "175412.567500", "175413.817500", "175415.067500", "175416.317500", "175417.567500", "175418.817500", "175420.067500", "175421.317500", "175422.567500", "175423.817500", "175425.067500", "175426.317500", "175427.567500", "175428.817500", "175430.067500", "175431.317500", "175432.567500", "175433.817500", "175435.067500", "175436.317500", "175437.567500", "175438.817500", "175440.067500", "175441.317500", "175442.567500", "175443.817500", "175445.067500", "175446.317500", "175447.567500", "175448.817500", "175450.067500", "175451.317500", "175452.567500", "175453.817500", "175455.067500", "175456.317500", "175457.567500", "175458.817500", "175500.067500", "175501.317500", "175502.567500", "175503.817500", "175505.067500", "175506.317500", "175507.567500", "175508.817500", "175510.067500", "175511.317500", "175512.567500", "175513.817500", "175515.067500", "175516.317500", "175517.567500", "175518.817500", "175520.067500", "175521.317500", "175522.567500", "175523.817500", "175525.067500", "175526.317500", "175527.567500", "175528.817500", "175530.067500", "175531.317500", "175532.567500", "175533.817500", "175535.067500", "175536.317500", "175537.567500", "175538.817500", "175540.067500", "175541.317500", "175542.567500", "175543.817500", "175545.067500", "175546.317500", "175547.567500", "175548.817500", "175550.067500", "175551.317500", "175552.567500", "175553.817500", "175555.067500", "175556.317500", "175557.567500", "175558.817500", "175600.067500", "175601.317500", "175602.567500", "175603.817500", "175605.067500", "175606.317500", "175607.567500", "175608.817500", "175610.067500", "175611.317500", "175612.567500", "175613.817500", "175615.067500", "175616.317500", "175617.567500", "175618.817500", "175620.067500", "175621.317500", "175622.567500", "175623.817500", "175625.067500", "175626.317500", "175627.567500", "175628.817500", "175630.067500", "175631.317500", "175632.567500", "175633.817500", "175635.067500", "175636.317500", "175637.567500", "175638.817500", "175640.067500", "175641.317500", "175642.567500", "175643.817500", "175645.067500", "175646.317500", "175647.567500", "175648.817500", "175650.067500", "175651.317500", "175652.567500", "175653.817500", "175655.067500", "175656.317500", "175657.567500", "175658.817500", "175700.067500", "175701.317500", "175702.567500", "175703.817500", "175705.067500", "175706.317500", "175707.567500", "175708.817500", "175710.067500", "175711.317500", "175712.567500", "175713.817500", "175715.067500", "175716.317500", "175717.567500", "175718.817500", "175720.067500", "175721.317500", "175722.567500"],
      "ContentTime": ["175134.688000", "175135.798000", "175137.072000", "175138.341000", "175139.596000", "175140.838000", "175142.099000", "175143.324000", "175144.613000", "175145.838000", "175147.066000", "175148.327000", "175149.573000", "175150.827000", "175152.107000", "175153.320000", "175154.561000", "175155.837000", "175157.097000", "175158.343000", "175159.605000", "175200.842000", "175202.095000", "175203.339000", "175204.597000", "175205.894000", "175207.065000", "175208.334000", "175209.580000", "175210.833000", "175212.091000", "175213.339000", "175214.573000", "175215.851000", "175217.145000", "175218.321000", "175219.589000", "175220.839000", "175222.071000", "175223.342000", "175224.604000", "175225.827000", "175227.073000", "175228.342000", "175229.583000", "175230.834000", "175232.079000", "175233.340000", "175234.581000", "175235.833000", "175237.079000", "175238.338000", "175239.574000", "175240.824000", "175242.087000", "175243.350000", "175244.594000", "175245.837000", "175247.086000", "175248.311000", "175249.571000", "175250.847000", "175252.084000", "175253.343000", "175254.605000", "175255.834000", "175257.064000", "175258.313000", "175259.589000", "175300.843000", "175302.100000", "175303.334000", "175304.595000", "175305.840000", "175307.078000", "175308.322000", "175309.575000", "175310.825000", "175312.079000", "175313.338000", "175314.596000", "175315.832000", "175317.074000", "175318.336000", "175319.580000", "175320.897000", "175322.078000", "175323.344000", "175324.584000", "175325.825000", "175327.090000", "175328.361000", "175329.581000", "175330.844000", "175332.068000", "175333.353000", "175334.601000", "175335.848000", "175337.072000", "175338.337000", "175339.597000", "175340.834000", "175342.102000", "175343.347000", "175344.579000", "175345.835000", "175347.093000", "175348.346000", "175349.591000", "175350.839000", "175352.093000", "175353.334000", "175354.596000", "175355.846000", "175357.089000", "175358.350000", "175359.576000", "175400.837000", "175402.107000", "175403.338000", "175404.601000", "175405.840000", "175407.099000", "175408.348000", "175409.588000", "175410.848000", "175412.096000", "175413.373000", "175414.644000", "175415.841000", "175417.101000", "175418.340000", "175419.589000", "175420.847000", "175422.096000", "175423.358000", "175424.594000", "175425.832000", "175427.089000", "175428.334000", "175429.611000", "175430.849000", "175432.085000", "175433.342000", "175434.577000", "175435.854000", "175437.096000", "175438.359000", "175439.578000", "175440.849000", "175442.114000", "175443.320000", "175444.580000", "175445.838000", "175447.114000", "175448.340000", "175449.609000", "175450.836000", "175452.083000", "175453.347000", "175454.576000", "175455.866000", "175457.100000", "175458.336000", "175459.591000", "175500.868000", "175502.084000", "175503.330000", "175504.579000", "175505.816000", "175507.105000", "175508.333000", "175509.569000", "175510.864000", "175512.090000", "175513.351000", "175514.590000", "175515.844000", "175517.098000", "175518.326000", "175519.605000", "175520.891000", "175522.107000", "175523.320000", "175524.581000", "175525.856000", "175527.096000", "175528.337000", "175529.602000", "175530.830000", "175532.096000", "175533.340000", "175534.574000", "175535.840000", "175537.094000", "175538.337000", "175539.631000", "175540.890000", "175542.117000", "175543.354000", "175544.590000", "175545.846000", "175547.105000", "175548.344000", "175549.593000", "175550.829000", "175552.137000", "175553.335000", "175554.597000", "175555.862000", "175557.090000", "175558.361000", "175559.599000", "175600.837000", "175602.104000", "175603.343000", "175604.593000", "175605.855000", "175607.075000", "175608.324000", "175609.601000", "175610.852000", "175612.090000", "175613.329000", "175614.609000", "175615.831000", "175617.102000", "175618.340000", "175619.592000", "175620.830000", "175622.081000", "175623.353000", "175624.606000", "175625.861000", "175627.085000", "175628.336000", "175629.577000", "175630.862000", "175632.098000", "175633.334000", "175634.597000", "175635.898000", "175637.103000", "175638.342000", "175639.602000", "175640.838000", "175642.096000", "175643.351000", "175644.580000", "175645.841000", "175647.077000", "175648.340000", "175649.593000", "175650.831000", "175652.082000", "175653.335000", "175654.591000", "175655.840000", "175657.062000", "175658.331000", "175659.600000", "175700.825000", "175702.098000", "175703.333000", "175704.583000", "175705.838000", "175707.096000", "175708.341000", "175709.610000", "175710.842000", "175712.077000", "175713.330000", "175714.590000", "175715.832000", "175717.089000", "175718.374000", "175719.601000", "175720.880000", "175722.102000", "175723.370000"],
      "InstanceCreationTime": ["175134.688000", "175135.798000", "175137.072000", "175138.341000", "175139.596000", "175140.838000", "175142.099000", "175143.324000", "175144.613000", "175145.838000", "175147.066000", "175148.327000", "175149.573000", "175150.827000", "175152.107000", "175153.320000", "175154.561000", "175155.837000", "175157.097000", "175158.343000", "175159.605000", "175200.842000", "175202.095000", "175203.339000", "175204.597000", "175205.894000", "175207.065000", "175208.334000", "175209.580000", "175210.833000", "175212.091000", "175213.339000", "175214.573000", "175215.851000", "175217.145000", "175218.321000", "175219.589000", "175220.839000", "175222.071000", "175223.342000", "175224.604000", "175225.827000", "175227.073000", "175228.342000", "175229.583000", "175230.834000", "175232.079000", "175233.340000", "175234.581000", "175235.833000", "175237.079000", "175238.338000", "175239.574000", "175240.824000", "175242.087000", "175243.350000", "175244.594000", "175245.837000", "175247.086000", "175248.311000", "175249.571000", "175250.847000", "175252.084000", "175253.343000", "175254.605000", "175255.834000", "175257.064000", "175258.313000", "175259.589000", "175300.843000", "175302.100000", "175303.334000", "175304.595000", "175305.840000", "175307.078000", "175308.322000", "175309.575000", "175310.825000", "175312.079000", "175313.338000", "175314.596000", "175315.832000", "175317.074000", "175318.336000", "175319.580000", "175320.897000", "175322.078000", "175323.344000", "175324.584000", "175325.825000", "175327.090000", "175328.361000", "175329.581000", "175330.844000", "175332.068000", "175333.353000", "175334.601000", "175335.848000", "175337.072000", "175338.337000", "175339.597000", "175340.834000", "175342.102000", "175343.347000", "175344.579000", "175345.835000", "175347.093000", "175348.346000", "175349.591000", "175350.839000", "175352.093000", "175353.334000", "175354.596000", "175355.846000", "175357.089000", "175358.350000", "175359.576000", "175400.837000", "175402.107000", "175403.338000", "175404.601000", "175405.840000", "175407.099000", "175408.348000", "175409.588000", "175410.848000", "175412.096000", "175413.373000", "175414.644000", "175415.841000", "175417.101000", "175418.340000", "175419.589000", "175420.847000", "175422.096000", "175423.358000", "175424.594000", "175425.832000", "175427.089000", "175428.334000", "175429.611000", "175430.849000", "175432.085000", "175433.342000", "175434.577000", "175435.854000", "175437.096000", "175438.359000", "175439.578000", "175440.849000", "175442.114000", "175443.320000", "175444.580000", "175445.838000", "175447.114000", "175448.340000", "175449.609000", "175450.836000", "175452.083000", "175453.347000", "175454.576000", "175455.866000", "175457.100000", "175458.336000", "175459.591000", "175500.868000", "175502.084000", "175503.330000", "175504.579000", "175505.816000", "175507.105000", "175508.333000", "175509.569000", "175510.864000", "175512.090000", "175513.351000", "175514.590000", "175515.844000", "175517.098000", "175518.326000", "175519.605000", "175520.891000", "175522.107000", "175523.320000", "175524.581000", "175525.856000", "175527.096000", "175528.337000", "175529.602000", "175530.830000", "175532.096000", "175533.340000", "175534.574000", "175535.840000", "175537.094000", "175538.337000", "175539.631000", "175540.890000", "175542.117000", "175543.354000", "175544.590000", "175545.846000", "175547.105000", "175548.344000", "175549.593000", "175550.829000", "175552.137000", "175553.335000", "175554.597000", "175555.862000", "175557.090000", "175558.361000", "175559.599000", "175600.837000", "175602.104000", "175603.343000", "175604.593000", "175605.855000", "175607.075000", "175608.324000", "175609.601000", "175610.852000", "175612.090000", "175613.329000", "175614.609000", "175615.831000", "175617.102000", "175618.340000", "175619.592000", "175620.830000", "175622.081000", "175623.353000", "175624.606000", "175625.861000", "175627.085000", "175628.336000", "175629.577000", "175630.862000", "175632.098000", "175633.334000", "175634.597000", "175635.898000", "175637.103000", "175638.342000", "175639.602000", "175640.838000", "175642.096000", "175643.351000", "175644.580000", "175645.841000", "175647.077000", "175648.340000", "175649.593000", "175650.831000", "175652.082000", "175653.335000", "175654.591000", "175655.840000", "175657.062000", "175658.331000", "175659.600000", "175700.825000", "175702.098000", "175703.333000", "175704.583000", "175705.838000", "175707.096000", "175708.341000", "175709.610000", "175710.842000", "175712.077000", "175713.330000", "175714.590000", "175715.832000", "175717.089000", "175718.374000", "175719.601000", "175720.880000", "175722.102000", "175723.370000"],
      "InstanceNumber": [1, 2, 3, 4, 5, 6, 7, 8, 9, 10, 11, 12, 13, 14, 15, 16, 17, 18, 19, 20, 21, 22, 23, 24, 25, 26, 27, 28, 29, 30, 31, 32, 33, 34, 35, 36, 37, 38, 39, 40, 41, 42, 43, 44, 45, 46, 47, 48, 49, 50, 51, 52, 53, 54, 55, 56, 57, 58, 59, 60, 61, 62, 63, 64, 65, 66, 67, 68, 69, 70, 71, 72, 73, 74, 75, 76, 77, 78, 79, 80, 81, 82, 83, 84, 85, 86, 87, 88, 89, 90, 91, 92, 93, 94, 95, 96, 97, 98, 99, 100, 101, 102, 103, 104, 105, 106, 107, 108, 109, 110, 111, 112, 113, 114, 115, 116, 117, 118, 119, 120, 121, 122, 123, 124, 125, 126, 127, 128, 129, 130, 131, 132, 133, 134, 135, 136, 137, 138, 139, 140, 141, 142, 143, 144, 145, 146, 147, 148, 149, 150, 151, 152, 153, 154, 155, 156, 157, 158, 159, 160, 161, 162, 163, 164, 165, 166, 167, 168, 169, 170, 171, 172, 173, 174, 175, 176, 177, 178, 179, 180, 181, 182, 183, 184, 185, 186, 187, 188, 189, 190, 191, 192, 193, 194, 195, 196, 197, 198, 199, 200, 201, 202, 203, 204, 205, 206, 207, 208, 209, 210, 211, 212, 213, 214, 215, 216, 217, 218, 219, 220, 221, 222, 223, 224, 225, 226, 227, 228, 229, 230, 231, 232, 233, 234, 235, 236, 237, 238, 239, 240, 241, 242, 243, 244, 245, 246, 247, 248, 249, 250, 251, 252, 253, 254, 255, 256, 257, 258, 259, 260, 261, 262, 263, 264, 265, 266, 267, 268, 269, 270, 271, 272, 273, 274, 275, 276, 277, 278, 279, 280],
      "LargestImagePixelValue": [1339, 869, 808, 775, 1200, 726, 714, 1135, 860, 917, 800, 1312, 804, 740, 746, 1210, 715, 721, 952, 1235, 837, 715, 711, 804, 980, 713, 776, 941, 1199, 747, 717, 861, 1272, 766, 707, 815, 991, 1243, 731, 712, 707, 929, 1120, 783, 706, 740, 1215, 774, 709, 727, 1188, 801, 740, 719, 1174, 1190, 868, 769, 817, 1168, 800, 731, 718, 833, 1189, 706, 706, 763, 1266, 739, 747, 744, 1060, 1212, 781, 709, 735, 821, 1078, 785, 744, 702, 1215, 783, 733, 787, 1270, 805, 833, 917, 1327, 833, 726, 1044, 924, 1039, 750, 710, 841, 1066, 712, 712, 1100, 1225, 828, 772, 1048, 1132, 771, 727, 849, 1018, 1256, 712, 710, 732, 1080, 1072, 790, 715, 746, 827, 1028, 1033, 754, 713, 741, 766, 1003, 821, 718, 743, 929, 1266, 803, 728, 1030, 1140, 777, 744, 744, 1093, 1116, 720, 709, 836, 1268, 781, 744, 757, 1263, 722, 733, 1161, 845, 752, 720, 1266, 765, 825, 779, 1296, 739, 721, 1027, 1034, 1041, 713, 744, 743, 986, 1060, 783, 709, 739, 1021, 850, 717, 723, 720, 1213, 1195, 798, 727, 761, 886, 931, 713, 733, 1054, 1128, 855, 707, 739, 746, 1045, 740, 719, 751, 935, 1227, 850, 729, 726, 1039, 1137, 768, 725, 773, 803, 1166, 964, 723, 725, 761, 1089, 960, 735, 771, 1097, 1011, 849, 718, 730, 1072, 1153, 820, 735, 719, 1182, 1015, 733, 766, 848, 1235, 771, 733, 740, 1111, 903, 717, 754, 899, 1289, 769, 734, 980, 1022, 1023, 723, 733, 835, 1194, 741, 730, 736, 809, 1253, 818, 704, 756, 771, 1102, 961, 733, 733, 783, 1004, 1184, 741, 728, 735, 775, 1142, 1095, 774, 727, 728, 967, 989],
      "WindowCenter": [354.0, 341.0, 338.0, 338.0, 348.0, 336.0, 336.0, 348.0, 341.0, 342.0, 338.0, 351.0, 338.0, 336.0, 336.0, 349.0, 336.0, 336.0, 343.0, 349.0, 339.0, 335.0, 335.0, 338.0, 343.0, 336.0, 337.0, 343.0, 348.0, 336.0, 336.0, 341.0, 350.0, 337.0, 335.0, 339.0, 344.0, 349.0, 336.0, 335.0, 335.0, 341.0, 347.0, 337.0, 335.0, 336.0, 350.0, 338.0, 335.0, 336.0, 349.0, 339.0, 337.0, 336.0, 349.0, 349.0, 340.0, 337.0, 339.0, 347.0, 338.0, 336.0, 335.0, 339.0, 348.0, 335.0, 335.0, 338.0, 350.0, 336.0, 336.0, 336.0, 346.0, 349.0, 337.0, 335.0, 336.0, 339.0, 346.0, 338.0, 337.0, 335.0, 350.0, 338.0, 337.0, 338.0, 351.0, 339.0, 339.0, 342.0, 351.0, 339.0, 335.0, 344.0, 341.0, 344.0, 337.0, 335.0, 339.0, 346.0, 336.0, 336.0, 347.0, 349.0, 339.0, 338.0, 345.0, 347.0, 337.0, 336.0, 339.0, 345.0, 349.0, 335.0, 335.0, 336.0, 346.0, 346.0, 338.0, 336.0, 336.0, 338.0, 344.0, 344.0, 336.0, 335.0, 336.0, 337.0, 344.0, 339.0, 336.0, 336.0, 343.0, 350.0, 339.0, 336.0, 345.0, 347.0, 338.0, 336.0, 337.0, 347.0, 347.0, 336.0, 335.0, 339.0, 350.0, 338.0, 336.0, 337.0, 350.0, 336.0, 336.0, 348.0, 340.0, 337.0, 336.0, 350.0, 337.0, 339.0, 338.0, 350.0, 336.0, 336.0, 344.0, 344.0, 344.0, 335.0, 336.0, 336.0, 343.0, 345.0, 337.0, 335.0, 336.0, 344.0, 340.0, 335.0, 336.0, 336.0, 349.0, 348.0, 337.0, 335.0, 336.0, 340.0, 342.0, 336.0, 337.0, 346.0, 347.0, 340.0, 335.0, 336.0, 336.0, 345.0, 337.0, 336.0, 337.0, 342.0, 349.0, 340.0, 336.0, 336.0, 345.0, 347.0, 336.0, 336.0, 337.0, 338.0, 348.0, 343.0, 335.0, 336.0, 337.0, 346.0, 343.0, 337.0, 338.0, 346.0, 345.0, 339.0, 336.0, 336.0, 346.0, 348.0, 339.0, 336.0, 336.0, 348.0, 345.0, 336.0, 337.0, 339.0, 349.0, 338.0, 336.0, 336.0, 347.0, 341.0, 336.0, 337.0, 341.0, 351.0, 337.0, 336.0, 343.0, 345.0, 345.0, 336.0, 336.0, 339.0, 348.0, 336.0, 336.0, 336.0, 338.0, 350.0, 339.0, 335.0, 337.0, 338.0, 346.0, 343.0, 336.0, 337.0, 338.0, 343.0, 348.0, 336.0, 335.0, 336.0, 338.0, 348.0, 346.0, 338.0, 336.0, 336.0, 343.0, 344.0],
      "WindowWidth": [758.0, 739.0, 735.0, 734.0, 748.0, 731.0, 732.0, 748.0, 738.0, 740.0, 734.0, 751.0, 734.0, 731.0, 731.0, 748.0, 731.0, 731.0, 740.0, 748.0, 735.0, 730.0, 730.0, 734.0, 741.0, 731.0, 733.0, 740.0, 748.0, 732.0, 731.0, 738.0, 750.0, 733.0, 730.0, 735.0, 742.0, 748.0, 731.0, 730.0, 730.0, 739.0, 746.0, 733.0, 731.0, 732.0, 750.0, 735.0, 731.0, 733.0, 749.0, 736.0, 733.0, 732.0, 748.0, 749.0, 737.0, 733.0, 735.0, 746.0, 734.0, 731.0, 730.0, 736.0, 747.0, 731.0, 731.0, 734.0, 750.0, 732.0, 732.0, 732.0, 744.0, 749.0, 733.0, 730.0, 732.0, 735.0, 745.0, 734.0, 733.0, 731.0, 751.0, 735.0, 733.0, 735.0, 752.0, 736.0, 736.0, 739.0, 751.0, 736.0, 730.0, 742.0, 738.0, 742.0, 733.0, 730.0, 736.0, 744.0, 732.0, 732.0, 746.0, 749.0, 735.0, 733.0, 743.0, 746.0, 733.0, 732.0, 736.0, 743.0, 748.0, 730.0, 730.0, 732.0, 745.0, 745.0, 734.0, 731.0, 732.0, 734.0, 741.0, 742.0, 732.0, 730.0, 732.0, 733.0, 742.0, 735.0, 732.0, 732.0, 741.0, 751.0, 736.0, 732.0, 744.0, 746.0, 734.0, 732.0, 732.0, 746.0, 746.0, 731.0, 730.0, 736.0, 749.0, 734.0, 732.0, 733.0, 749.0, 732.0, 732.0, 748.0, 737.0, 733.0, 732.0, 751.0, 733.0, 735.0, 734.0, 750.0, 732.0, 731.0, 742.0, 742.0, 742.0, 730.0, 730.0, 731.0, 740.0, 743.0, 732.0, 730.0, 731.0, 741.0, 737.0, 730.0, 731.0, 732.0, 749.0, 748.0, 733.0, 730.0, 731.0, 737.0, 739.0, 732.0, 732.0, 744.0, 746.0, 737.0, 730.0, 731.0, 732.0, 744.0, 733.0, 732.0, 733.0, 740.0, 749.0, 737.0, 731.0, 732.0, 744.0, 747.0, 732.0, 732.0, 732.0, 734.0, 747.0, 740.0, 730.0, 731.0, 733.0, 745.0, 741.0, 733.0, 734.0, 745.0, 743.0, 736.0, 731.0, 732.0, 746.0, 748.0, 735.0, 732.0, 731.0, 747.0, 743.0, 732.0, 733.0, 736.0, 749.0, 734.0, 732.0, 732.0, 746.0, 738.0, 731.0, 733.0, 738.0, 751.0, 733.0, 732.0, 740.0, 743.0, 743.0, 732.0, 731.0, 736.0, 748.0, 732.0, 732.0, 732.0, 735.0, 750.0, 736.0, 730.0, 733.0, 734.0, 745.0, 741.0, 731.0, 732.0, 734.0, 741.0, 747.0, 731.0, 731.0, 732.0, 734.0, 747.0, 745.0, 734.0, 732.0, 732.0, 741.0, 742.0]
    },
    "slices": {}
  }
}