{
  "AcquisitionMatrixPE": 96,
  "AcquisitionNumber": 1,
  "AcquisitionTime": "18:04:34.900000",
  "BandwidthPerPixelPhaseEncode": 18.939,
  "BaseResolution": 96,
  "BodyPartExamined": "BRAIN",
  "ConsistencyInfo": "N4_VE11C_LATEST_20160120",
  "ConversionSoftware": "dcm2niix",
  "ConversionSoftwareVersion": "v1.0.20170923 (OpenJPEG build) GCC6.3.0",
  "DerivedVendorReportedEchoSpacing": 0.000550011,
  "DeviceSerialNumber": "66112",
  "DwellTime": 2.3e-06,
  "EchoTime": 0.033,
  "EchoTrainLength": 96,
  "EffectiveEchoSpacing": 0.000550011,
  "FlipAngle": 64,
  "ImageType": [
    "ORIGINAL",
    "PRIMARY",
    "FMRI",
    "NONE",
    "ND",
    "NORM",
    "MOSAIC"
],
  "InstitutionAddress": "Maynard_3_Hanover_NH_US_03755",
  "InstitutionName": "Dartmouth_College_-_PBS",
  "MagneticFieldStrength": 3,
  "Manufacturer": "Siemens",
  "ManufacturersModelName": "Prisma",
  "Modality": "MR",
  "MultibandAccelerationFactor": 4,
  "PartialFourier": 1,
  "PercentPhaseFOV": 100,
  "PhaseEncodingDirection": "j-",
  "PhaseEncodingSteps": 96,
  "PhaseResolution": 1,
  "ProcedureStepDescription": "Gobbini_Matteo_1017_famface-angles",
  "ProtocolName": "func_run-04_task-fam1back",
  "PulseSequenceDetails": "%SiemensSeq%_ep2d_bold",
  "ReceiveCoilActiveElements": "HEP",
  "ReceiveCoilName": "Head_32",
  "ReconMatrixPE": 96,
  "RepetitionTime": 1.25,
  "ScanOptions": "FS",
  "ScanningSequence": "EP",
  "SequenceName": "_epfid2d1_96",
  "SequenceVariant": "SK",
  "SeriesDescription": "func_run-04_task-fam1back",
  "SliceTiming": [0.8775, 0, 0.615, 0.0875, 0.7025, 0.175, 0.79, 0.35, 0.965, 0.44, 1.055, 0.5275, 1.1425, 0.2625, 0.8775, 0, 0.615, 0.0875, 0.7025, 0.175, 0.79, 0.35, 0.965, 0.44, 1.055, 0.5275, 1.1425, 0.2625, 0.8775, 0, 0.615, 0.0875, 0.7025, 0.175, 0.79, 0.35, 0.965, 0.44, 1.055, 0.5275, 1.1425, 0.2625, 0.8775, 0, 0.615, 0.0875, 0.7025, 0.175, 0.79, 0.35, 0.965, 0.44, 1.055, 0.5275, 1.1425, 0.2625],
  "SoftwareVersions": "syngo_MR_E11",
  "StationName": "AWP66112",
  "TaskName": "fam1back",
  "TotalReadoutTime": 0.0522511,
  "dcmmeta_affine": [
    [-2.4971351623535156, -0.11776188015937805, -0.021169394254684448, 128.55369567871094],
    [-0.1165677085518837, 2.4941794872283936, -0.12442245334386826, -88.91621398925781],
    [-0.026980994269251823, 0.12329280376434326, 2.496812343597412, -87.3169937133789],
    [0.0, 0.0, 0.0, 1.0]
],
  "dcmmeta_reorient_transform": [
    [0.0, -1.0, 0.0, 95.0],
    [1.0, 0.0, 0.0, 0.0],
    [0.0, 0.0, 1.0, 0.0],
    [0.0, 0.0, 0.0, 1.0]
],
  "dcmmeta_shape": [96, 96, 56, 280],
  "dcmmeta_slice_dim": 2,
  "dcmmeta_version": 0.6,
  "global": {
    "const": {
      "AccessionNumber": "A000610",
      "AcquisitionMatrix": [96, 0, 0, 96],
      "AngioFlag": "N",
      "BitsAllocated": 16,
      "BitsStored": 12,
      "BodyPartExamined": "BRAIN",
      "Columns": 768,
      "EchoNumbers": 1,
      "EchoTime": 33.0,
      "EchoTrainLength": 96,
      "FlipAngle": 64.0,
      "HighBit": 11,
      "ImageOrientationPatient": [0.99885406308245, 0.04662708235353, -0.0107923980136, -0.0471047529395, 0.99767177153345, -0.0493171221365],
      "ImagePositionPatient": [-916.83573055001, -1025.2418655518, -25.112182433222],
      "ImageType": [
        "ORIGINAL",
        "PRIMARY",
        "FMRI",
        "NONE",
        "ND",
        "NORM",
        "MOSAIC"
],
      "ImagedNucleus": "1H",
      "ImagingFrequency": 123.252385,
      "InPlanePhaseEncodingDirection": "COL",
      "MRAcquisitionType": "2D",
      "MagneticFieldStrength": 3.0,
      "Manufacturer": "SIEMENS",
      "ManufacturerModelName": "Prisma",
      "Modality": "MR",
      "NumberOfAverages": 1.0,
      "NumberOfPhaseEncodingSteps": 96,
      "PercentPhaseFieldOfView": 100.0,
      "PercentSampling": 100.0,
      "PerformedProcedureStepStartTime": "172747.956000",
      "PhotometricInterpretation": "MONOCHROME2",
      "PixelBandwidth": 2265.0,
      "PixelRepresentation": 0,
      "PixelSpacing": [2.5, 2.5],
      "PositionReferenceIndicator": "",
      "ProtocolName": "func_run-04_task-fam1back",
      "RepetitionTime": 1250.0,
      "Rows": 768,
      "SAR": 0.0471560695587,
      "SamplesPerPixel": 1,
      "ScanOptions": "FS",
      "ScanningSequence": "EP",
      "SequenceName": "*epfid2d1_96",
      "SequenceVariant": "SK",
      "SeriesDescription": "func_run-04_task-fam1back",
      "SeriesNumber": 29,
      "SeriesTime": "180436.003000",
      "SliceLocation": -83.868946354438,
      "SliceThickness": 2.5,
      "SmallestImagePixelValue": 0,
      "SoftwareVersions": "syngo MR E11",
      "SpacingBetweenSlices": 2.5000000804829,
      "SpecificCharacterSet": "ISO_IR 100",
      "StudyID": "2",
      "StudyTime": "172747.909000",
      "TransmitCoilName": "Body",
      "VariableFlipAngleFlag": "N",
      "WindowCenterWidthExplanation": "Algo1",
      "dBdt": 0.0},
    "slices": {}
  },
  "time": {
    "samples": {
      "AcquisitionNumber": [1, 2, 3, 4, 5, 6, 7, 8, 9, 10, 11, 12, 13, 14, 15, 16, 17, 18, 19, 20, 21, 22, 23, 24, 25, 26, 27, 28, 29, 30, 31, 32, 33, 34, 35, 36, 37, 38, 39, 40, 41, 42, 43, 44, 45, 46, 47, 48, 49, 50, 51, 52, 53, 54, 55, 56, 57, 58, 59, 60, 61, 62, 63, 64, 65, 66, 67, 68, 69, 70, 71, 72, 73, 74, 75, 76, 77, 78, 79, 80, 81, 82, 83, 84, 85, 86, 87, 88, 89, 90, 91, 92, 93, 94, 95, 96, 97, 98, 99, 100, 101, 102, 103, 104, 105, 106, 107, 108, 109, 110, 111, 112, 113, 114, 115, 116, 117, 118, 119, 120, 121, 122, 123, 124, 125, 126, 127, 128, 129, 130, 131, 132, 133, 134, 135, 136, 137, 138, 139, 140, 141, 142, 143, 144, 145, 146, 147, 148, 149, 150, 151, 152, 153, 154, 155, 156, 157, 158, 159, 160, 161, 162, 163, 164, 165, 166, 167, 168, 169, 170, 171, 172, 173, 174, 175, 176, 177, 178, 179, 180, 181, 182, 183, 184, 185, 186, 187, 188, 189, 190, 191, 192, 193, 194, 195, 196, 197, 198, 199, 200, 201, 202, 203, 204, 205, 206, 207, 208, 209, 210, 211, 212, 213, 214, 215, 216, 217, 218, 219, 220, 221, 222, 223, 224, 225, 226, 227, 228, 229, 230, 231, 232, 233, 234, 235, 236, 237, 238, 239, 240, 241, 242, 243, 244, 245, 246, 247, 248, 249, 250, 251, 252, 253, 254, 255, 256, 257, 258, 259, 260, 261, 262, 263, 264, 265, 266, 267, 268, 269, 270, 271, 272, 273, 274, 275, 276, 277, 278, 279, 280],
      "AcquisitionTime": ["180434.900000", "180436.150000", "180437.400000", "180438.650000", "180439.900000", "180441.150000", "180442.400000", "180443.650000", "180444.900000", "180446.150000", "180447.400000", "180448.650000", "180449.900000", "180451.150000", "180452.400000", "180453.650000", "180454.900000", "180456.150000", "180457.400000", "180458.650000", "180459.900000", "180501.150000", "180502.400000", "180503.650000", "180504.900000", "180506.150000", "180507.400000", "180508.650000", "180509.900000", "180511.150000", "180512.400000", "180513.650000", "180514.900000", "180516.150000", "180517.400000", "180518.650000", "180519.900000", "180521.150000", "180522.400000", "180523.650000", "180524.900000", "180526.150000", "180527.400000", "180528.650000", "180529.900000", "180531.150000", "180532.400000", "180533.650000", "180534.900000", "180536.150000", "180537.400000", "180538.650000", "180539.900000", "180541.150000", "180542.400000", "180543.650000", "180544.900000", "180546.150000", "180547.400000", "180548.650000", "180549.900000", "180551.150000", "180552.400000", "180553.650000", "180554.900000", "180556.150000", "180557.400000", "180558.650000", "180559.900000", "180601.150000", "180602.400000", "180603.650000", "180604.900000", "180606.150000", "180607.400000", "180608.650000", "180609.900000", "180611.150000", "180612.400000", "180613.650000", "180614.900000", "180616.150000", "180617.400000", "180618.650000", "180619.900000", "180621.150000", "180622.400000", "180623.650000", "180624.900000", "180626.150000", "180627.400000", "180628.650000", "180629.900000", "180631.150000", "180632.400000", "180633.650000", "180634.900000", "180636.150000", "180637.400000", "180638.650000", "180639.900000", "180641.150000", "180642.400000", "180643.650000", "180644.900000", "180646.150000", "180647.400000", "180648.650000", "180649.900000", "180651.150000", "180652.400000", "180653.650000", "180654.900000", "180656.150000", "180657.400000", "180658.650000", "180659.900000", "180701.150000", "180702.400000", "180703.650000", "180704.900000", "180706.150000", "180707.400000", "180708.650000", "180709.900000", "180711.150000", "180712.400000", "180713.650000", "180714.900000", "180716.150000", "180717.400000", "180718.650000", "180719.900000", "180721.150000", "180722.400000", "180723.650000", "180724.900000", "180726.150000", "180727.400000", "180728.650000", "180729.900000", "180731.150000", "180732.400000", "180733.650000", "180734.900000", "180736.150000", "180737.400000", "180738.650000", "180739.900000", "180741.150000", "180742.400000", "180743.650000", "180744.900000", "180746.150000", "180747.400000", "180748.650000", "180749.900000", "180751.150000", "180752.400000", "180753.650000", "180754.900000", "180756.150000", "180757.400000", "180758.650000", "180759.900000", "180801.150000", "180802.400000", "180803.650000", "180804.900000", "180806.150000", "180807.400000", "180808.650000", "180809.900000", "180811.150000", "180812.400000", "180813.650000", "180814.900000", "180816.150000", "180817.400000", "180818.650000", "180819.900000", "180821.150000", "180822.400000", "180823.650000", "180824.900000", "180826.150000", "180827.400000", "180828.650000", "180829.900000", "180831.150000", "180832.400000", "180833.650000", "180834.900000", "180836.150000", "180837.400000", "180838.650000", "180839.900000", "180841.150000", "180842.400000", "180843.650000", "180844.900000", "180846.150000", "180847.400000", "180848.650000", "180849.900000", "180851.150000", "180852.400000", "180853.650000", "180854.900000", "180856.150000", "180857.400000", "180858.650000", "180859.900000", "180901.150000", "180902.400000", "180903.650000", "180904.900000", "180906.150000", "180907.400000", "180908.650000", "180909.900000", "180911.150000", "180912.400000", "180913.650000", "180914.900000", "180916.150000", "180917.400000", "180918.650000", "180919.900000", "180921.150000", "180922.400000", "180923.650000", "180924.900000", "180926.150000", "180927.400000", "180928.650000", "180929.900000", "180931.150000", "180932.400000", "180933.650000", "180934.900000", "180936.150000", "180937.400000", "180938.650000", "180939.900000", "180941.150000", "180942.400000", "180943.650000", "180944.900000", "180946.150000", "180947.400000", "180948.650000", "180949.900000", "180951.150000", "180952.400000", "180953.650000", "180954.900000", "180956.150000", "180957.400000", "180958.650000", "180959.900000", "181001.150000", "181002.400000", "181003.650000", "181004.900000", "181006.150000", "181007.400000", "181008.650000", "181009.900000", "181011.150000", "181012.400000", "181013.650000", "181014.900000", "181016.150000", "181017.400000", "181018.650000", "181019.900000", "181021.150000", "181022.400000", "181023.650000"],
      "ContentTime": ["180436.009000", "180437.139000", "180438.408000", "180439.647000", "180440.892000", "180442.126000", "180443.386000", "180444.628000", "180445.890000", "180447.134000", "180448.379000", "180449.649000", "180450.890000", "180452.134000", "180453.391000", "180454.616000", "180455.869000", "180457.115000", "180458.364000", "180459.623000", "180500.880000", "180502.132000", "180503.390000", "180504.632000", "180505.866000", "180507.134000", "180508.392000", "180509.623000", "180510.872000", "180512.132000", "180513.379000", "180514.627000", "180515.873000", "180517.135000", "180518.386000", "180519.627000", "180520.872000", "180522.148000", "180523.401000", "180524.615000", "180525.863000", "180527.140000", "180528.382000", "180529.628000", "180530.894000", "180532.143000", "180533.392000", "180534.618000", "180535.903000", "180537.179000", "180538.372000", "180539.638000", "180540.872000", "180542.138000", "180543.387000", "180544.633000", "180545.888000", "180547.157000", "180548.388000", "180549.640000", "180550.906000", "180552.147000", "180553.390000", "180554.651000", "180555.898000", "180557.134000", "180558.403000", "180559.623000", "180600.873000", "180602.131000", "180603.383000", "180604.632000", "180605.894000", "180607.125000", "180608.388000", "180609.647000", "180610.867000", "180612.131000", "180613.403000", "180614.634000", "180615.876000", "180617.130000", "180618.402000", "180619.619000", "180620.872000", "180622.113000", "180623.398000", "180624.624000", "180625.902000", "180627.114000", "180628.365000", "180629.652000", "180630.887000", "180632.135000", "180633.381000", "180634.627000", "180635.906000", "180637.146000", "180638.358000", "180639.627000", "180640.877000", "180642.150000", "180643.419000", "180644.665000", "180645.908000", "180647.134000", "180648.399000", "180649.625000", "180650.915000", "180652.141000", "180653.405000", "180654.643000", "180655.886000", "180657.162000", "180658.443000", "180659.655000", "180700.887000", "180702.124000", "180703.414000", "180704.652000", "180705.877000", "180707.113000", "180708.395000", "180709.656000", "180710.903000", "180712.163000", "180713.391000", "180714.649000", "180715.946000", "180717.147000", "180718.386000", "180719.656000", "180720.900000", "180722.147000", "180723.387000", "180724.640000", "180725.899000", "180727.142000", "180728.368000", "180729.656000", "180730.938000", "180732.202000", "180733.376000", "180734.632000", "180735.903000", "180737.141000", "180738.374000", "180739.647000", "180740.874000", "180742.128000", "180743.398000", "180744.651000", "180745.873000", "180747.137000", "180748.392000", "180749.629000", "180750.901000", "180752.136000", "180753.395000", "180754.649000", "180755.931000", "180757.136000", "180758.361000", "180759.638000", "180800.884000", "180802.144000", "180803.397000", "180804.651000", "180805.881000", "180807.119000", "180808.400000", "180809.644000", "180810.876000", "180812.144000", "180813.394000", "180814.647000", "180815.889000", "180817.184000", "180818.396000", "180819.648000", "180820.879000", "180822.121000", "180823.385000", "180824.632000", "180825.895000", "180827.138000", "180828.413000", "180829.645000", "180830.884000", "180832.122000", "180833.371000", "180834.662000", "180835.882000", "180837.147000", "180838.387000", "180839.638000", "180840.895000", "180842.134000", "180843.393000", "180844.639000", "180845.895000", "180847.149000", "180848.439000", "180849.685000", "180850.907000", "180852.127000", "180853.384000", "180854.646000", "180855.913000", "180857.135000", "180858.390000", "180859.639000", "180900.899000", "180902.171000", "180903.405000", "180904.636000", "180905.890000", "180907.125000", "180908.389000", "180909.638000", "180910.895000", "180912.136000", "180913.373000", "180914.645000", "180915.883000", "180917.135000", "180918.404000", "180919.627000", "180920.876000", "180922.132000", "180923.394000", "180924.633000", "180925.899000", "180927.129000", "180928.393000", "180929.636000", "180930.883000", "180932.155000", "180933.368000", "180934.649000", "180935.902000", "180937.145000", "180938.410000", "180939.633000", "180940.894000", "180942.150000", "180943.390000", "180944.640000", "180945.880000", "180947.158000", "180948.395000", "180949.651000", "180950.899000", "180952.149000", "180953.400000", "180954.642000", "180955.882000", "180957.127000", "180958.378000", "180959.632000", "181000.889000", "181002.142000", "181003.398000", "181004.698000", "181005.881000", "181007.148000", "181008.367000", "181009.641000", "181010.902000", "181012.130000", "181013.382000", "181014.643000", "181015.884000", "181017.151000", "181018.392000", "181019.649000", "181020.896000", "181022.123000", "181023.384000", "181024.683000"],
      "InstanceCreationTime": ["180436.009000", "180437.139000", "180438.408000", "180439.647000", "180440.892000", "180442.126000", "180443.386000", "180444.628000", "180445.890000", "180447.134000", "180448.379000", "180449.649000", "180450.890000", "180452.134000", "180453.391000", "180454.616000", "180455.869000", "180457.115000", "180458.364000", "180459.623000", "180500.880000", "180502.132000", "180503.390000", "180504.632000", "180505.866000", "180507.134000", "180508.392000", "180509.623000", "180510.872000", "180512.132000", "180513.379000", "180514.627000", "180515.873000", "180517.135000", "180518.386000", "180519.627000", "180520.872000", "180522.148000", "180523.401000", "180524.615000", "180525.863000", "180527.140000", "180528.382000", "180529.628000", "180530.894000", "180532.143000", "180533.392000", "180534.618000", "180535.903000", "180537.179000", "180538.372000", "180539.638000", "180540.872000", "180542.138000", "180543.387000", "180544.633000", "180545.888000", "180547.157000", "180548.388000", "180549.640000", "180550.906000", "180552.147000", "180553.390000", "180554.651000", "180555.898000", "180557.134000", "180558.403000", "180559.623000", "180600.873000", "180602.131000", "180603.383000", "180604.632000", "180605.894000", "180607.125000", "180608.388000", "180609.647000", "180610.867000", "180612.131000", "180613.403000", "180614.634000", "180615.876000", "180617.130000", "180618.402000", "180619.619000", "180620.872000", "180622.113000", "180623.398000", "180624.624000", "180625.902000", "180627.114000", "180628.365000", "180629.652000", "180630.887000", "180632.135000", "180633.381000", "180634.627000", "180635.906000", "180637.146000", "180638.358000", "180639.627000", "180640.877000", "180642.150000", "180643.419000", "180644.665000", "180645.908000", "180647.134000", "180648.399000", "180649.625000", "180650.915000", "180652.141000", "180653.405000", "180654.643000", "180655.886000", "180657.162000", "180658.443000", "180659.655000", "180700.887000", "180702.124000", "180703.414000", "180704.652000", "180705.877000", "180707.113000", "180708.395000", "180709.656000", "180710.903000", "180712.163000", "180713.391000", "180714.649000", "180715.946000", "180717.147000", "180718.386000", "180719.656000", "180720.900000", "180722.147000", "180723.387000", "180724.640000", "180725.899000", "180727.142000", "180728.368000", "180729.656000", "180730.938000", "180732.202000", "180733.376000", "180734.632000", "180735.903000", "180737.141000", "180738.374000", "180739.647000", "180740.874000", "180742.128000", "180743.398000", "180744.651000", "180745.873000", "180747.137000", "180748.392000", "180749.629000", "180750.901000", "180752.136000", "180753.395000", "180754.649000", "180755.931000", "180757.136000", "180758.361000", "180759.638000", "180800.884000", "180802.144000", "180803.397000", "180804.651000", "180805.881000", "180807.119000", "180808.400000", "180809.644000", "180810.876000", "180812.144000", "180813.394000", "180814.647000", "180815.889000", "180817.184000", "180818.396000", "180819.648000", "180820.879000", "180822.121000", "180823.385000", "180824.632000", "180825.895000", "180827.138000", "180828.413000", "180829.645000", "180830.884000", "180832.122000", "180833.371000", "180834.662000", "180835.882000", "180837.147000", "180838.387000", "180839.638000", "180840.895000", "180842.134000", "180843.393000", "180844.639000", "180845.895000", "180847.149000", "180848.439000", "180849.685000", "180850.907000", "180852.127000", "180853.384000", "180854.646000", "180855.913000", "180857.135000", "180858.390000", "180859.639000", "180900.899000", "180902.171000", "180903.405000", "180904.636000", "180905.890000", "180907.125000", "180908.389000", "180909.638000", "180910.895000", "180912.136000", "180913.373000", "180914.645000", "180915.883000", "180917.135000", "180918.404000", "180919.627000", "180920.876000", "180922.132000", "180923.394000", "180924.633000", "180925.899000", "180927.129000", "180928.393000", "180929.636000", "180930.883000", "180932.155000", "180933.368000", "180934.649000", "180935.902000", "180937.145000", "180938.410000", "180939.633000", "180940.894000", "180942.150000", "180943.390000", "180944.640000", "180945.880000", "180947.158000", "180948.395000", "180949.651000", "180950.899000", "180952.149000", "180953.400000", "180954.642000", "180955.882000", "180957.127000", "180958.378000", "180959.632000", "181000.889000", "181002.142000", "181003.398000", "181004.698000", "181005.881000", "181007.148000", "181008.367000", "181009.641000", "181010.902000", "181012.130000", "181013.382000", "181014.643000", "181015.884000", "181017.151000", "181018.392000", "181019.649000", "181020.896000", "181022.123000", "181023.384000", "181024.683000"],
      "InstanceNumber": [1, 2, 3, 4, 5, 6, 7, 8, 9, 10, 11, 12, 13, 14, 15, 16, 17, 18, 19, 20, 21, 22, 23, 24, 25, 26, 27, 28, 29, 30, 31, 32, 33, 34, 35, 36, 37, 38, 39, 40, 41, 42, 43, 44, 45, 46, 47, 48, 49, 50, 51, 52, 53, 54, 55, 56, 57, 58, 59, 60, 61, 62, 63, 64, 65, 66, 67, 68, 69, 70, 71, 72, 73, 74, 75, 76, 77, 78, 79, 80, 81, 82, 83, 84, 85, 86, 87, 88, 89, 90, 91, 92, 93, 94, 95, 96, 97, 98, 99, 100, 101, 102, 103, 104, 105, 106, 107, 108, 109, 110, 111, 112, 113, 114, 115, 116, 117, 118, 119, 120, 121, 122, 123, 124, 125, 126, 127, 128, 129, 130, 131, 132, 133, 134, 135, 136, 137, 138, 139, 140, 141, 142, 143, 144, 145, 146, 147, 148, 149, 150, 151, 152, 153, 154, 155, 156, 157, 158, 159, 160, 161, 162, 163, 164, 165, 166, 167, 168, 169, 170, 171, 172, 173, 174, 175, 176, 177, 178, 179, 180, 181, 182, 183, 184, 185, 186, 187, 188, 189, 190, 191, 192, 193, 194, 195, 196, 197, 198, 199, 200, 201, 202, 203, 204, 205, 206, 207, 208, 209, 210, 211, 212, 213, 214, 215, 216, 217, 218, 219, 220, 221, 222, 223, 224, 225, 226, 227, 228, 229, 230, 231, 232, 233, 234, 235, 236, 237, 238, 239, 240, 241, 242, 243, 244, 245, 246, 247, 248, 249, 250, 251, 252, 253, 254, 255, 256, 257, 258, 259, 260, 261, 262, 263, 264, 265, 266, 267, 268, 269, 270, 271, 272, 273, 274, 275, 276, 277, 278, 279, 280],
      "LargestImagePixelValue": [912, 1226, 749, 729, 756, 995, 1190, 790, 725, 732, 786, 733, 988, 747, 726, 722, 829, 1140, 785, 731, 784, 1151, 748, 777, 874, 1111, 1086, 754, 741, 722, 795, 1200, 913, 751, 791, 782, 941, 802, 1058, 734, 725, 738, 1129, 1067, 813, 770, 757, 907, 787, 1157, 1024, 778, 741, 736, 778, 814, 1068, 757, 737, 731, 1018, 820, 1052, 736, 730, 727, 767, 935, 737, 722, 728, 1111, 1122, 861, 759, 744, 1088, 935, 1123, 780, 731, 749, 772, 954, 1074, 749, 753, 744, 896, 1118, 763, 772, 828, 1168, 1090, 771, 734, 750, 811, 938, 875, 746, 728, 759, 826, 1111, 961, 818, 743, 744, 749, 752, 762, 930, 1044, 744, 751, 1004, 862, 1160, 780, 808, 761, 1108, 1004, 738, 764, 815, 1141, 751, 735, 757, 786, 877, 755, 728, 728, 738, 1130, 1113, 817, 723, 895, 953, 1089, 809, 735, 738, 779, 824, 930, 765, 800, 745, 737, 753, 807, 881, 944, 783, 783, 753, 750, 936, 1063, 966, 755, 753, 737, 1058, 1095, 1124, 909, 765, 736, 777, 741, 846, 727, 796, 945, 738, 735, 741, 736, 907, 954, 973, 757, 739, 912, 807, 1104, 1004, 748, 749, 746, 1053, 865, 1152, 798, 744, 744, 749, 783, 739, 822, 731, 737, 912, 1104, 784, 818, 824, 1122, 947, 965, 866, 759, 738, 753, 875, 1054, 998, 754, 746, 1059, 1031, 861, 755, 740, 938, 862, 740, 740, 740, 739, 774, 1027, 758, 747, 759, 768, 914, 1114, 805, 764, 743, 742, 1089, 941, 752, 787, 1030, 1007, 1035, 770, 744, 751, 770, 823, 1002, 749, 755, 750, 1073, 906, 1164, 763, 741, 748, 882, 1069, 984, 762, 760, 754, 754, 1025, 1048],
      "WindowCenter": [342.0, 349.0, 335.0, 334.0, 336.0, 343.0, 348.0, 337.0, 335.0, 335.0, 337.0, 336.0, 343.0, 337.0, 336.0, 336.0, 340.0, 348.0, 338.0, 337.0, 339.0, 349.0, 338.0, 339.0, 342.0, 348.0, 347.0, 337.0, 337.0, 337.0, 339.0, 350.0, 343.0, 337.0, 339.0, 338.0, 342.0, 339.0, 346.0, 337.0, 337.0, 338.0, 349.0, 347.0, 339.0, 338.0, 337.0, 341.0, 337.0, 348.0, 344.0, 337.0, 336.0, 336.0, 337.0, 338.0, 345.0, 337.0, 337.0, 337.0, 344.0, 338.0, 345.0, 336.0, 337.0, 336.0, 337.0, 343.0, 338.0, 337.0, 337.0, 348.0, 348.0, 341.0, 337.0, 337.0, 346.0, 343.0, 346.0, 337.0, 336.0, 336.0, 337.0, 342.0, 346.0, 337.0, 337.0, 338.0, 342.0, 348.0, 338.0, 338.0, 338.0, 347.0, 346.0, 336.0, 335.0, 336.0, 338.0, 342.0, 340.0, 336.0, 335.0, 337.0, 339.0, 347.0, 343.0, 339.0, 337.0, 337.0, 337.0, 338.0, 338.0, 343.0, 346.0, 338.0, 338.0, 344.0, 340.0, 348.0, 337.0, 338.0, 337.0, 346.0, 343.0, 336.0, 336.0, 338.0, 347.0, 337.0, 336.0, 336.0, 337.0, 341.0, 337.0, 336.0, 337.0, 338.0, 348.0, 347.0, 338.0, 335.0, 340.0, 342.0, 345.0, 338.0, 336.0, 336.0, 336.0, 338.0, 341.0, 336.0, 338.0, 336.0, 336.0, 337.0, 339.0, 341.0, 343.0, 338.0, 338.0, 338.0, 339.0, 344.0, 347.0, 344.0, 338.0, 339.0, 338.0, 347.0, 348.0, 347.0, 341.0, 337.0, 335.0, 336.0, 335.0, 338.0, 335.0, 338.0, 342.0, 337.0, 337.0, 337.0, 338.0, 342.0, 344.0, 344.0, 338.0, 338.0, 342.0, 338.0, 347.0, 344.0, 336.0, 336.0, 336.0, 345.0, 340.0, 347.0, 338.0, 335.0, 335.0, 336.0, 337.0, 337.0, 340.0, 338.0, 338.0, 344.0, 348.0, 339.0, 339.0, 339.0, 347.0, 342.0, 342.0, 339.0, 336.0, 336.0, 337.0, 340.0, 345.0, 344.0, 337.0, 336.0, 345.0, 345.0, 339.0, 336.0, 335.0, 342.0, 340.0, 336.0, 336.0, 336.0, 336.0, 338.0, 345.0, 338.0, 337.0, 338.0, 338.0, 344.0, 349.0, 339.0, 338.0, 337.0, 338.0, 347.0, 344.0, 338.0, 338.0, 345.0, 344.0, 345.0, 337.0, 337.0, 337.0, 338.0, 339.0, 345.0, 337.0, 338.0, 338.0, 346.0, 342.0, 348.0, 337.0, 336.0, 336.0, 340.0, 345.0, 343.0, 336.0, 337.0, 337.0, 337.0, 344.0, 344.0],
      "WindowWidth": [742.0, 749.0, 730.0, 729.0, 731.0, 739.0, 746.0, 732.0, 730.0, 730.0, 733.0, 731.0, 741.0, 733.0, 732.0, 733.0, 737.0, 748.0, 735.0, 733.0, 736.0, 750.0, 735.0, 736.0, 740.0, 748.0, 746.0, 734.0, 734.0, 734.0, 737.0, 751.0, 742.0, 734.0, 735.0, 734.0, 740.0, 735.0, 745.0, 734.0, 734.0, 735.0, 749.0, 747.0, 736.0, 734.0, 732.0, 738.0, 733.0, 747.0, 742.0, 733.0, 732.0, 731.0, 733.0, 735.0, 744.0, 733.0, 733.0, 733.0, 743.0, 735.0, 744.0, 732.0, 733.0, 732.0, 734.0, 742.0, 735.0, 734.0, 734.0, 748.0, 748.0, 739.0, 734.0, 733.0, 745.0, 740.0, 745.0, 733.0, 731.0, 732.0, 733.0, 740.0, 745.0, 733.0, 734.0, 734.0, 741.0, 748.0, 735.0, 735.0, 735.0, 746.0, 744.0, 732.0, 730.0, 731.0, 734.0, 739.0, 737.0, 732.0, 731.0, 734.0, 736.0, 747.0, 742.0, 736.0, 733.0, 733.0, 733.0, 735.0, 736.0, 742.0, 746.0, 735.0, 735.0, 743.0, 737.0, 747.0, 733.0, 734.0, 732.0, 745.0, 741.0, 731.0, 732.0, 735.0, 746.0, 732.0, 731.0, 732.0, 733.0, 738.0, 734.0, 732.0, 734.0, 735.0, 748.0, 747.0, 735.0, 731.0, 737.0, 740.0, 743.0, 734.0, 731.0, 731.0, 732.0, 733.0, 737.0, 731.0, 733.0, 732.0, 732.0, 734.0, 736.0, 738.0, 741.0, 735.0, 735.0, 736.0, 737.0, 744.0, 748.0, 743.0, 736.0, 736.0, 735.0, 747.0, 748.0, 747.0, 738.0, 732.0, 730.0, 732.0, 730.0, 734.0, 731.0, 734.0, 740.0, 733.0, 733.0, 733.0, 734.0, 740.0, 743.0, 743.0, 735.0, 735.0, 740.0, 735.0, 746.0, 742.0, 732.0, 732.0, 732.0, 744.0, 737.0, 746.0, 734.0, 730.0, 730.0, 731.0, 733.0, 733.0, 738.0, 735.0, 736.0, 743.0, 748.0, 736.0, 736.0, 736.0, 746.0, 739.0, 739.0, 735.0, 732.0, 732.0, 733.0, 737.0, 744.0, 742.0, 732.0, 731.0, 743.0, 743.0, 735.0, 731.0, 730.0, 739.0, 736.0, 732.0, 732.0, 732.0, 732.0, 735.0, 744.0, 734.0, 734.0, 735.0, 736.0, 743.0, 750.0, 737.0, 735.0, 734.0, 735.0, 747.0, 742.0, 734.0, 735.0, 743.0, 742.0, 743.0, 733.0, 733.0, 733.0, 735.0, 736.0, 745.0, 734.0, 735.0, 734.0, 745.0, 739.0, 747.0, 733.0, 732.0, 731.0, 737.0, 743.0, 741.0, 731.0, 732.0, 732.0, 732.0, 742.0, 742.0]
    },
    "slices": {}
  }
}