{
  "AcquisitionMatrixPE": 96,
  "AcquisitionNumber": 1,
  "AcquisitionTime": "18:17:47.240000",
  "BandwidthPerPixelPhaseEncode": 18.939,
  "BaseResolution": 96,
  "BodyPartExamined": "BRAIN",
  "ConsistencyInfo": "N4_VE11C_LATEST_20160120",
  "ConversionSoftware": "dcm2niix",
  "ConversionSoftwareVersion": "v1.0.20170923 (OpenJPEG build) GCC6.3.0",
  "DerivedVendorReportedEchoSpacing": 0.000550011,
  "DeviceSerialNumber": "66112",
  "DwellTime": 2.3e-06,
  "EchoTime": 0.033,
  "EchoTrainLength": 96,
  "EffectiveEchoSpacing": 0.000550011,
  "FlipAngle": 64,
  "ImageType": [
    "ORIGINAL",
    "PRIMARY",
    "FMRI",
    "NONE",
    "ND",
    "NORM",
    "MOSAIC"
],
  "InstitutionAddress": "Maynard_3_Hanover_NH_US_03755",
  "InstitutionName": "Dartmouth_College_-_PBS",
  "MagneticFieldStrength": 3,
  "Manufacturer": "Siemens",
  "ManufacturersModelName": "Prisma",
  "Modality": "MR",
  "MultibandAccelerationFactor": 4,
  "PartialFourier": 1,
  "PercentPhaseFOV": 100,
  "PhaseEncodingDirection": "j-",
  "PhaseEncodingSteps": 96,
  "PhaseResolution": 1,
  "ProcedureStepDescription": "Gobbini_Matteo_1017_famface-angles",
  "ProtocolName": "func_run-06_task-localizer",
  "PulseSequenceDetails": "%SiemensSeq%_ep2d_bold",
  "ReceiveCoilActiveElements": "HEP",
  "ReceiveCoilName": "Head_32",
  "ReconMatrixPE": 96,
  "RepetitionTime": 1.25,
  "ScanOptions": "FS",
  "ScanningSequence": "EP",
  "SequenceName": "_epfid2d1_96",
  "SequenceVariant": "SK",
  "SeriesDescription": "func_run-06_task-localizer",
  "SliceTiming": [0.88, 0, 0.615, 0.0875, 0.7025, 0.175, 0.79, 0.3525, 0.9675, 0.44, 1.055, 0.5275, 1.1425, 0.265, 0.88, 0, 0.615, 0.0875, 0.7025, 0.175, 0.79, 0.3525, 0.9675, 0.44, 1.055, 0.5275, 1.1425, 0.265, 0.88, 0, 0.615, 0.0875, 0.7025, 0.175, 0.79, 0.3525, 0.9675, 0.44, 1.055, 0.5275, 1.1425, 0.265, 0.88, 0, 0.615, 0.0875, 0.7025, 0.175, 0.79, 0.3525, 0.9675, 0.44, 1.055, 0.5275, 1.1425, 0.265],
  "SoftwareVersions": "syngo_MR_E11",
  "StationName": "AWP66112",
  "TaskName": "localizer",
  "TotalReadoutTime": 0.0522511,
  "dcmmeta_affine": [
    [-2.4971351623535156, -0.11776188015937805, -0.021169394254684448, 128.55369567871094],
    [-0.1165677085518837, 2.4941794872283936, -0.12442245334386826, -88.91621398925781],
    [-0.026980994269251823, 0.12329280376434326, 2.496812343597412, -87.3169937133789],
    [0.0, 0.0, 0.0, 1.0]
],
  "dcmmeta_reorient_transform": [
    [0.0, -1.0, 0.0, 95.0],
    [1.0, 0.0, 0.0, 0.0],
    [0.0, 0.0, 1.0, 0.0],
    [0.0, 0.0, 0.0, 1.0]
],
  "dcmmeta_shape": [96, 96, 56, 325],
  "dcmmeta_slice_dim": 2,
  "dcmmeta_version": 0.6,
  "global": {
    "const": {
      "AccessionNumber": "A000610",
      "AcquisitionMatrix": [96, 0, 0, 96],
      "AngioFlag": "N",
      "BitsAllocated": 16,
      "BitsStored": 12,
      "BodyPartExamined": "BRAIN",
      "Columns": 768,
      "EchoNumbers": 1,
      "EchoTime": 33.0,
      "EchoTrainLength": 96,
      "FlipAngle": 64.0,
      "HighBit": 11,
      "ImageOrientationPatient": [0.99885406308245, 0.04662708235353, -0.0107923980136, -0.0471047529395, 0.99767177153345, -0.0493171221365],
      "ImagePositionPatient": [-916.83573055001, -1025.2418655518, -25.112182433222],
      "ImageType": [
        "ORIGINAL",
        "PRIMARY",
        "FMRI",
        "NONE",
        "ND",
        "NORM",
        "MOSAIC"
],
      "ImagedNucleus": "1H",
      "ImagingFrequency": 123.252388,
      "InPlanePhaseEncodingDirection": "COL",
      "MRAcquisitionType": "2D",
      "MagneticFieldStrength": 3.0,
      "Manufacturer": "SIEMENS",
      "ManufacturerModelName": "Prisma",
      "Modality": "MR",
      "NumberOfAverages": 1.0,
      "NumberOfPhaseEncodingSteps": 96,
      "PercentPhaseFieldOfView": 100.0,
      "PercentSampling": 100.0,
      "PerformedProcedureStepStartTime": "172747.956000",
      "PhotometricInterpretation": "MONOCHROME2",
      "PixelBandwidth": 2265.0,
      "PixelRepresentation": 0,
      "PixelSpacing": [2.5, 2.5],
      "PositionReferenceIndicator": "",
      "ProtocolName": "func_run-06_task-localizer",
      "RepetitionTime": 1250.0,
      "Rows": 768,
      "SAR": 0.04722020182841,
      "SamplesPerPixel": 1,
      "ScanOptions": "FS",
      "ScanningSequence": "EP",
      "SequenceName": "*epfid2d1_96",
      "SequenceVariant": "SK",
      "SeriesDescription": "func_run-06_task-localizer",
      "SeriesNumber": 43,
      "SeriesTime": "181748.185000",
      "SliceLocation": -83.868946354438,
      "SliceThickness": 2.5,
      "SmallestImagePixelValue": 0,
      "SoftwareVersions": "syngo MR E11",
      "SpacingBetweenSlices": 2.5000000804829,
      "SpecificCharacterSet": "ISO_IR 100",
      "StudyID": "2",
      "StudyTime": "172747.909000",
      "TransmitCoilName": "Body",
      "VariableFlipAngleFlag": "N",
      "WindowCenterWidthExplanation": "Algo1",
      "dBdt": 0.0},
    "slices": {}
  },
  "time": {
    "samples": {
      "AcquisitionNumber": [1, 2, 3, 4, 5, 6, 7, 8, 9, 10, 11, 12, 13, 14, 15, 16, 17, 18, 19, 20, 21, 22, 23, 24, 25, 26, 27, 28, 29, 30, 31, 32, 33, 34, 35, 36, 37, 38, 39, 40, 41, 42, 43, 44, 45, 46, 47, 48, 49, 50, 51, 52, 53, 54, 55, 56, 57, 58, 59, 60, 61, 62, 63, 64, 65, 66, 67, 68, 69, 70, 71, 72, 73, 74, 75, 76, 77, 78, 79, 80, 81, 82, 83, 84, 85, 86, 87, 88, 89, 90, 91, 92, 93, 94, 95, 96, 97, 98, 99, 100, 101, 102, 103, 104, 105, 106, 107, 108, 109, 110, 111, 112, 113, 114, 115, 116, 117, 118, 119, 120, 121, 122, 123, 124, 125, 126, 127, 128, 129, 130, 131, 132, 133, 134, 135, 136, 137, 138, 139, 140, 141, 142, 143, 144, 145, 146, 147, 148, 149, 150, 151, 152, 153, 154, 155, 156, 157, 158, 159, 160, 161, 162, 163, 164, 165, 166, 167, 168, 169, 170, 171, 172, 173, 174, 175, 176, 177, 178, 179, 180, 181, 182, 183, 184, 185, 186, 187, 188, 189, 190, 191, 192, 193, 194, 195, 196, 197, 198, 199, 200, 201, 202, 203, 204, 205, 206, 207, 208, 209, 210, 211, 212, 213, 214, 215, 216, 217, 218, 219, 220, 221, 222, 223, 224, 225, 226, 227, 228, 229, 230, 231, 232, 233, 234, 235, 236, 237, 238, 239, 240, 241, 242, 243, 244, 245, 246, 247, 248, 249, 250, 251, 252, 253, 254, 255, 256, 257, 258, 259, 260, 261, 262, 263, 264, 265, 266, 267, 268, 269, 270, 271, 272, 273, 274, 275, 276, 277, 278, 279, 280, 281, 282, 283, 284, 285, 286, 287, 288, 289, 290, 291, 292, 293, 294, 295, 296, 297, 298, 299, 300, 301, 302, 303, 304, 305, 306, 307, 308, 309, 310, 311, 312, 313, 314, 315, 316, 317, 318, 319, 320, 321, 322, 323, 324, 325],
      "AcquisitionTime": ["181747.240000", "181748.490000", "181749.740000", "181750.990000", "181752.240000", "181753.490000", "181754.740000", "181755.990000", "181757.240000", "181758.490000", "181759.740000", "181800.990000", "181802.240000", "181803.490000", "181804.740000", "181805.990000", "181807.240000", "181808.490000", "181809.740000", "181810.990000", "181812.240000", "181813.490000", "181814.740000", "181815.990000", "181817.240000", "181818.490000", "181819.740000", "181820.990000", "181822.240000", "181823.490000", "181824.740000", "181825.990000", "181827.240000", "181828.490000", "181829.740000", "181830.990000", "181832.240000", "181833.490000", "181834.740000", "181835.990000", "181837.240000", "181838.490000", "181839.740000", "181840.990000", "181842.240000", "181843.490000", "181844.740000", "181845.990000", "181847.240000", "181848.490000", "181849.740000", "181850.990000", "181852.240000", "181853.490000", "181854.740000", "181855.990000", "181857.240000", "181858.490000", "181859.740000", "181900.990000", "181902.240000", "181903.490000", "181904.740000", "181905.990000", "181907.240000", "181908.490000", "181909.740000", "181910.990000", "181912.240000", "181913.490000", "181914.740000", "181915.990000", "181917.240000", "181918.490000", "181919.740000", "181920.990000", "181922.240000", "181923.490000", "181924.740000", "181925.990000", "181927.240000", "181928.490000", "181929.740000", "181930.990000", "181932.240000", "181933.490000", "181934.740000", "181935.990000", "181937.240000", "181938.490000", "181939.740000", "181940.990000", "181942.240000", "181943.490000", "181944.740000", "181945.990000", "181947.240000", "181948.490000", "181949.740000", "181950.990000", "181952.240000", "181953.490000", "181954.740000", "181955.990000", "181957.240000", "181958.490000", "181959.740000", "182000.990000", "182002.240000", "182003.490000", "182004.740000", "182005.990000", "182007.240000", "182008.490000", "182009.740000", "182010.990000", "182012.240000", "182013.490000", "182014.740000", "182015.990000", "182017.240000", "182018.490000", "182019.740000", "182020.990000", "182022.240000", "182023.490000", "182024.740000", "182025.990000", "182027.240000", "182028.490000", "182029.740000", "182030.990000", "182032.240000", "182033.490000", "182034.740000", "182035.990000", "182037.240000", "182038.490000", "182039.740000", "182040.990000", "182042.240000", "182043.490000", "182044.740000", "182045.990000", "182047.240000", "182048.490000", "182049.740000", "182050.990000", "182052.240000", "182053.490000", "182054.740000", "182055.990000", "182057.240000", "182058.490000", "182059.740000", "182100.990000", "182102.240000", "182103.490000", "182104.740000", "182105.990000", "182107.240000", "182108.490000", "182109.740000", "182110.990000", "182112.240000", "182113.490000", "182114.740000", "182115.990000", "182117.240000", "182118.490000", "182119.740000", "182120.990000", "182122.240000", "182123.490000", "182124.740000", "182125.990000", "182127.240000", "182128.490000", "182129.740000", "182130.990000", "182132.240000", "182133.490000", "182134.740000", "182135.990000", "182137.240000", "182138.490000", "182139.740000", "182140.990000", "182142.240000", "182143.490000", "182144.740000", "182145.990000", "182147.240000", "182148.490000", "182149.740000", "182150.990000", "182152.240000", "182153.490000", "182154.740000", "182155.990000", "182157.240000", "182158.490000", "182159.740000", "182200.990000", "182202.240000", "182203.490000", "182204.740000", "182205.990000", "182207.240000", "182208.490000", "182209.740000", "182210.990000", "182212.240000", "182213.490000", "182214.740000", "182215.990000", "182217.240000", "182218.490000", "182219.740000", "182220.990000", "182222.240000", "182223.490000", "182224.740000", "182225.990000", "182227.240000", "182228.490000", "182229.740000", "182230.990000", "182232.240000", "182233.490000", "182234.740000", "182235.990000", "182237.240000", "182238.490000", "182239.740000", "182240.990000", "182242.240000", "182243.490000", "182244.740000", "182245.990000", "182247.240000", "182248.490000", "182249.740000", "182250.990000", "182252.240000", "182253.490000", "182254.740000", "182255.990000", "182257.240000", "182258.490000", "182259.740000", "182300.990000", "182302.240000", "182303.490000", "182304.740000", "182305.990000", "182307.240000", "182308.490000", "182309.740000", "182310.990000", "182312.240000", "182313.490000", "182314.740000", "182315.990000", "182317.240000", "182318.490000", "182319.740000", "182320.990000", "182322.240000", "182323.490000", "182324.740000", "182325.990000", "182327.240000", "182328.490000", "182329.740000", "182330.990000", "182332.240000", "182333.490000", "182334.740000", "182335.990000", "182337.240000", "182338.490000", "182339.740000", "182340.990000", "182342.240000", "182343.490000", "182344.740000", "182345.990000", "182347.240000", "182348.490000", "182349.740000", "182350.990000", "182352.240000", "182353.490000", "182354.740000", "182355.990000", "182357.240000", "182358.490000", "182359.740000", "182400.990000", "182402.240000", "182403.490000", "182404.740000", "182405.990000", "182407.240000", "182408.490000", "182409.740000", "182410.990000", "182412.240000", "182413.490000", "182414.740000", "182415.990000", "182417.240000", "182418.490000", "182419.740000", "182420.990000", "182422.240000", "182423.490000", "182424.740000", "182425.990000", "182427.240000", "182428.490000", "182429.740000", "182430.990000", "182432.240000"],
      "ContentTime": ["181748.189000", "181749.247000", "181750.496000", "181751.762000", "181753.028000", "181754.267000", "181755.506000", "181756.791000", "181758.019000", "181759.263000", "181800.516000", "181801.770000", "181803.001000", "181804.252000", "181805.514000", "181806.766000", "181808.016000", "181809.281000", "181810.507000", "181811.757000", "181813.007000", "181814.272000", "181815.516000", "181816.740000", "181818.024000", "181819.307000", "181820.516000", "181821.760000", "181823.026000", "181824.270000", "181825.501000", "181826.744000", "181828.029000", "181829.313000", "181830.509000", "181831.786000", "181833.023000", "181834.268000", "181835.516000", "181836.776000", "181838.004000", "181839.267000", "181840.526000", "181841.750000", "181843.038000", "181844.259000", "181845.519000", "181846.757000", "181848.026000", "181849.269000", "181850.574000", "181851.769000", "181853.018000", "181854.274000", "181855.503000", "181856.747000", "181858.027000", "181859.264000", "181900.524000", "181901.756000", "181903.019000", "181904.256000", "181905.537000", "181906.765000", "181908.019000", "181909.251000", "181910.497000", "181911.766000", "181913.018000", "181914.252000", "181915.499000", "181916.785000", "181918.025000", "181919.260000", "181920.546000", "181921.766000", "181923.007000", "181924.259000", "181925.512000", "181926.767000", "181928.008000", "181929.262000", "181930.516000", "181931.783000", "181933.023000", "181934.270000", "181935.509000", "181936.751000", "181938.013000", "181939.253000", "181940.496000", "181941.771000", "181943.007000", "181944.249000", "181945.502000", "181946.743000", "181948.003000", "181949.269000", "181950.515000", "181951.774000", "181953.036000", "181954.288000", "181955.528000", "181956.799000", "181958.066000", "181959.318000", "182000.537000", "182001.788000", "182003.026000", "182004.268000", "182005.526000", "182006.765000", "182008.030000", "182009.278000", "182010.539000", "182011.769000", "182013.025000", "182014.279000", "182015.558000", "182016.762000", "182018.034000", "182019.258000", "182020.526000", "182021.775000", "182023.032000", "182024.284000", "182025.534000", "182026.768000", "182028.035000", "182029.282000", "182030.540000", "182031.800000", "182033.002000", "182034.283000", "182035.533000", "182036.791000", "182038.035000", "182039.273000", "182040.522000", "182041.785000", "182043.015000", "182044.262000", "182045.526000", "182046.775000", "182048.083000", "182049.245000", "182050.519000", "182051.755000", "182053.013000", "182054.291000", "182055.532000", "182056.778000", "182058.025000", "182059.286000", "182100.515000", "182101.769000", "182103.028000", "182104.264000", "182105.510000", "182106.774000", "182108.031000", "182109.275000", "182110.537000", "182111.771000", "182113.041000", "182114.275000", "182115.516000", "182116.765000", "182118.009000", "182119.266000", "182120.530000", "182121.770000", "182123.027000", "182124.276000", "182125.505000", "182126.776000", "182128.040000", "182129.264000", "182130.517000", "182131.779000", "182133.034000", "182134.277000", "182135.526000", "182136.767000", "182138.019000", "182139.288000", "182140.519000", "182141.779000", "182143.042000", "182144.289000", "182145.533000", "182146.766000", "182148.019000", "182149.269000", "182150.510000", "182151.772000", "182153.008000", "182154.308000", "182155.533000", "182156.764000", "182158.029000", "182159.264000", "182200.522000", "182201.778000", "182203.021000", "182204.268000", "182205.526000", "182206.826000", "182208.029000", "182209.275000", "182210.544000", "182211.771000", "182213.010000", "182214.295000", "182215.522000", "182216.764000", "182218.009000", "182219.302000", "182220.593000", "182221.795000", "182223.026000", "182224.273000", "182225.546000", "182226.755000", "182228.016000", "182229.283000", "182230.517000", "182231.798000", "182233.026000", "182234.250000", "182235.527000", "182236.839000", "182238.013000", "182239.275000", "182240.508000", "182241.766000", "182243.038000", "182244.289000", "182245.503000", "182246.772000", "182248.044000", "182249.272000", "182250.518000", "182251.779000", "182253.022000", "182254.245000", "182255.499000", "182256.781000", "182258.009000", "182259.262000", "182300.514000", "182301.756000", "182303.038000", "182304.278000", "182305.502000", "182306.806000", "182308.019000", "182309.258000", "182310.510000", "182311.744000", "182313.045000", "182314.294000", "182315.532000", "182316.758000", "182318.004000", "182319.264000", "182320.509000", "182321.782000", "182323.037000", "182324.274000", "182325.518000", "182326.805000", "182328.019000", "182329.281000", "182330.499000", "182331.785000", "182333.030000", "182334.250000", "182335.531000", "182336.758000", "182338.069000", "182339.282000", "182340.526000", "182341.762000", "182343.023000", "182344.276000", "182345.538000", "182346.774000", "182348.042000", "182349.266000", "182350.493000", "182351.782000", "182353.025000", "182354.270000", "182355.503000", "182356.764000", "182358.022000", "182359.277000", "182400.523000", "182401.752000", "182403.002000", "182404.248000", "182405.507000", "182406.754000", "182408.022000", "182409.257000", "182410.512000", "182411.776000", "182413.029000", "182414.288000", "182415.520000", "182416.768000", "182418.052000", "182419.268000", "182420.514000", "182421.774000", "182423.005000", "182424.262000", "182425.524000", "182426.766000", "182428.050000", "182429.260000", "182430.531000", "182431.775000", "182433.055000"],
      "InstanceCreationTime": ["181748.189000", "181749.247000", "181750.496000", "181751.762000", "181753.028000", "181754.267000", "181755.506000", "181756.791000", "181758.019000", "181759.263000", "181800.516000", "181801.770000", "181803.001000", "181804.252000", "181805.514000", "181806.766000", "181808.016000", "181809.281000", "181810.507000", "181811.757000", "181813.007000", "181814.272000", "181815.516000", "181816.740000", "181818.024000", "181819.307000", "181820.516000", "181821.760000", "181823.026000", "181824.270000", "181825.501000", "181826.744000", "181828.029000", "181829.313000", "181830.509000", "181831.786000", "181833.023000", "181834.268000", "181835.516000", "181836.776000", "181838.004000", "181839.267000", "181840.526000", "181841.750000", "181843.038000", "181844.259000", "181845.519000", "181846.757000", "181848.026000", "181849.269000", "181850.574000", "181851.769000", "181853.018000", "181854.274000", "181855.503000", "181856.747000", "181858.027000", "181859.264000", "181900.524000", "181901.756000", "181903.019000", "181904.256000", "181905.537000", "181906.765000", "181908.019000", "181909.251000", "181910.497000", "181911.766000", "181913.018000", "181914.252000", "181915.499000", "181916.785000", "181918.025000", "181919.260000", "181920.546000", "181921.766000", "181923.007000", "181924.259000", "181925.512000", "181926.767000", "181928.008000", "181929.262000", "181930.516000", "181931.783000", "181933.023000", "181934.270000", "181935.509000", "181936.751000", "181938.013000", "181939.253000", "181940.496000", "181941.771000", "181943.007000", "181944.249000", "181945.502000", "181946.743000", "181948.003000", "181949.269000", "181950.515000", "181951.774000", "181953.036000", "181954.288000", "181955.528000", "181956.799000", "181958.066000", "181959.318000", "182000.537000", "182001.788000", "182003.026000", "182004.268000", "182005.526000", "182006.765000", "182008.030000", "182009.278000", "182010.539000", "182011.769000", "182013.025000", "182014.279000", "182015.558000", "182016.762000", "182018.034000", "182019.258000", "182020.526000", "182021.775000", "182023.032000", "182024.284000", "182025.534000", "182026.768000", "182028.035000", "182029.282000", "182030.540000", "182031.800000", "182033.002000", "182034.283000", "182035.533000", "182036.791000", "182038.035000", "182039.273000", "182040.522000", "182041.785000", "182043.015000", "182044.262000", "182045.526000", "182046.775000", "182048.083000", "182049.245000", "182050.519000", "182051.755000", "182053.013000", "182054.291000", "182055.532000", "182056.778000", "182058.025000", "182059.286000", "182100.515000", "182101.769000", "182103.028000", "182104.264000", "182105.510000", "182106.774000", "182108.031000", "182109.275000", "182110.537000", "182111.771000", "182113.041000", "182114.275000", "182115.516000", "182116.765000", "182118.009000", "182119.266000", "182120.530000", "182121.770000", "182123.027000", "182124.276000", "182125.505000", "182126.776000", "182128.040000", "182129.264000", "182130.517000", "182131.779000", "182133.034000", "182134.277000", "182135.526000", "182136.767000", "182138.019000", "182139.288000", "182140.519000", "182141.779000", "182143.042000", "182144.289000", "182145.533000", "182146.766000", "182148.019000", "182149.269000", "182150.510000", "182151.772000", "182153.008000", "182154.308000", "182155.533000", "182156.764000", "182158.029000", "182159.264000", "182200.522000", "182201.778000", "182203.021000", "182204.268000", "182205.526000", "182206.826000", "182208.029000", "182209.275000", "182210.544000", "182211.771000", "182213.010000", "182214.295000", "182215.522000", "182216.764000", "182218.009000", "182219.302000", "182220.593000", "182221.795000", "182223.026000", "182224.273000", "182225.546000", "182226.755000", "182228.016000", "182229.283000", "182230.517000", "182231.798000", "182233.026000", "182234.250000", "182235.527000", "182236.839000", "182238.013000", "182239.275000", "182240.508000", "182241.766000", "182243.038000", "182244.289000", "182245.503000", "182246.772000", "182248.044000", "182249.272000", "182250.518000", "182251.779000", "182253.022000", "182254.245000", "182255.499000", "182256.781000", "182258.009000", "182259.262000", "182300.514000", "182301.756000", "182303.038000", "182304.278000", "182305.502000", "182306.806000", "182308.019000", "182309.258000", "182310.510000", "182311.744000", "182313.045000", "182314.294000", "182315.532000", "182316.758000", "182318.004000", "182319.264000", "182320.509000", "182321.782000", "182323.037000", "182324.274000", "182325.518000", "182326.805000", "182328.019000", "182329.281000", "182330.499000", "182331.785000", "182333.030000", "182334.250000", "182335.531000", "182336.758000", "182338.069000", "182339.282000", "182340.526000", "182341.762000", "182343.023000", "182344.276000", "182345.538000", "182346.774000", "182348.042000", "182349.266000", "182350.493000", "182351.782000", "182353.025000", "182354.270000", "182355.503000", "182356.764000", "182358.022000", "182359.277000", "182400.523000", "182401.752000", "182403.002000", "182404.248000", "182405.507000", "182406.754000", "182408.022000", "182409.257000", "182410.512000", "182411.776000", "182413.029000", "182414.288000", "182415.520000", "182416.768000", "182418.052000", "182419.268000", "182420.514000", "182421.774000", "182423.005000", "182424.262000", "182425.524000", "182426.766000", "182428.050000", "182429.260000", "182430.531000", "182431.775000", "182433.055000"],
      "InstanceNumber": [1, 2, 3, 4, 5, 6, 7, 8, 9, 10, 11, 12, 13, 14, 15, 16, 17, 18, 19, 20, 21, 22, 23, 24, 25, 26, 27, 28, 29, 30, 31, 32, 33, 34, 35, 36, 37, 38, 39, 40, 41, 42, 43, 44, 45, 46, 47, 48, 49, 50, 51, 52, 53, 54, 55, 56, 57, 58, 59, 60, 61, 62, 63, 64, 65, 66, 67, 68, 69, 70, 71, 72, 73, 74, 75, 76, 77, 78, 79, 80, 81, 82, 83, 84, 85, 86, 87, 88, 89, 90, 91, 92, 93, 94, 95, 96, 97, 98, 99, 100, 101, 102, 103, 104, 105, 106, 107, 108, 109, 110, 111, 112, 113, 114, 115, 116, 117, 118, 119, 120, 121, 122, 123, 124, 125, 126, 127, 128, 129, 130, 131, 132, 133, 134, 135, 136, 137, 138, 139, 140, 141, 142, 143, 144, 145, 146, 147, 148, 149, 150, 151, 152, 153, 154, 155, 156, 157, 158, 159, 160, 161, 162, 163, 164, 165, 166, 167, 168, 169, 170, 171, 172, 173, 174, 175, 176, 177, 178, 179, 180, 181, 182, 183, 184, 185, 186, 187, 188, 189, 190, 191, 192, 193, 194, 195, 196, 197, 198, 199, 200, 201, 202, 203, 204, 205, 206, 207, 208, 209, 210, 211, 212, 213, 214, 215, 216, 217, 218, 219, 220, 221, 222, 223, 224, 225, 226, 227, 228, 229, 230, 231, 232, 233, 234, 235, 236, 237, 238, 239, 240, 241, 242, 243, 244, 245, 246, 247, 248, 249, 250, 251, 252, 253, 254, 255, 256, 257, 258, 259, 260, 261, 262, 263, 264, 265, 266, 267, 268, 269, 270, 271, 272, 273, 274, 275, 276, 277, 278, 279, 280, 281, 282, 283, 284, 285, 286, 287, 288, 289, 290, 291, 292, 293, 294, 295, 296, 297, 298, 299, 300, 301, 302, 303, 304, 305, 306, 307, 308, 309, 310, 311, 312, 313, 314, 315, 316, 317, 318, 319, 320, 321, 322, 323, 324, 325],
      "LargestImagePixelValue": [998, 872, 753, 947, 1257, 737, 721, 884, 1208, 772, 750, 769, 911, 1019, 733, 725, 730, 1038, 729, 706, 1006, 1254, 748, 770, 1152, 1224, 791, 732, 830, 879, 733, 733, 825, 1087, 1077, 754, 795, 827, 1144, 1046, 767, 735, 834, 1010, 725, 734, 774, 1236, 736, 732, 834, 1177, 833, 738, 773, 756, 1021, 771, 727, 741, 860, 915, 733, 729, 1153, 930, 727, 885, 845, 1084, 737, 735, 781, 1176, 987, 770, 732, 826, 981, 750, 731, 837, 1129, 1139, 786, 735, 814, 888, 1094, 747, 730, 729, 860, 838, 736, 731, 860, 821, 1129, 1125, 782, 740, 730, 828, 1028, 744, 731, 963, 844, 1235, 865, 744, 726, 753, 905, 1046, 903, 754, 739, 805, 780, 736, 748, 874, 1101, 981, 775, 746, 1151, 942, 1221, 779, 737, 733, 731, 885, 1011, 964, 759, 746, 811, 812, 1135, 738, 723, 829, 878, 1116, 748, 727, 739, 775, 1196, 800, 736, 778, 918, 1062, 1129, 756, 741, 846, 890, 1061, 739, 731, 747, 1008, 1054, 743, 738, 769, 799, 1106, 789, 744, 735, 798, 1033, 1051, 752, 734, 773, 790, 1061, 1064, 738, 772, 858, 820, 1166, 758, 737, 744, 912, 1122, 754, 739, 731, 1041, 1118, 749, 724, 841, 867, 1103, 958, 771, 741, 746, 799, 938, 733, 738, 732, 825, 1144, 748, 735, 1013, 1229, 751, 737, 924, 1041, 1141, 773, 732, 755, 944, 1026, 752, 740, 815, 1060, 1077, 767, 732, 951, 915, 1097, 749, 732, 769, 806, 916, 863, 747, 727, 839, 843, 1173, 775, 747, 761, 864, 999, 1041, 766, 740, 899, 851, 1082, 736, 747, 726, 1137, 1137, 820, 765, 744, 815, 1087, 745, 738, 816, 832, 1171, 785, 751, 749, 854, 1093, 985, 765, 742, 825, 802, 1135, 760, 746, 744, 841, 931, 1112, 752, 743, 858, 771, 915, 943, 1057, 756, 739, 737, 829, 875, 1025, 742, 746, 718, 891, 1167, 762, 744, 1101, 958, 1143, 752, 745, 782, 912, 1131, 1022, 771],
      "WindowCenter": [347.0, 342.0, 338.0, 342.0, 351.0, 337.0, 336.0, 341.0, 350.0, 338.0, 337.0, 337.0, 342.0, 345.0, 337.0, 336.0, 338.0, 346.0, 337.0, 337.0, 345.0, 352.0, 338.0, 339.0, 349.0, 349.0, 338.0, 336.0, 340.0, 341.0, 337.0, 337.0, 339.0, 347.0, 346.0, 337.0, 338.0, 338.0, 347.0, 345.0, 336.0, 336.0, 339.0, 344.0, 335.0, 337.0, 337.0, 349.0, 336.0, 336.0, 339.0, 348.0, 339.0, 336.0, 337.0, 337.0, 344.0, 337.0, 335.0, 337.0, 340.0, 343.0, 337.0, 336.0, 348.0, 343.0, 336.0, 340.0, 339.0, 346.0, 336.0, 336.0, 337.0, 348.0, 343.0, 337.0, 336.0, 338.0, 344.0, 337.0, 336.0, 339.0, 347.0, 347.0, 337.0, 335.0, 338.0, 339.0, 345.0, 335.0, 335.0, 335.0, 339.0, 339.0, 336.0, 337.0, 340.0, 338.0, 346.0, 346.0, 336.0, 336.0, 336.0, 338.0, 345.0, 337.0, 336.0, 342.0, 339.0, 349.0, 340.0, 335.0, 335.0, 336.0, 340.0, 344.0, 341.0, 337.0, 336.0, 338.0, 338.0, 337.0, 337.0, 341.0, 347.0, 344.0, 337.0, 336.0, 348.0, 341.0, 348.0, 336.0, 334.0, 335.0, 335.0, 339.0, 344.0, 342.0, 336.0, 335.0, 338.0, 338.0, 347.0, 336.0, 336.0, 338.0, 340.0, 346.0, 336.0, 335.0, 336.0, 337.0, 349.0, 338.0, 336.0, 337.0, 341.0, 345.0, 346.0, 336.0, 335.0, 339.0, 341.0, 345.0, 335.0, 335.0, 335.0, 343.0, 345.0, 335.0, 336.0, 336.0, 338.0, 346.0, 337.0, 335.0, 335.0, 337.0, 345.0, 344.0, 337.0, 336.0, 337.0, 338.0, 345.0, 345.0, 335.0, 337.0, 339.0, 338.0, 347.0, 336.0, 335.0, 335.0, 341.0, 346.0, 336.0, 335.0, 335.0, 344.0, 346.0, 335.0, 335.0, 338.0, 339.0, 345.0, 342.0, 336.0, 335.0, 335.0, 337.0, 342.0, 336.0, 336.0, 336.0, 338.0, 347.0, 336.0, 336.0, 344.0, 349.0, 337.0, 336.0, 341.0, 344.0, 346.0, 336.0, 335.0, 336.0, 341.0, 343.0, 336.0, 335.0, 338.0, 345.0, 345.0, 336.0, 335.0, 342.0, 341.0, 345.0, 335.0, 335.0, 336.0, 337.0, 341.0, 339.0, 336.0, 335.0, 339.0, 339.0, 348.0, 337.0, 335.0, 336.0, 339.0, 344.0, 344.0, 337.0, 335.0, 340.0, 339.0, 345.0, 336.0, 336.0, 335.0, 347.0, 347.0, 338.0, 336.0, 335.0, 338.0, 345.0, 335.0, 336.0, 338.0, 339.0, 348.0, 337.0, 336.0, 335.0, 339.0, 346.0, 343.0, 336.0, 335.0, 338.0, 337.0, 346.0, 336.0, 335.0, 335.0, 338.0, 341.0, 346.0, 336.0, 335.0, 339.0, 336.0, 340.0, 341.0, 344.0, 336.0, 335.0, 335.0, 338.0, 339.0, 344.0, 336.0, 336.0, 336.0, 341.0, 348.0, 337.0, 336.0, 346.0, 342.0, 346.0, 336.0, 335.0, 337.0, 341.0, 347.0, 343.0, 336.0],
