{
  "AcquisitionMatrixPE": 96,
  "AcquisitionNumber": 1,
  "AcquisitionTime": "17:45:18.727500",
  "BandwidthPerPixelPhaseEncode": 18.939,
  "BaseResolution": 96,
  "BodyPartExamined": "BRAIN",
  "ConsistencyInfo": "N4_VE11C_LATEST_20160120",
  "ConversionSoftware": "dcm2niix",
  "ConversionSoftwareVersion": "v1.0.20170923 (OpenJPEG build) GCC6.3.0",
  "DerivedVendorReportedEchoSpacing": 0.000550011,
  "DeviceSerialNumber": "66112",
  "DwellTime": 2.3e-06,
  "EchoTime": 0.033,
  "EchoTrainLength": 96,
  "EffectiveEchoSpacing": 0.000550011,
  "FlipAngle": 64,
  "ImageType": [
    "ORIGINAL",
    "PRIMARY",
    "FMRI",
    "NONE",
    "ND",
    "NORM",
    "MOSAIC"
],
  "InstitutionAddress": "Maynard_3_Hanover_NH_US_03755",
  "InstitutionName": "Dartmouth_College_-_PBS",
  "MagneticFieldStrength": 3,
  "Manufacturer": "Siemens",
  "ManufacturersModelName": "Prisma",
  "Modality": "MR",
  "MultibandAccelerationFactor": 4,
  "PartialFourier": 1,
  "PercentPhaseFOV": 100,
  "PhaseEncodingDirection": "j-",
  "PhaseEncodingSteps": 96,
  "PhaseResolution": 1,
  "ProcedureStepDescription": "Gobbini_Matteo_1017_famface-angles",
  "ProtocolName": "func_run-01_task-str1back",
  "PulseSequenceDetails": "%SiemensSeq%_ep2d_bold",
  "ReceiveCoilActiveElements": "HEP",
  "ReceiveCoilName": "Head_32",
  "ReconMatrixPE": 96,
  "RepetitionTime": 1.25,
  "ScanOptions": "FS",
  "ScanningSequence": "EP",
  "SequenceName": "_epfid2d1_96",
  "SequenceVariant": "SK",
  "SeriesDescription": "func_run-01_task-str1back",
  "SliceTiming": [0.88, 0, 0.615, 0.0875, 0.7025, 0.175, 0.79, 0.3525, 0.9675, 0.44, 1.055, 0.5275, 1.1425, 0.265, 0.88, 0, 0.615, 0.0875, 0.7025, 0.175, 0.79, 0.3525, 0.9675, 0.44, 1.055, 0.5275, 1.1425, 0.265, 0.88, 0, 0.615, 0.0875, 0.7025, 0.175, 0.79, 0.3525, 0.9675, 0.44, 1.055, 0.5275, 1.1425, 0.265, 0.88, 0, 0.615, 0.0875, 0.7025, 0.175, 0.79, 0.3525, 0.9675, 0.44, 1.055, 0.5275, 1.1425, 0.265],
  "SoftwareVersions": "syngo_MR_E11",
  "StationName": "AWP66112",
  "TaskName": "str1back",
  "TotalReadoutTime": 0.0522511,
  "dcmmeta_affine": [
    [-2.4971351623535156, -0.11776188015937805, -0.021169394254684448, 128.55369567871094],
    [-0.1165677085518837, 2.4941794872283936, -0.12442245334386826, -88.91621398925781],
    [-0.026980994269251823, 0.12329280376434326, 2.496812343597412, -87.3169937133789],
    [0.0, 0.0, 0.0, 1.0]
],
  "dcmmeta_reorient_transform": [
    [0.0, -1.0, 0.0, 95.0],
    [1.0, 0.0, 0.0, 0.0],
    [0.0, 0.0, 1.0, 0.0],
    [0.0, 0.0, 0.0, 1.0]
],
  "dcmmeta_shape": [96, 96, 56, 280],
  "dcmmeta_slice_dim": 2,
  "dcmmeta_version": 0.6,
  "global": {
    "const": {
      "AccessionNumber": "A000610",
      "AcquisitionMatrix": [96, 0, 0, 96],
      "AngioFlag": "N",
      "BitsAllocated": 16,
      "BitsStored": 12,
      "BodyPartExamined": "BRAIN",
      "Columns": 768,
      "EchoNumbers": 1,
      "EchoTime": 33.0,
      "EchoTrainLength": 96,
      "FlipAngle": 64.0,
      "HighBit": 11,
      "ImageOrientationPatient": [0.99885406308245, 0.04662708235353, -0.0107923980136, -0.0471047529395, 0.99767177153345, -0.0493171221365],
      "ImagePositionPatient": [-916.83573055001, -1025.2418655518, -25.112182433222],
      "ImageType": [
        "ORIGINAL",
        "PRIMARY",
        "FMRI",
        "NONE",
        "ND",
        "NORM",
        "MOSAIC"
],
      "ImagedNucleus": "1H",
      "ImagingFrequency": 123.252377,
      "InPlanePhaseEncodingDirection": "COL",
      "MRAcquisitionType": "2D",
      "MagneticFieldStrength": 3.0,
      "Manufacturer": "SIEMENS",
      "ManufacturerModelName": "Prisma",
      "Modality": "MR",
      "NumberOfAverages": 1.0,
      "NumberOfPhaseEncodingSteps": 96,
      "PercentPhaseFieldOfView": 100.0,
      "PercentSampling": 100.0,
      "PerformedProcedureStepStartTime": "172747.956000",
      "PhotometricInterpretation": "MONOCHROME2",
      "PixelBandwidth": 2265.0,
      "PixelRepresentation": 0,
      "PixelSpacing": [2.5, 2.5],
      "PositionReferenceIndicator": "",
      "ProtocolName": "func_run-01_task-str1back",
      "RepetitionTime": 1250.0,
      "Rows": 768,
      "SAR": 0.0471560695587,
      "SamplesPerPixel": 1,
      "ScanOptions": "FS",
      "ScanningSequence": "EP",
      "SequenceName": "*epfid2d1_96",
      "SequenceVariant": "SK",
      "SeriesDescription": "func_run-01_task-str1back",
      "SeriesNumber": 8,
      "SeriesTime": "174519.662000",
      "SliceLocation": -83.868946354438,
      "SliceThickness": 2.5,
      "SmallestImagePixelValue": 0,
      "SoftwareVersions": "syngo MR E11",
      "SpacingBetweenSlices": 2.5000000804829,
      "SpecificCharacterSet": "ISO_IR 100",
      "StudyID": "2",
      "StudyTime": "172747.909000",
      "TransmitCoilName": "Body",
      "VariableFlipAngleFlag": "N",
      "WindowCenterWidthExplanation": "Algo1",
      "dBdt": 0.0},
    "slices": {}
  },
  "time": {
    "samples": {
      "AcquisitionNumber": [1, 2, 3, 4, 5, 6, 7, 8, 9, 10, 11, 12, 13, 14, 15, 16, 17, 18, 19, 20, 21, 22, 23, 24, 25, 26, 27, 28, 29, 30, 31, 32, 33, 34, 35, 36, 37, 38, 39, 40, 41, 42, 43, 44, 45, 46, 47, 48, 49, 50, 51, 52, 53, 54, 55, 56, 57, 58, 59, 60, 61, 62, 63, 64, 65, 66, 67, 68, 69, 70, 71, 72, 73, 74, 75, 76, 77, 78, 79, 80, 81, 82, 83, 84, 85, 86, 87, 88, 89, 90, 91, 92, 93, 94, 95, 96, 97, 98, 99, 100, 101, 102, 103, 104, 105, 106, 107, 108, 109, 110, 111, 112, 113, 114, 115, 116, 117, 118, 119, 120, 121, 122, 123, 124, 125, 126, 127, 128, 129, 130, 131, 132, 133, 134, 135, 136, 137, 138, 139, 140, 141, 142, 143, 144, 145, 146, 147, 148, 149, 150, 151, 152, 153, 154, 155, 156, 157, 158, 159, 160, 161, 162, 163, 164, 165, 166, 167, 168, 169, 170, 171, 172, 173, 174, 175, 176, 177, 178, 179, 180, 181, 182, 183, 184, 185, 186, 187, 188, 189, 190, 191, 192, 193, 194, 195, 196, 197, 198, 199, 200, 201, 202, 203, 204, 205, 206, 207, 208, 209, 210, 211, 212, 213, 214, 215, 216, 217, 218, 219, 220, 221, 222, 223, 224, 225, 226, 227, 228, 229, 230, 231, 232, 233, 234, 235, 236, 237, 238, 239, 240, 241, 242, 243, 244, 245, 246, 247, 248, 249, 250, 251, 252, 253, 254, 255, 256, 257, 258, 259, 260, 261, 262, 263, 264, 265, 266, 267, 268, 269, 270, 271, 272, 273, 274, 275, 276, 277, 278, 279, 280],
      "AcquisitionTime": ["174518.727500", "174519.977500", "174521.227500", "174522.477500", "174523.727500", "174524.977500", "174526.227500", "174527.477500", "174528.727500", "174529.977500", "174531.227500", "174532.477500", "174533.727500", "174534.977500", "174536.227500", "174537.477500", "174538.727500", "174539.977500", "174541.227500", "174542.477500", "174543.727500", "174544.977500", "174546.227500", "174547.477500", "174548.727500", "174549.977500", "174551.227500", "174552.477500", "174553.727500", "174554.977500", "174556.227500", "174557.477500", "174558.727500", "174559.977500", "174601.227500", "174602.477500", "174603.727500", "174604.977500", "174606.227500", "174607.477500", "174608.727500", "174609.977500", "174611.227500", "174612.477500", "174613.727500", "174614.977500", "174616.227500", "174617.477500", "174618.727500", "174619.977500", "174621.227500", "174622.477500", "174623.727500", "174624.977500", "174626.227500", "174627.477500", "174628.727500", "174629.977500", "174631.227500", "174632.477500", "174633.727500", "174634.977500", "174636.227500", "174637.477500", "174638.727500", "174639.977500", "174641.227500", "174642.477500", "174643.727500", "174644.977500", "174646.227500", "174647.477500", "174648.727500", "174649.977500", "174651.227500", "174652.477500", "174653.727500", "174654.977500", "174656.227500", "174657.477500", "174658.727500", "174659.977500", "174701.227500", "174702.477500", "174703.727500", "174704.977500", "174706.227500", "174707.477500", "174708.727500", "174709.977500", "174711.227500", "174712.477500", "174713.727500", "174714.977500", "174716.227500", "174717.477500", "174718.727500", "174719.977500", "174721.227500", "174722.477500", "174723.727500", "174724.977500", "174726.227500", "174727.477500", "174728.727500", "174729.977500", "174731.227500", "174732.477500", "174733.727500", "174734.977500", "174736.227500", "174737.477500", "174738.727500", "174739.977500", "174741.227500", "174742.477500", "174743.727500", "174744.977500", "174746.227500", "174747.477500", "174748.727500", "174749.977500", "174751.227500", "174752.477500", "174753.727500", "174754.977500", "174756.227500", "174757.477500", "174758.727500", "174759.977500", "174801.227500", "174802.477500", "174803.727500", "174804.977500", "174806.227500", "174807.477500", "174808.727500", "174809.977500", "174811.227500", "174812.477500", "174813.727500", "174814.977500", "174816.227500", "174817.477500", "174818.727500", "174819.977500", "174821.227500", "174822.477500", "174823.727500", "174824.977500", "174826.227500", "174827.477500", "174828.727500", "174829.977500", "174831.227500", "174832.477500", "174833.727500", "174834.977500", "174836.227500", "174837.477500", "174838.727500", "174839.977500", "174841.227500", "174842.477500", "174843.727500", "174844.977500", "174846.227500", "174847.477500", "174848.727500", "174849.977500", "174851.227500", "174852.477500", "174853.727500", "174854.977500", "174856.227500", "174857.477500", "174858.727500", "174859.977500", "174901.227500", "174902.477500", "174903.727500", "174904.977500", "174906.227500", "174907.477500", "174908.727500", "174909.977500", "174911.227500", "174912.477500", "174913.727500", "174914.977500", "174916.227500", "174917.477500", "174918.727500", "174919.977500", "174921.227500", "174922.477500", "174923.727500", "174924.977500", "174926.227500", "174927.477500", "174928.727500", "174929.977500", "174931.227500", "174932.477500", "174933.727500", "174934.977500", "174936.227500", "174937.477500", "174938.727500", "174939.977500", "174941.227500", "174942.477500", "174943.727500", "174944.977500", "174946.227500", "174947.477500", "174948.727500", "174949.977500", "174951.227500", "174952.477500", "174953.727500", "174954.977500", "174956.227500", "174957.477500", "174958.727500", "174959.977500", "175001.227500", "175002.477500", "175003.727500", "175004.977500", "175006.227500", "175007.477500", "175008.727500", "175009.977500", "175011.227500", "175012.477500", "175013.727500", "175014.977500", "175016.227500", "175017.477500", "175018.727500", "175019.977500", "175021.227500", "175022.477500", "175023.727500", "175024.977500", "175026.227500", "175027.477500", "175028.727500", "175029.977500", "175031.227500", "175032.477500", "175033.727500", "175034.977500", "175036.227500", "175037.477500", "175038.727500", "175039.977500", "175041.227500", "175042.477500", "175043.727500", "175044.977500", "175046.227500", "175047.477500", "175048.727500", "175049.977500", "175051.227500", "175052.477500", "175053.727500", "175054.977500", "175056.227500", "175057.477500", "175058.727500", "175059.977500", "175101.227500", "175102.477500", "175103.727500", "175104.977500", "175106.227500", "175107.477500"],
      "ContentTime": ["174519.666000", "174520.817000", "174522.042000", "174523.313000", "174524.569000", "174525.814000", "174527.076000", "174528.310000", "174529.578000", "174530.830000", "174532.063000", "174533.311000", "174534.558000", "174535.806000", "174537.044000", "174538.313000", "174539.561000", "174540.800000", "174542.053000", "174543.313000", "174544.586000", "174545.811000", "174547.056000", "174548.298000", "174549.551000", "174550.788000", "174552.060000", "174553.335000", "174554.568000", "174555.804000", "174557.082000", "174558.298000", "174559.555000", "174600.811000", "174602.045000", "174603.312000", "174604.538000", "174605.792000", "174607.055000", "174608.307000", "174609.536000", "174610.781000", "174612.050000", "174613.337000", "174614.564000", "174615.848000", "174617.066000", "174618.318000", "174619.563000", "174620.797000", "174622.068000", "174623.284000", "174624.549000", "174625.823000", "174627.073000", "174628.299000", "174629.553000", "174630.807000", "174632.063000", "174633.304000", "174634.562000", "174635.810000", "174637.050000", "174638.318000", "174639.572000", "174640.811000", "174642.067000", "174643.307000", "174644.552000", "174645.807000", "174647.055000", "174648.297000", "174649.562000", "174650.818000", "174652.054000", "174653.286000", "174654.570000", "174655.797000", "174657.052000", "174658.331000", "174659.541000", "174700.810000", "174702.052000", "174703.330000", "174704.539000", "174705.775000", "174707.061000", "174708.308000", "174709.560000", "174710.813000", "174712.062000", "174713.300000", "174714.565000", "174715.829000", "174717.063000", "174718.319000", "174719.551000", "174720.822000", "174722.056000", "174723.304000", "174724.624000", "174725.868000", "174727.083000", "174728.309000", "174729.565000", "174730.830000", "174732.065000", "174733.305000", "174734.555000", "174735.854000", "174737.061000", "174738.307000", "174739.540000", "174740.812000", "174742.065000", "174743.335000", "174744.547000", "174745.794000", "174747.065000", "174748.293000", "174749.586000", "174750.815000", "174752.068000", "174753.299000", "174754.567000", "174755.827000", "174757.064000", "174758.299000", "174759.576000", "174800.808000", "174802.065000", "174803.316000", "174804.573000", "174805.826000", "174807.071000", "174808.319000", "174809.562000", "174810.803000", "174812.074000", "174813.306000", "174814.567000", "174815.794000", "174817.070000", "174818.307000", "174819.563000", "174820.834000", "174822.098000", "174823.332000", "174824.573000", "174825.818000", "174827.077000", "174828.282000", "174829.571000", "174830.821000", "174832.048000", "174833.321000", "174834.566000", "174835.836000", "174837.076000", "174838.301000", "174839.585000", "174840.866000", "174842.082000", "174843.314000", "174844.561000", "174845.812000", "174847.068000", "174848.292000", "174849.583000", "174850.805000", "174852.058000", "174853.318000", "174854.560000", "174855.818000", "174857.043000", "174858.311000", "174859.553000", "174900.818000", "174902.078000", "174903.305000", "174904.612000", "174905.817000", "174907.066000", "174908.311000", "174909.562000", "174910.813000", "174912.121000", "174913.317000", "174914.574000", "174915.980000", "174917.076000", "174918.314000", "174919.566000", "174920.832000", "174922.054000", "174923.316000", "174924.583000", "174925.819000", "174927.054000", "174928.314000", "174929.546000", "174930.813000", "174932.068000", "174933.298000", "174934.585000", "174935.809000", "174937.060000", "174938.301000", "174939.584000", "174940.794000", "174942.069000", "174943.318000", "174944.577000", "174945.820000", "174947.065000", "174948.299000", "174949.569000", "174950.807000", "174952.057000", "174953.313000", "174954.596000", "174955.825000", "174957.056000", "174958.305000", "174959.551000", "175000.810000", "175002.120000", "175003.315000", "175004.567000", "175005.837000", "175007.054000", "175008.330000", "175009.578000", "175010.844000", "175012.069000", "175013.339000", "175014.545000", "175015.815000", "175017.067000", "175018.310000", "175019.566000", "175020.853000", "175022.066000", "175023.304000", "175024.584000", "175025.825000", "175027.067000", "175028.324000", "175029.567000", "175030.811000", "175032.066000", "175033.313000", "175034.567000", "175035.819000", "175037.084000", "175038.304000", "175039.549000", "175040.829000", "175042.069000", "175043.302000", "175044.571000", "175045.814000", "175047.053000", "175048.321000", "175049.550000", "175050.815000", "175052.063000", "175053.326000", "175054.565000", "175055.871000", "175057.056000", "175058.309000", "175059.569000", "175100.818000", "175102.047000", "175103.307000", "175104.569000", "175105.823000", "175107.063000", "175108.372000"],
      "InstanceCreationTime": ["174519.666000", "174520.817000", "174522.042000", "174523.313000", "174524.569000", "174525.814000", "174527.076000", "174528.310000", "174529.578000", "174530.830000", "174532.063000", "174533.311000", "174534.558000", "174535.806000", "174537.044000", "174538.313000", "174539.561000", "174540.800000", "174542.053000", "174543.313000", "174544.586000", "174545.811000", "174547.056000", "174548.298000", "174549.551000", "174550.788000", "174552.060000", "174553.335000", "174554.568000", "174555.804000", "174557.082000", "174558.298000", "174559.555000", "174600.811000", "174602.045000", "174603.312000", "174604.538000", "174605.792000", "174607.055000", "174608.307000", "174609.536000", "174610.781000", "174612.050000", "174613.337000", "174614.564000", "174615.848000", "174617.066000", "174618.318000", "174619.563000", "174620.797000", "174622.068000", "174623.284000", "174624.549000", "174625.823000", "174627.073000", "174628.299000", "174629.553000", "174630.807000", "174632.063000", "174633.304000", "174634.562000", "174635.810000", "174637.050000", "174638.318000", "174639.572000", "174640.811000", "174642.067000", "174643.307000", "174644.552000", "174645.807000", "174647.055000", "174648.297000", "174649.562000", "174650.818000", "174652.054000", "174653.286000", "174654.570000", "174655.797000", "174657.052000", "174658.331000", "174659.541000", "174700.810000", "174702.052000", "174703.330000", "174704.539000", "174705.775000", "174707.061000", "174708.308000", "174709.560000", "174710.813000", "174712.062000", "174713.300000", "174714.565000", "174715.829000", "174717.063000", "174718.319000", "174719.551000", "174720.822000", "174722.056000", "174723.304000", "174724.624000", "174725.868000", "174727.083000", "174728.309000", "174729.565000", "174730.830000", "174732.065000", "174733.305000", "174734.555000", "174735.854000", "174737.061000", "174738.307000", "174739.540000", "174740.812000", "174742.065000", "174743.335000", "174744.547000", "174745.794000", "174747.065000", "174748.293000", "174749.586000", "174750.815000", "174752.068000", "174753.299000", "174754.567000", "174755.827000", "174757.064000", "174758.299000", "174759.576000", "174800.808000", "174802.065000", "174803.316000", "174804.573000", "174805.826000", "174807.071000", "174808.319000", "174809.562000", "174810.803000", "174812.074000", "174813.306000", "174814.567000", "174815.794000", "174817.070000", "174818.307000", "174819.563000", "174820.834000", "174822.098000", "174823.332000", "174824.573000", "174825.818000", "174827.077000", "174828.282000", "174829.571000", "174830.821000", "174832.048000", "174833.321000", "174834.566000", "174835.836000", "174837.076000", "174838.301000", "174839.585000", "174840.866000", "174842.082000", "174843.314000", "174844.561000", "174845.812000", "174847.068000", "174848.292000", "174849.583000", "174850.805000", "174852.058000", "174853.318000", "174854.560000", "174855.818000", "174857.043000", "174858.311000", "174859.553000", "174900.818000", "174902.078000", "174903.305000", "174904.612000", "174905.817000", "174907.066000", "174908.311000", "174909.562000", "174910.813000", "174912.121000", "174913.317000", "174914.574000", "174915.980000", "174917.076000", "174918.314000", "174919.566000", "174920.832000", "174922.054000", "174923.316000", "174924.583000", "174925.819000", "174927.054000", "174928.314000", "174929.546000", "174930.813000", "174932.068000", "174933.298000", "174934.585000", "174935.809000", "174937.060000", "174938.301000", "174939.584000", "174940.794000", "174942.069000", "174943.318000", "174944.577000", "174945.820000", "174947.065000", "174948.299000", "174949.569000", "174950.807000", "174952.057000", "174953.313000", "174954.596000", "174955.825000", "174957.056000", "174958.305000", "174959.551000", "175000.810000", "175002.120000", "175003.315000", "175004.567000", "175005.837000", "175007.054000", "175008.330000", "175009.578000", "175010.844000", "175012.069000", "175013.339000", "175014.545000", "175015.815000", "175017.067000", "175018.310000", "175019.566000", "175020.853000", "175022.066000", "175023.304000", "175024.584000", "175025.825000", "175027.067000", "175028.324000", "175029.567000", "175030.811000", "175032.066000", "175033.313000", "175034.567000", "175035.819000", "175037.084000", "175038.304000", "175039.549000", "175040.829000", "175042.069000", "175043.302000", "175044.571000", "175045.814000", "175047.053000", "175048.321000", "175049.550000", "175050.815000", "175052.063000", "175053.326000", "175054.565000", "175055.871000", "175057.056000", "175058.309000", "175059.569000", "175100.818000", "175102.047000", "175103.307000", "175104.569000", "175105.823000", "175107.063000", "175108.372000"],
      "InstanceNumber": [1, 2, 3, 4, 5, 6, 7, 8, 9, 10, 11, 12, 13, 14, 15, 16, 17, 18, 19, 20, 21, 22, 23, 24, 25, 26, 27, 28, 29, 30, 31, 32, 33, 34, 35, 36, 37, 38, 39, 40, 41, 42, 43, 44, 45, 46, 47, 48, 49, 50, 51, 52, 53, 54, 55, 56, 57, 58, 59, 60, 61, 62, 63, 64, 65, 66, 67, 68, 69, 70, 71, 72, 73, 74, 75, 76, 77, 78, 79, 80, 81, 82, 83, 84, 85, 86, 87, 88, 89, 90, 91, 92, 93, 94, 95, 96, 97, 98, 99, 100, 101, 102, 103, 104, 105, 106, 107, 108, 109, 110, 111, 112, 113, 114, 115, 116, 117, 118, 119, 120, 121, 122, 123, 124, 125, 126, 127, 128, 129, 130, 131, 132, 133, 134, 135, 136, 137, 138, 139, 140, 141, 142, 143, 144, 145, 146, 147, 148, 149, 150, 151, 152, 153, 154, 155, 156, 157, 158, 159, 160, 161, 162, 163, 164, 165, 166, 167, 168, 169, 170, 171, 172, 173, 174, 175, 176, 177, 178, 179, 180, 181, 182, 183, 184, 185, 186, 187, 188, 189, 190, 191, 192, 193, 194, 195, 196, 197, 198, 199, 200, 201, 202, 203, 204, 205, 206, 207, 208, 209, 210, 211, 212, 213, 214, 215, 216, 217, 218, 219, 220, 221, 222, 223, 224, 225, 226, 227, 228, 229, 230, 231, 232, 233, 234, 235, 236, 237, 238, 239, 240, 241, 242, 243, 244, 245, 246, 247, 248, 249, 250, 251, 252, 253, 254, 255, 256, 257, 258, 259, 260, 261, 262, 263, 264, 265, 266, 267, 268, 269, 270, 271, 272, 273, 274, 275, 276, 277, 278, 279, 280],
      "LargestImagePixelValue": [806, 737, 1026, 861, 725, 717, 1001, 1327, 781, 784, 1049, 1102, 773, 722, 717, 1219, 766, 797, 754, 1211, 928, 733, 944, 1018, 842, 750, 850, 1288, 792, 870, 928, 1333, 756, 741, 983, 1010, 723, 712, 1242, 780, 745, 1152, 1288, 792, 722, 1011, 825, 748, 963, 994, 744, 762, 1313, 826, 763, 1243, 724, 742, 889, 1247, 743, 809, 1185, 1100, 762, 711, 1136, 998, 724, 717, 930, 723, 738, 925, 1211, 800, 759, 1267, 912, 822, 715, 1256, 710, 713, 1085, 742, 724, 1234, 832, 751, 1307, 890, 894, 987, 1237, 721, 845, 1027, 771, 744, 1021, 1015, 727, 722, 1271, 818, 746, 726, 1108, 1175, 743, 715, 931, 1099, 708, 707, 1162, 912, 822, 727, 1288, 804, 764, 745, 1146, 877, 724, 962, 1133, 854, 713, 857, 1283, 721, 752, 798, 1297, 716, 716, 1173, 1139, 748, 725, 1179, 746, 747, 1205, 1192, 748, 713, 1061, 974, 718, 911, 1101, 1022, 733, 722, 1152, 723, 750, 726, 1242, 737, 747, 1091, 887, 842, 825, 1310, 716, 720, 1204, 852, 750, 726, 1131, 780, 749, 723, 1156, 728, 720, 801, 1225, 722, 791, 939, 761, 752, 1177, 1149, 980, 771, 754, 1230, 761, 726, 804, 1225, 716, 890, 1045, 842, 712, 1189, 1162, 770, 739, 1264, 736, 729, 836, 1124, 740, 879, 1239, 801, 721, 1044, 966, 755, 819, 1328, 796, 765, 1207, 1207, 722, 724, 1101, 767, 724, 717, 1056, 1102, 752, 756, 785, 1206, 769, 718, 726, 1117, 735, 722, 730, 1085, 974, 751, 722, 1041, 1090, 731, 722, 1217, 1117, 769, 763, 983, 1264, 798, 713, 765, 1212, 777, 741, 1110, 1257, 907, 746, 836, 1213, 756, 712, 716, 1190, 1053, 729, 841],
      "WindowCenter": [341.0, 338.0, 345.0, 341.0, 337.0, 337.0, 345.0, 351.0, 338.0, 338.0, 346.0, 347.0, 338.0, 337.0, 337.0, 350.0, 338.0, 339.0, 338.0, 350.0, 342.0, 337.0, 343.0, 345.0, 339.0, 337.0, 340.0, 351.0, 339.0, 341.0, 342.0, 351.0, 337.0, 336.0, 343.0, 344.0, 336.0, 336.0, 350.0, 338.0, 336.0, 347.0, 350.0, 338.0, 336.0, 344.0, 338.0, 336.0, 343.0, 344.0, 337.0, 338.0, 351.0, 339.0, 337.0, 349.0, 336.0, 336.0, 341.0, 350.0, 337.0, 338.0, 348.0, 346.0, 337.0, 336.0, 347.0, 344.0, 336.0, 336.0, 343.0, 336.0, 337.0, 343.0, 350.0, 339.0, 337.0, 350.0, 342.0, 338.0, 336.0, 349.0, 336.0, 336.0, 347.0, 337.0, 337.0, 350.0, 340.0, 338.0, 351.0, 342.0, 341.0, 343.0, 349.0, 336.0, 339.0, 344.0, 337.0, 336.0, 344.0, 344.0, 336.0, 336.0, 350.0, 339.0, 336.0, 335.0, 345.0, 348.0, 336.0, 336.0, 342.0, 346.0, 335.0, 336.0, 348.0, 342.0, 339.0, 336.0, 350.0, 338.0, 336.0, 336.0, 347.0, 340.0, 336.0, 343.0, 347.0, 340.0, 336.0, 340.0, 350.0, 335.0, 336.0, 338.0, 350.0, 336.0, 336.0, 348.0, 347.0, 336.0, 336.0, 348.0, 336.0, 336.0, 348.0, 349.0, 336.0, 336.0, 345.0, 343.0, 335.0, 341.0, 346.0, 344.0, 336.0, 335.0, 347.0, 335.0, 336.0, 336.0, 350.0, 337.0, 336.0, 347.0, 340.0, 339.0, 339.0, 351.0, 336.0, 336.0, 349.0, 340.0, 336.0, 336.0, 347.0, 337.0, 336.0, 336.0, 347.0, 336.0, 336.0, 338.0, 349.0, 336.0, 338.0, 342.0, 337.0, 338.0, 348.0, 347.0, 343.0, 337.0, 336.0, 349.0, 337.0, 335.0, 338.0, 349.0, 336.0, 341.0, 345.0, 339.0, 336.0, 348.0, 347.0, 337.0, 336.0, 349.0, 336.0, 335.0, 339.0, 347.0, 336.0, 340.0, 349.0, 337.0, 335.0, 344.0, 343.0, 337.0, 339.0, 351.0, 338.0, 336.0, 348.0, 348.0, 335.0, 335.0, 345.0, 336.0, 335.0, 336.0, 345.0, 346.0, 336.0, 336.0, 337.0, 348.0, 337.0, 336.0, 336.0, 347.0, 337.0, 336.0, 336.0, 346.0, 344.0, 337.0, 336.0, 345.0, 346.0, 336.0, 336.0, 349.0, 347.0, 336.0, 336.0, 343.0, 349.0, 337.0, 336.0, 337.0, 349.0, 338.0, 337.0, 347.0, 350.0, 341.0, 336.0, 339.0, 348.0, 337.0, 336.0, 336.0, 349.0, 346.0, 335.0, 339.0],
      "WindowWidth": [742.0, 736.0, 744.0, 739.0, 734.0, 734.0, 744.0, 752.0, 735.0, 735.0, 744.0, 746.0, 734.0, 733.0, 734.0, 750.0, 735.0, 736.0, 734.0, 750.0, 740.0, 733.0, 740.0, 743.0, 736.0, 734.0, 738.0, 751.0, 735.0, 739.0, 740.0, 750.0, 732.0, 732.0, 741.0, 742.0, 731.0, 732.0, 749.0, 734.0, 732.0, 746.0, 750.0, 734.0, 731.0, 742.0, 735.0, 732.0, 741.0, 743.0, 733.0, 734.0, 751.0, 736.0, 733.0, 749.0, 731.0, 732.0, 738.0, 749.0, 733.0, 734.0, 748.0, 745.0, 733.0, 731.0, 746.0, 741.0, 731.0, 731.0, 741.0, 733.0, 733.0, 741.0, 750.0, 736.0, 733.0, 750.0, 739.0, 734.0, 731.0, 749.0, 731.0, 732.0, 746.0, 733.0, 733.0, 751.0, 737.0, 734.0, 752.0, 739.0, 738.0, 741.0, 748.0, 731.0, 736.0, 742.0, 733.0, 732.0, 743.0, 743.0, 731.0, 731.0, 750.0, 735.0, 731.0, 730.0, 743.0, 747.0, 731.0, 731.0, 739.0, 745.0, 730.0, 731.0, 747.0, 740.0, 735.0, 731.0, 749.0, 734.0, 732.0, 732.0, 746.0, 737.0, 731.0, 740.0, 746.0, 736.0, 731.0, 736.0, 749.0, 730.0, 732.0, 734.0, 750.0, 731.0, 731.0, 747.0, 747.0, 732.0, 732.0, 747.0, 732.0, 732.0, 748.0, 748.0, 731.0, 731.0, 743.0, 740.0, 730.0, 738.0, 744.0, 741.0, 731.0, 730.0, 746.0, 730.0, 732.0, 731.0, 749.0, 732.0, 732.0, 746.0, 737.0, 736.0, 735.0, 751.0, 731.0, 731.0, 748.0, 736.0, 732.0, 731.0, 746.0, 733.0, 732.0, 731.0, 746.0, 732.0, 732.0, 735.0, 749.0, 732.0, 735.0, 740.0, 733.0, 734.0, 747.0, 746.0, 740.0, 733.0, 732.0, 749.0, 733.0, 730.0, 734.0, 748.0, 732.0, 738.0, 743.0, 736.0, 731.0, 747.0, 747.0, 733.0, 732.0, 748.0, 731.0, 730.0, 736.0, 746.0, 732.0, 737.0, 749.0, 733.0, 730.0, 742.0, 741.0, 733.0, 735.0, 751.0, 734.0, 732.0, 747.0, 746.0, 730.0, 730.0, 743.0, 732.0, 730.0, 731.0, 743.0, 744.0, 731.0, 732.0, 733.0, 748.0, 733.0, 732.0, 732.0, 746.0, 732.0, 732.0, 732.0, 744.0, 742.0, 733.0, 732.0, 744.0, 745.0, 732.0, 732.0, 749.0, 746.0, 732.0, 732.0, 741.0, 749.0, 733.0, 731.0, 733.0, 749.0, 734.0, 733.0, 746.0, 750.0, 738.0, 731.0, 735.0, 748.0, 733.0, 731.0, 732.0, 748.0, 745.0, 730.0, 735.0]
    },
    "slices": {}
  }
}