{
  "AcquisitionMatrixPE": 96,
  "AcquisitionNumber": 1,
  "AcquisitionTime": "18:50:42.307500",
  "BandwidthPerPixelPhaseEncode": 18.939,
  "BaseResolution": 96,
  "BodyPartExamined": "BRAIN",
  "ConsistencyInfo": "N4_VE11C_LATEST_20160120",
  "ConversionSoftware": "dcm2niix",
  "ConversionSoftwareVersion": "v1.0.20170923 (OpenJPEG build) GCC6.3.0",
  "DerivedVendorReportedEchoSpacing": 0.000550011,
  "DeviceSerialNumber": "66112",
  "DwellTime": 2.3e-06,
  "EchoTime": 0.033,
  "EchoTrainLength": 96,
  "EffectiveEchoSpacing": 0.000550011,
  "FlipAngle": 64,
  "ImageType": [
    "ORIGINAL",
    "PRIMARY",
    "FMRI",
    "NONE",
    "ND",
    "NORM",
    "MOSAIC"
],
  "InstitutionAddress": "Maynard_3_Hanover_NH_US_03755",
  "InstitutionName": "Dartmouth_College_-_PBS",
  "MagneticFieldStrength": 3,
  "Manufacturer": "Siemens",
  "ManufacturersModelName": "Prisma",
  "Modality": "MR",
  "MultibandAccelerationFactor": 4,
  "PartialFourier": 1,
  "PercentPhaseFOV": 100,
  "PhaseEncodingDirection": "j-",
  "PhaseEncodingSteps": 96,
  "PhaseResolution": 1,
  "ProcedureStepDescription": "Gobbini_Matteo_1017_famface-angles",
  "ProtocolName": "func_run-11_task-fam1back",
  "PulseSequenceDetails": "%SiemensSeq%_ep2d_bold",
  "ReceiveCoilActiveElements": "HEP",
  "ReceiveCoilName": "Head_32",
  "ReconMatrixPE": 96,
  "RepetitionTime": 1.25,
  "ScanOptions": "FS",
  "ScanningSequence": "EP",
  "SequenceName": "_epfid2d1_96",
  "SequenceVariant": "SK",
  "SeriesDescription": "func_run-11_task-fam1back",
  "SliceTiming": [0.8775, 0, 0.615, 0.0875, 0.7025, 0.175, 0.79, 0.3525, 0.9675, 0.44, 1.055, 0.5275, 1.1425, 0.2625, 0.8775, 0, 0.615, 0.0875, 0.7025, 0.175, 0.79, 0.3525, 0.9675, 0.44, 1.055, 0.5275, 1.1425, 0.2625, 0.8775, 0, 0.615, 0.0875, 0.7025, 0.175, 0.79, 0.3525, 0.9675, 0.44, 1.055, 0.5275, 1.1425, 0.2625, 0.8775, 0, 0.615, 0.0875, 0.7025, 0.175, 0.79, 0.3525, 0.9675, 0.44, 1.055, 0.5275, 1.1425, 0.2625],
  "SoftwareVersions": "syngo_MR_E11",
  "StationName": "AWP66112",
  "TaskName": "fam1back",
  "TotalReadoutTime": 0.0522511,
  "dcmmeta_affine": [
    [-2.4971351623535156, -0.11776188015937805, -0.021169394254684448, 128.55369567871094],
    [-0.1165677085518837, 2.4941794872283936, -0.12442245334386826, -88.91621398925781],
    [-0.026980994269251823, 0.12329280376434326, 2.496812343597412, -87.3169937133789],
    [0.0, 0.0, 0.0, 1.0]
],
  "dcmmeta_reorient_transform": [
    [0.0, -1.0, 0.0, 95.0],
    [1.0, 0.0, 0.0, 0.0],
    [0.0, 0.0, 1.0, 0.0],
    [0.0, 0.0, 0.0, 1.0]
],
  "dcmmeta_shape": [96, 96, 56, 280],
  "dcmmeta_slice_dim": 2,
  "dcmmeta_version": 0.6,
  "global": {
    "const": {
      "AccessionNumber": "A000610",
      "AcquisitionMatrix": [96, 0, 0, 96],
      "AngioFlag": "N",
      "BitsAllocated": 16,
      "BitsStored": 12,
      "BodyPartExamined": "BRAIN",
      "Columns": 768,
      "EchoNumbers": 1,
      "EchoTime": 33.0,
      "EchoTrainLength": 96,
      "FlipAngle": 64.0,
      "HighBit": 11,
      "ImageOrientationPatient": [0.99885406308245, 0.04662708235353, -0.0107923980136, -0.0471047529395, 0.99767177153345, -0.0493171221365],
      "ImagePositionPatient": [-916.83573055001, -1025.2418655518, -25.112182433222],
      "ImageType": [
        "ORIGINAL",
        "PRIMARY",
        "FMRI",
        "NONE",
        "ND",
        "NORM",
        "MOSAIC"
],
      "ImagedNucleus": "1H",
      "ImagingFrequency": 123.252394,
      "InPlanePhaseEncodingDirection": "COL",
      "MRAcquisitionType": "2D",
      "MagneticFieldStrength": 3.0,
      "Manufacturer": "SIEMENS",
      "ManufacturerModelName": "Prisma",
      "Modality": "MR",
      "NumberOfAverages": 1.0,
      "NumberOfPhaseEncodingSteps": 96,
      "PercentPhaseFieldOfView": 100.0,
      "PercentSampling": 100.0,
      "PerformedProcedureStepStartTime": "172747.956000",
      "PhotometricInterpretation": "MONOCHROME2",
      "PixelBandwidth": 2265.0,
      "PixelRepresentation": 0,
      "PixelSpacing": [2.5, 2.5],
      "PositionReferenceIndicator": "",
      "ProtocolName": "func_run-11_task-fam1back",
      "RepetitionTime": 1250.0,
      "Rows": 768,
      "SAR": 0.0471560695587,
      "SamplesPerPixel": 1,
      "ScanOptions": "FS",
      "ScanningSequence": "EP",
      "SequenceName": "*epfid2d1_96",
      "SequenceVariant": "SK",
      "SeriesDescription": "func_run-11_task-fam1back",
      "SeriesNumber": 78,
      "SeriesTime": "185043.996000",
      "SliceLocation": -83.868946354438,
      "SliceThickness": 2.5,
      "SmallestImagePixelValue": 0,
      "SoftwareVersions": "syngo MR E11",
      "SpacingBetweenSlices": 2.5000000804829,
      "SpecificCharacterSet": "ISO_IR 100",
      "StudyID": "2",
      "StudyTime": "172747.909000",
      "TransmitCoilName": "Body",
      "VariableFlipAngleFlag": "N",
      "WindowCenterWidthExplanation": "Algo1",
      "dBdt": 0.0},
    "slices": {}
  },
  "time": {
    "samples": {
      "AcquisitionNumber": [1, 2, 3, 4, 5, 6, 7, 8, 9, 10, 11, 12, 13, 14, 15, 16, 17, 18, 19, 20, 21, 22, 23, 24, 25, 26, 27, 28, 29, 30, 31, 32, 33, 34, 35, 36, 37, 38, 39, 40, 41, 42, 43, 44, 45, 46, 47, 48, 49, 50, 51, 52, 53, 54, 55, 56, 57, 58, 59, 60, 61, 62, 63, 64, 65, 66, 67, 68, 69, 70, 71, 72, 73, 74, 75, 76, 77, 78, 79, 80, 81, 82, 83, 84, 85, 86, 87, 88, 89, 90, 91, 92, 93, 94, 95, 96, 97, 98, 99, 100, 101, 102, 103, 104, 105, 106, 107, 108, 109, 110, 111, 112, 113, 114, 115, 116, 117, 118, 119, 120, 121, 122, 123, 124, 125, 126, 127, 128, 129, 130, 131, 132, 133, 134, 135, 136, 137, 138, 139, 140, 141, 142, 143, 144, 145, 146, 147, 148, 149, 150, 151, 152, 153, 154, 155, 156, 157, 158, 159, 160, 161, 162, 163, 164, 165, 166, 167, 168, 169, 170, 171, 172, 173, 174, 175, 176, 177, 178, 179, 180, 181, 182, 183, 184, 185, 186, 187, 188, 189, 190, 191, 192, 193, 194, 195, 196, 197, 198, 199, 200, 201, 202, 203, 204, 205, 206, 207, 208, 209, 210, 211, 212, 213, 214, 215, 216, 217, 218, 219, 220, 221, 222, 223, 224, 225, 226, 227, 228, 229, 230, 231, 232, 233, 234, 235, 236, 237, 238, 239, 240, 241, 242, 243, 244, 245, 246, 247, 248, 249, 250, 251, 252, 253, 254, 255, 256, 257, 258, 259, 260, 261, 262, 263, 264, 265, 266, 267, 268, 269, 270, 271, 272, 273, 274, 275, 276, 277, 278, 279, 280],
      "AcquisitionTime": ["185042.307500", "185043.557500", "185044.807500", "185046.057500", "185047.307500", "185048.557500", "185049.807500", "185051.057500", "185052.307500", "185053.557500", "185054.807500", "185056.057500", "185057.307500", "185058.557500", "185059.807500", "185101.057500", "185102.307500", "185103.557500", "185104.807500", "185106.057500", "185107.307500", "185108.557500", "185109.807500", "185111.057500", "185112.307500", "185113.557500", "185114.807500", "185116.057500", "185117.307500", "185118.557500", "185119.807500", "185121.057500", "185122.307500", "185123.557500", "185124.807500", "185126.057500", "185127.307500", "185128.557500", "185129.807500", "185131.057500", "185132.307500", "185133.557500", "185134.807500", "185136.057500", "185137.307500", "185138.557500", "185139.807500", "185141.057500", "185142.307500", "185143.557500", "185144.807500", "185146.057500", "185147.307500", "185148.557500", "185149.807500", "185151.057500", "185152.307500", "185153.557500", "185154.807500", "185156.057500", "185157.307500", "185158.557500", "185159.807500", "185201.057500", "185202.307500", "185203.557500", "185204.807500", "185206.057500", "185207.307500", "185208.557500", "185209.807500", "185211.057500", "185212.307500", "185213.557500", "185214.807500", "185216.057500", "185217.307500", "185218.557500", "185219.807500", "185221.057500", "185222.307500", "185223.557500", "185224.807500", "185226.057500", "185227.307500", "185228.557500", "185229.807500", "185231.057500", "185232.307500", "185233.557500", "185234.807500", "185236.057500", "185237.307500", "185238.557500", "185239.807500", "185241.057500", "185242.307500", "185243.557500", "185244.807500", "185246.057500", "185247.307500", "185248.557500", "185249.807500", "185251.057500", "185252.307500", "185253.557500", "185254.807500", "185256.057500", "185257.307500", "185258.557500", "185259.807500", "185301.057500", "185302.307500", "185303.557500", "185304.807500", "185306.057500", "185307.307500", "185308.557500", "185309.807500", "185311.057500", "185312.307500", "185313.557500", "185314.807500", "185316.057500", "185317.307500", "185318.557500", "185319.807500", "185321.057500", "185322.307500", "185323.557500", "185324.807500", "185326.057500", "185327.307500", "185328.557500", "185329.807500", "185331.057500", "185332.307500", "185333.557500", "185334.807500", "185336.057500", "185337.307500", "185338.557500", "185339.807500", "185341.057500", "185342.307500", "185343.557500", "185344.807500", "185346.057500", "185347.307500", "185348.557500", "185349.807500", "185351.057500", "185352.307500", "185353.557500", "185354.807500", "185356.057500", "185357.307500", "185358.557500", "185359.807500", "185401.057500", "185402.307500", "185403.557500", "185404.807500", "185406.057500", "185407.307500", "185408.557500", "185409.807500", "185411.057500", "185412.307500", "185413.557500", "185414.807500", "185416.057500", "185417.307500", "185418.557500", "185419.807500", "185421.057500", "185422.307500", "185423.557500", "185424.807500", "185426.057500", "185427.307500", "185428.557500", "185429.807500", "185431.057500", "185432.307500", "185433.557500", "185434.807500", "185436.057500", "185437.307500", "185438.557500", "185439.807500", "185441.057500", "185442.307500", "185443.557500", "185444.807500", "185446.057500", "185447.307500", "185448.557500", "185449.807500", "185451.057500", "185452.307500", "185453.557500", "185454.807500", "185456.057500", "185457.307500", "185458.557500", "185459.807500", "185501.057500", "185502.307500", "185503.557500", "185504.807500", "185506.057500", "185507.307500", "185508.557500", "185509.807500", "185511.057500", "185512.307500", "185513.557500", "185514.807500", "185516.057500", "185517.307500", "185518.557500", "185519.807500", "185521.057500", "185522.307500", "185523.557500", "185524.807500", "185526.057500", "185527.307500", "185528.557500", "185529.807500", "185531.057500", "185532.307500", "185533.557500", "185534.807500", "185536.057500", "185537.307500", "185538.557500", "185539.807500", "185541.057500", "185542.307500", "185543.557500", "185544.807500", "185546.057500", "185547.307500", "185548.557500", "185549.807500", "185551.057500", "185552.307500", "185553.557500", "185554.807500", "185556.057500", "185557.307500", "185558.557500", "185559.807500", "185601.057500", "185602.307500", "185603.557500", "185604.807500", "185606.057500", "185607.307500", "185608.557500", "185609.807500", "185611.057500", "185612.307500", "185613.557500", "185614.807500", "185616.057500", "185617.307500", "185618.557500", "185619.807500", "185621.057500", "185622.307500", "185623.557500", "185624.807500", "185626.057500", "185627.307500", "185628.557500", "185629.807500", "185631.057500"],
      "ContentTime": ["185044.001000", "185045.183000", "185046.436000", "185047.652000", "185048.919000", "185050.161000", "185051.380000", "185052.648000", "185053.896000", "185055.175000", "185056.399000", "185057.651000", "185058.904000", "185100.147000", "185101.404000", "185102.657000", "185103.905000", "185105.140000", "185106.412000", "185107.667000", "185108.903000", "185110.161000", "185111.385000", "185112.666000", "185113.910000", "185115.151000", "185116.408000", "185117.656000", "185118.900000", "185120.155000", "185121.407000", "185122.652000", "185123.911000", "185125.132000", "185126.400000", "185127.654000", "185128.902000", "185130.151000", "185131.397000", "185132.659000", "185133.887000", "185135.162000", "185136.413000", "185137.659000", "185138.893000", "185140.149000", "185141.442000", "185142.648000", "185143.924000", "185145.172000", "185146.403000", "185147.666000", "185148.891000", "185150.143000", "185151.409000", "185152.666000", "185153.895000", "185155.156000", "185156.390000", "185157.660000", "185158.940000", "185200.173000", "185201.411000", "185202.671000", "185203.902000", "185205.159000", "185206.423000", "185207.676000", "185208.892000", "185210.164000", "185211.387000", "185212.654000", "185213.901000", "185215.168000", "185216.407000", "185217.644000", "185218.903000", "185220.167000", "185221.401000", "185222.647000", "185223.903000", "185225.152000", "185226.403000", "185227.651000", "185228.897000", "185230.160000", "185231.419000", "185232.641000", "185233.921000", "185235.143000", "185236.406000", "185237.670000", "185238.895000", "185240.148000", "185241.385000", "185242.646000", "185243.898000", "185245.146000", "185246.411000", "185247.644000", "185248.955000", "185250.194000", "185251.400000", "185252.658000", "185253.935000", "185255.175000", "185256.409000", "185257.668000", "185258.913000", "185300.150000", "185301.420000", "185302.669000", "185303.924000", "185305.186000", "185306.431000", "185307.692000", "185308.902000", "185310.176000", "185311.416000", "185312.664000", "185313.891000", "185315.149000", "185316.413000", "185317.644000", "185318.923000", "185320.166000", "185321.427000", "185322.671000", "185323.905000", "185325.168000", "185326.409000", "185327.665000", "185328.917000", "185330.161000", "185331.423000", "185332.671000", "185333.925000", "185335.169000", "185336.421000", "185337.670000", "185338.904000", "185340.156000", "185341.436000", "185342.665000", "185343.922000", "185345.183000", "185346.418000", "185347.675000", "185348.918000", "185350.166000", "185351.435000", "185352.653000", "185353.903000", "185355.195000", "185356.419000", "185357.681000", "185358.912000", "185400.184000", "185401.437000", "185402.672000", "185403.936000", "185405.160000", "185406.401000", "185407.667000", "185408.906000", "185410.158000", "185411.442000", "185412.694000", "185413.911000", "185415.160000", "185416.426000", "185417.690000", "185418.910000", "185420.171000", "185421.419000", "185422.668000", "185423.919000", "185425.144000", "185426.419000", "185427.648000", "185428.899000", "185430.153000", "185431.431000", "185432.665000", "185433.882000", "185435.166000", "185436.414000", "185437.710000", "185438.901000", "185440.162000", "185441.403000", "185442.670000", "185443.919000", "185445.161000", "185446.415000", "185447.646000", "185448.910000", "185450.136000", "185451.411000", "185452.667000", "185453.904000", "185455.162000", "185456.410000", "185457.653000", "185458.901000", "185500.176000", "185501.420000", "185502.649000", "185503.909000", "185505.157000", "185506.397000", "185507.663000", "185508.906000", "185510.169000", "185511.410000", "185512.653000", "185513.913000", "185515.156000", "185516.398000", "185517.658000", "185518.906000", "185520.165000", "185521.402000", "185522.644000", "185523.919000", "185525.150000", "185526.410000", "185527.661000", "185528.905000", "185530.176000", "185531.406000", "185532.646000", "185533.915000", "185535.149000", "185536.378000", "185537.663000", "185538.944000", "185540.152000", "185541.422000", "185542.675000", "185543.911000", "185545.139000", "185546.415000", "185547.646000", "185548.929000", "185550.179000", "185551.380000", "185552.662000", "185553.894000", "185555.176000", "185556.439000", "185557.685000", "185558.912000", "185600.161000", "185601.421000", "185602.674000", "185603.929000", "185605.155000", "185606.407000", "185607.670000", "185608.918000", "185610.173000", "185611.388000", "185612.677000", "185613.913000", "185615.176000", "185616.405000", "185617.658000", "185618.934000", "185620.164000", "185621.412000", "185622.662000", "185623.914000", "185625.151000", "185626.416000", "185627.678000", "185628.891000", "185630.171000", "185631.433000", "185632.710000"],
      "InstanceCreationTime": ["185044.001000", "185045.183000", "185046.436000", "185047.652000", "185048.919000", "185050.161000", "185051.380000", "185052.648000", "185053.896000", "185055.175000", "185056.399000", "185057.651000", "185058.904000", "185100.147000", "185101.404000", "185102.657000", "185103.905000", "185105.140000", "185106.412000", "185107.667000", "185108.903000", "185110.161000", "185111.385000", "185112.666000", "185113.910000", "185115.151000", "185116.408000", "185117.656000", "185118.900000", "185120.155000", "185121.407000", "185122.652000", "185123.911000", "185125.132000", "185126.400000", "185127.654000", "185128.902000", "185130.151000", "185131.397000", "185132.659000", "185133.887000", "185135.162000", "185136.413000", "185137.659000", "185138.893000", "185140.149000", "185141.442000", "185142.648000", "185143.924000", "185145.172000", "185146.403000", "185147.666000", "185148.891000", "185150.143000", "185151.409000", "185152.666000", "185153.895000", "185155.156000", "185156.390000", "185157.660000", "185158.940000", "185200.173000", "185201.411000", "185202.671000", "185203.902000", "185205.159000", "185206.423000", "185207.676000", "185208.892000", "185210.164000", "185211.387000", "185212.654000", "185213.901000", "185215.168000", "185216.407000", "185217.644000", "185218.903000", "185220.167000", "185221.401000", "185222.647000", "185223.903000", "185225.152000", "185226.403000", "185227.651000", "185228.897000", "185230.160000", "185231.419000", "185232.641000", "185233.921000", "185235.143000", "185236.406000", "185237.670000", "185238.895000", "185240.148000", "185241.385000", "185242.646000", "185243.898000", "185245.146000", "185246.411000", "185247.644000", "185248.955000", "185250.194000", "185251.400000", "185252.658000", "185253.935000", "185255.175000", "185256.409000", "185257.668000", "185258.913000", "185300.150000", "185301.420000", "185302.669000", "185303.924000", "185305.186000", "185306.431000", "185307.692000", "185308.902000", "185310.176000", "185311.416000", "185312.664000", "185313.891000", "185315.149000", "185316.413000", "185317.644000", "185318.923000", "185320.166000", "185321.427000", "185322.671000", "185323.905000", "185325.168000", "185326.409000", "185327.665000", "185328.917000", "185330.161000", "185331.423000", "185332.671000", "185333.925000", "185335.169000", "185336.421000", "185337.670000", "185338.904000", "185340.156000", "185341.436000", "185342.665000", "185343.922000", "185345.183000", "185346.418000", "185347.675000", "185348.918000", "185350.166000", "185351.435000", "185352.653000", "185353.903000", "185355.195000", "185356.419000", "185357.681000", "185358.912000", "185400.184000", "185401.437000", "185402.672000", "185403.936000", "185405.160000", "185406.401000", "185407.667000", "185408.906000", "185410.158000", "185411.442000", "185412.694000", "185413.911000", "185415.160000", "185416.426000", "185417.690000", "185418.910000", "185420.171000", "185421.419000", "185422.668000", "185423.919000", "185425.144000", "185426.419000", "185427.648000", "185428.899000", "185430.153000", "185431.431000", "185432.665000", "185433.882000", "185435.166000", "185436.414000", "185437.710000", "185438.901000", "185440.162000", "185441.403000", "185442.670000", "185443.919000", "185445.161000", "185446.415000", "185447.646000", "185448.910000", "185450.136000", "185451.411000", "185452.667000", "185453.904000", "185455.162000", "185456.410000", "185457.653000", "185458.901000", "185500.176000", "185501.420000", "185502.649000", "185503.909000", "185505.157000", "185506.397000", "185507.663000", "185508.906000", "185510.169000", "185511.410000", "185512.653000", "185513.913000", "185515.156000", "185516.398000", "185517.658000", "185518.906000", "185520.165000", "185521.402000", "185522.644000", "185523.919000", "185525.150000", "185526.410000", "185527.661000", "185528.905000", "185530.176000", "185531.406000", "185532.646000", "185533.915000", "185535.149000", "185536.378000", "185537.663000", "185538.944000", "185540.152000", "185541.422000", "185542.675000", "185543.911000", "185545.139000", "185546.415000", "185547.646000", "185548.929000", "185550.179000", "185551.380000", "185552.662000", "185553.894000", "185555.176000", "185556.439000", "185557.685000", "185558.912000", "185600.161000", "185601.421000", "185602.674000", "185603.929000", "185605.155000", "185606.407000", "185607.670000", "185608.918000", "185610.173000", "185611.388000", "185612.677000", "185613.913000", "185615.176000", "185616.405000", "185617.658000", "185618.934000", "185620.164000", "185621.412000", "185622.662000", "185623.914000", "185625.151000", "185626.416000", "185627.678000", "185628.891000", "185630.171000", "185631.433000", "185632.710000"],
      "InstanceNumber": [1, 2, 3, 4, 5, 6, 7, 8, 9, 10, 11, 12, 13, 14, 15, 16, 17, 18, 19, 20, 21, 22, 23, 24, 25, 26, 27, 28, 29, 30, 31, 32, 33, 34, 35, 36, 37, 38, 39, 40, 41, 42, 43, 44, 45, 46, 47, 48, 49, 50, 51, 52, 53, 54, 55, 56, 57, 58, 59, 60, 61, 62, 63, 64, 65, 66, 67, 68, 69, 70, 71, 72, 73, 74, 75, 76, 77, 78, 79, 80, 81, 82, 83, 84, 85, 86, 87, 88, 89, 90, 91, 92, 93, 94, 95, 96, 97, 98, 99, 100, 101, 102, 103, 104, 105, 106, 107, 108, 109, 110, 111, 112, 113, 114, 115, 116, 117, 118, 119, 120, 121, 122, 123, 124, 125, 126, 127, 128, 129, 130, 131, 132, 133, 134, 135, 136, 137, 138, 139, 140, 141, 142, 143, 144, 145, 146, 147, 148, 149, 150, 151, 152, 153, 154, 155, 156, 157, 158, 159, 160, 161, 162, 163, 164, 165, 166, 167, 168, 169, 170, 171, 172, 173, 174, 175, 176, 177, 178, 179, 180, 181, 182, 183, 184, 185, 186, 187, 188, 189, 190, 191, 192, 193, 194, 195, 196, 197, 198, 199, 200, 201, 202, 203, 204, 205, 206, 207, 208, 209, 210, 211, 212, 213, 214, 215, 216, 217, 218, 219, 220, 221, 222, 223, 224, 225, 226, 227, 228, 229, 230, 231, 232, 233, 234, 235, 236, 237, 238, 239, 240, 241, 242, 243, 244, 245, 246, 247, 248, 249, 250, 251, 252, 253, 254, 255, 256, 257, 258, 259, 260, 261, 262, 263, 264, 265, 266, 267, 268, 269, 270, 271, 272, 273, 274, 275, 276, 277, 278, 279, 280],
      "LargestImagePixelValue": [805, 780, 755, 863, 847, 863, 847, 801, 760, 769, 810, 844, 915, 917, 949, 767, 748, 766, 878, 856, 868, 769, 761, 746, 830, 837, 864, 784, 797, 760, 764, 899, 891, 903, 751, 791, 827, 782, 854, 871, 819, 819, 773, 752, 774, 759, 839, 852, 896, 781, 750, 766, 748, 889, 840, 917, 767, 747, 798, 749, 932, 842, 902, 749, 750, 799, 832, 902, 885, 840, 741, 747, 835, 839, 999, 789, 757, 784, 829, 910, 900, 880, 752, 741, 750, 834, 804, 911, 799, 752, 748, 806, 949, 890, 828, 773, 780, 861, 839, 915, 738, 753, 773, 897, 910, 812, 760, 756, 831, 849, 862, 868, 763, 757, 748, 790, 877, 862, 748, 825, 799, 865, 888, 897, 746, 747, 827, 833, 866, 1005, 749, 748, 797, 884, 886, 965, 772, 754, 771, 839, 868, 837, 768, 744, 813, 843, 943, 940, 844, 750, 737, 847, 808, 845, 842, 837, 740, 741, 832, 845, 881, 866, 843, 752, 756, 755, 835, 859, 865, 958, 741, 773, 792, 836, 824, 879, 733, 745, 812, 795, 903, 916, 775, 757, 739, 876, 898, 906, 762, 755, 874, 827, 870, 871, 874, 762, 743, 816, 851, 856, 876, 754, 750, 750, 843, 884, 877, 812, 758, 749, 858, 825, 912, 957, 775, 750, 734, 812, 885, 860, 972, 747, 745, 847, 822, 871, 923, 746, 738, 744, 855, 879, 870, 915, 759, 806, 781, 770, 839, 942, 742, 776, 795, 845, 883, 865, 829, 746, 771, 838, 815, 885, 994, 780, 742, 736, 816, 819, 840, 860, 752, 753, 751, 877, 931, 794, 745, 772, 778, 895, 832, 900, 752, 814, 814, 772, 827, 927, 871, 744],
      "WindowCenter": [340.0, 339.0, 337.0, 340.0, 339.0, 339.0, 339.0, 337.0, 336.0, 337.0, 339.0, 339.0, 341.0, 341.0, 341.0, 336.0, 336.0, 336.0, 340.0, 339.0, 339.0, 336.0, 336.0, 335.0, 339.0, 338.0, 339.0, 337.0, 337.0, 337.0, 337.0, 341.0, 341.0, 340.0, 336.0, 337.0, 338.0, 336.0, 338.0, 339.0, 337.0, 337.0, 337.0, 336.0, 337.0, 336.0, 339.0, 340.0, 340.0, 337.0, 336.0, 336.0, 336.0, 340.0, 339.0, 341.0, 337.0, 336.0, 338.0, 336.0, 342.0, 339.0, 341.0, 336.0, 337.0, 338.0, 339.0, 340.0, 340.0, 339.0, 336.0, 336.0, 339.0, 339.0, 343.0, 337.0, 336.0, 336.0, 338.0, 340.0, 339.0, 339.0, 335.0, 336.0, 335.0, 338.0, 337.0, 341.0, 337.0, 336.0, 336.0, 337.0, 341.0, 340.0, 337.0, 337.0, 336.0, 339.0, 338.0, 341.0, 336.0, 336.0, 338.0, 341.0, 342.0, 338.0, 336.0, 336.0, 338.0, 339.0, 339.0, 339.0, 336.0, 336.0, 336.0, 337.0, 340.0, 340.0, 336.0, 338.0, 337.0, 338.0, 339.0, 340.0, 336.0, 336.0, 338.0, 339.0, 339.0, 343.0, 335.0, 335.0, 337.0, 340.0, 340.0, 342.0, 337.0, 336.0, 336.0, 339.0, 339.0, 339.0, 336.0, 336.0, 339.0, 339.0, 342.0, 342.0, 338.0, 336.0, 335.0, 338.0, 337.0, 338.0, 339.0, 339.0, 336.0, 336.0, 338.0, 338.0, 339.0, 338.0, 338.0, 335.0, 336.0, 335.0, 338.0, 338.0, 338.0, 341.0, 335.0, 337.0, 337.0, 339.0, 338.0, 340.0, 336.0, 336.0, 338.0, 338.0, 340.0, 341.0, 337.0, 336.0, 336.0, 340.0, 340.0, 340.0, 336.0, 336.0, 339.0, 337.0, 339.0, 339.0, 339.0, 336.0, 336.0, 337.0, 338.0, 338.0, 339.0, 336.0, 336.0, 336.0, 339.0, 339.0, 339.0, 337.0, 336.0, 336.0, 340.0, 338.0, 341.0, 342.0, 337.0, 336.0, 336.0, 338.0, 340.0, 339.0, 343.0, 336.0, 336.0, 339.0, 338.0, 340.0, 341.0, 336.0, 336.0, 336.0, 339.0, 339.0, 339.0, 340.0, 336.0, 337.0, 337.0, 338.0, 339.0, 342.0, 336.0, 337.0, 337.0, 339.0, 340.0, 339.0, 338.0, 336.0, 337.0, 339.0, 338.0, 340.0, 343.0, 336.0, 335.0, 335.0, 337.0, 338.0, 339.0, 339.0, 336.0, 337.0, 336.0, 341.0, 342.0, 338.0, 336.0, 337.0, 337.0, 340.0, 338.0, 340.0, 336.0, 338.0, 338.0, 337.0, 339.0, 341.0, 341.0, 336.0],
      "WindowWidth": [741.0, 737.0, 734.0, 737.0, 736.0, 736.0, 735.0, 734.0, 732.0, 733.0, 736.0, 736.0, 738.0, 738.0, 739.0, 732.0, 731.0, 732.0, 736.0, 736.0, 736.0, 732.0, 732.0, 731.0, 735.0, 734.0, 735.0, 732.0, 734.0, 733.0, 733.0, 739.0, 739.0, 737.0, 732.0, 733.0, 734.0, 731.0, 734.0, 735.0, 733.0, 733.0, 732.0, 731.0, 733.0, 732.0, 735.0, 736.0, 738.0, 733.0, 732.0, 732.0, 731.0, 736.0, 735.0, 738.0, 733.0, 732.0, 734.0, 731.0, 739.0, 736.0, 739.0, 733.0, 733.0, 735.0, 736.0, 737.0, 736.0, 735.0, 731.0, 731.0, 735.0, 735.0, 741.0, 733.0, 732.0, 731.0, 734.0, 736.0, 736.0, 735.0, 731.0, 731.0, 730.0, 735.0, 733.0, 737.0, 733.0, 731.0, 731.0, 733.0, 739.0, 737.0, 733.0, 732.0, 731.0, 735.0, 734.0, 738.0, 731.0, 732.0, 734.0, 738.0, 739.0, 734.0, 732.0, 732.0, 734.0, 735.0, 735.0, 736.0, 732.0, 731.0, 731.0, 733.0, 736.0, 737.0, 732.0, 734.0, 733.0, 734.0, 735.0, 736.0, 731.0, 731.0, 734.0, 735.0, 735.0, 741.0, 730.0, 730.0, 733.0, 737.0, 737.0, 739.0, 733.0, 732.0, 732.0, 735.0, 735.0, 735.0, 732.0, 733.0, 736.0, 736.0, 739.0, 739.0, 734.0, 731.0, 730.0, 733.0, 732.0, 734.0, 735.0, 735.0, 731.0, 731.0, 734.0, 734.0, 735.0, 735.0, 733.0, 730.0, 731.0, 730.0, 733.0, 734.0, 734.0, 738.0, 730.0, 732.0, 733.0, 735.0, 734.0, 738.0, 731.0, 731.0, 734.0, 734.0, 737.0, 738.0, 733.0, 732.0, 731.0, 736.0, 737.0, 737.0, 731.0, 731.0, 735.0, 733.0, 735.0, 736.0, 735.0, 731.0, 731.0, 733.0, 734.0, 734.0, 735.0, 732.0, 732.0, 732.0, 735.0, 736.0, 735.0, 733.0, 732.0, 731.0, 737.0, 734.0, 738.0, 740.0, 732.0, 731.0, 731.0, 734.0, 736.0, 736.0, 740.0, 732.0, 731.0, 735.0, 734.0, 736.0, 738.0, 731.0, 731.0, 731.0, 736.0, 735.0, 735.0, 737.0, 731.0, 733.0, 733.0, 734.0, 737.0, 740.0, 732.0, 733.0, 733.0, 735.0, 736.0, 735.0, 734.0, 731.0, 733.0, 735.0, 734.0, 737.0, 741.0, 732.0, 730.0, 730.0, 733.0, 734.0, 735.0, 736.0, 732.0, 733.0, 732.0, 738.0, 739.0, 734.0, 731.0, 733.0, 732.0, 737.0, 735.0, 736.0, 732.0, 734.0, 734.0, 733.0, 735.0, 738.0, 738.0, 731.0]
    },
    "slices": {}
  }
}