{
  "AcquisitionMatrixPE": 96,
  "AcquisitionNumber": 1,
  "AcquisitionTime": "10:34:17.535000",
  "BandwidthPerPixelPhaseEncode": 18.939,
  "BaseResolution": 96,
  "BodyPartExamined": "BRAIN",
  "ConsistencyInfo": "N4_VE11C_LATEST_20160120",
  "ConversionSoftware": "dcm2niix",
  "ConversionSoftwareVersion": "v1.0.20170923 (OpenJPEG build) GCC6.3.0",
  "DerivedVendorReportedEchoSpacing": 0.000550011,
  "DeviceSerialNumber": "66112",
  "DwellTime": 2.3e-06,
  "EchoTime": 0.033,
  "EchoTrainLength": 96,
  "EffectiveEchoSpacing": 0.000550011,
  "FlipAngle": 64,
  "ImageType": [
    "ORIGINAL",
    "PRIMARY",
    "FMRI",
    "NONE",
    "ND",
    "NORM",
    "MOSAIC"
],
  "InstitutionAddress": "Maynard_3_Hanover_NH_US_03755",
  "InstitutionName": "Dartmouth_College_-_PBS",
  "MagneticFieldStrength": 3,
  "Manufacturer": "Siemens",
  "ManufacturersModelName": "Prisma",
  "Modality": "MR",
  "MultibandAccelerationFactor": 4,
  "PartialFourier": 1,
  "PercentPhaseFOV": 100,
  "PhaseEncodingDirection": "j-",
  "PhaseEncodingSteps": 96,
  "PhaseResolution": 1,
  "ProcedureStepDescription": "Gobbini_Matteo_1017_famface-angles",
  "ProtocolName": "func_run-06_task-localizer",
  "PulseSequenceDetails": "%SiemensSeq%_ep2d_bold",
  "ReceiveCoilActiveElements": "HEA;HEP",
  "ReceiveCoilName": "Head_32",
  "ReconMatrixPE": 96,
  "RepetitionTime": 1.25,
  "ScanOptions": "FS",
  "ScanningSequence": "EP",
  "SequenceName": "_epfid2d1_96",
  "SequenceVariant": "SK",
  "SeriesDescription": "func_run-06_task-localizer",
  "SliceTiming": [0.8775, 0, 0.615, 0.0875, 0.7025, 0.175, 0.79, 0.35, 0.965, 0.4375, 1.0525, 0.525, 1.14, 0.2625, 0.8775, 0, 0.615, 0.0875, 0.7025, 0.175, 0.79, 0.35, 0.965, 0.4375, 1.0525, 0.525, 1.14, 0.2625, 0.8775, 0, 0.615, 0.0875, 0.7025, 0.175, 0.79, 0.35, 0.965, 0.4375, 1.0525, 0.525, 1.14, 0.2625, 0.8775, 0, 0.615, 0.0875, 0.7025, 0.175, 0.79, 0.35, 0.965, 0.4375, 1.0525, 0.525, 1.14, 0.2625],
  "SoftwareVersions": "syngo_MR_E11",
  "StationName": "AWP66112",
  "TaskName": "localizer",
  "TotalReadoutTime": 0.0522511,
  "dcmmeta_affine": [
    [-2.4994869232177734, 0.049738310277462006, -0.009543189778923988, 121.35560607910156],
    [0.049619343131780624, 2.499323844909668, 0.03030814416706562, -108.40351867675781],
    [-0.010143598541617393, -0.03011251427233219, 2.499798059463501, -81.13140869140625],
    [0.0, 0.0, 0.0, 1.0]
],
  "dcmmeta_reorient_transform": [
    [0.0, -1.0, 0.0, 95.0],
    [1.0, 0.0, 0.0, 0.0],
    [0.0, 0.0, 1.0, 0.0],
    [0.0, 0.0, 0.0, 1.0]
],
  "dcmmeta_shape": [96, 96, 56, 325],
  "dcmmeta_slice_dim": 2,
  "dcmmeta_version": 0.6,
  "global": {
    "const": {
      "AccessionNumber": "A000631",
      "AcquisitionMatrix": [96, 0, 0, 96],
      "AngioFlag": "N",
      "BitsAllocated": 16,
      "BitsStored": 12,
      "BodyPartExamined": "BRAIN",
      "Columns": 768,
      "EchoNumbers": 1,
      "EchoTime": 33.0,
      "EchoTrainLength": 96,
      "FlipAngle": 64.0,
      "HighBit": 11,
      "ImageOrientationPatient": [0.99979478118637, -0.01984773785, -0.004057439431, 0.01989532401804, 0.99972951037989, 0.01204500551315],
      "ImagePositionPatient": [-982.62043655837, -952.13292706662, -90.701655662992],
      "ImageType": [
        "ORIGINAL",
        "PRIMARY",
        "FMRI",
        "NONE",
        "ND",
        "NORM",
        "MOSAIC"
],
      "ImagedNucleus": "1H",
      "ImagingFrequency": 123.252367,
      "InPlanePhaseEncodingDirection": "COL",
      "MRAcquisitionType": "2D",
      "MagneticFieldStrength": 3.0,
      "Manufacturer": "SIEMENS",
      "ManufacturerModelName": "Prisma",
      "Modality": "MR",
      "NumberOfAverages": 1.0,
      "NumberOfPhaseEncodingSteps": 96,
      "PercentPhaseFieldOfView": 100.0,
      "PercentSampling": 100.0,
      "PerformedProcedureStepStartTime": "094845.448000",
      "PhotometricInterpretation": "MONOCHROME2",
      "PixelBandwidth": 2265.0,
      "PixelRepresentation": 0,
      "PixelSpacing": [2.5, 2.5],
      "PositionReferenceIndicator": "",
      "ProtocolName": "func_run-06_task-localizer",
      "RepetitionTime": 1250.0,
      "Rows": 768,
      "SAR": 0.05925474380735,
      "SamplesPerPixel": 1,
      "ScanOptions": "FS",
      "ScanningSequence": "EP",
      "SequenceName": "*epfid2d1_96",
      "SequenceVariant": "SK",
      "SeriesDescription": "func_run-06_task-localizer",
      "SeriesNumber": 43,
      "SeriesTime": "103419.302000",
      "SliceLocation": -82.902309543486,
      "SliceThickness": 2.5,
      "SmallestImagePixelValue": 0,
      "SoftwareVersions": "syngo MR E11",
      "SpacingBetweenSlices": 2.5000000379284,
      "SpecificCharacterSet": "ISO_IR 100",
      "StudyID": "2",
      "StudyTime": "094845.373000",
      "TransmitCoilName": "Body",
      "VariableFlipAngleFlag": "N",
      "WindowCenterWidthExplanation": "Algo1",
      "dBdt": 0.0},
    "slices": {}
  },
  "time": {
    "samples": {
      "AcquisitionNumber": [1, 2, 3, 4, 5, 6, 7, 8, 9, 10, 11, 12, 13, 14, 15, 16, 17, 18, 19, 20, 21, 22, 23, 24, 25, 26, 27, 28, 29, 30, 31, 32, 33, 34, 35, 36, 37, 38, 39, 40, 41, 42, 43, 44, 45, 46, 47, 48, 49, 50, 51, 52, 53, 54, 55, 56, 57, 58, 59, 60, 61, 62, 63, 64, 65, 66, 67, 68, 69, 70, 71, 72, 73, 74, 75, 76, 77, 78, 79, 80, 81, 82, 83, 84, 85, 86, 87, 88, 89, 90, 91, 92, 93, 94, 95, 96, 97, 98, 99, 100, 101, 102, 103, 104, 105, 106, 107, 108, 109, 110, 111, 112, 113, 114, 115, 116, 117, 118, 119, 120, 121, 122, 123, 124, 125, 126, 127, 128, 129, 130, 131, 132, 133, 134, 135, 136, 137, 138, 139, 140, 141, 142, 143, 144, 145, 146, 147, 148, 149, 150, 151, 152, 153, 154, 155, 156, 157, 158, 159, 160, 161, 162, 163, 164, 165, 166, 167, 168, 169, 170, 171, 172, 173, 174, 175, 176, 177, 178, 179, 180, 181, 182, 183, 184, 185, 186, 187, 188, 189, 190, 191, 192, 193, 194, 195, 196, 197, 198, 199, 200, 201, 202, 203, 204, 205, 206, 207, 208, 209, 210, 211, 212, 213, 214, 215, 216, 217, 218, 219, 220, 221, 222, 223, 224, 225, 226, 227, 228, 229, 230, 231, 232, 233, 234, 235, 236, 237, 238, 239, 240, 241, 242, 243, 244, 245, 246, 247, 248, 249, 250, 251, 252, 253, 254, 255, 256, 257, 258, 259, 260, 261, 262, 263, 264, 265, 266, 267, 268, 269, 270, 271, 272, 273, 274, 275, 276, 277, 278, 279, 280, 281, 282, 283, 284, 285, 286, 287, 288, 289, 290, 291, 292, 293, 294, 295, 296, 297, 298, 299, 300, 301, 302, 303, 304, 305, 306, 307, 308, 309, 310, 311, 312, 313, 314, 315, 316, 317, 318, 319, 320, 321, 322, 323, 324, 325],
      "AcquisitionTime": ["103417.535000", "103418.785000", "103420.035000", "103421.285000", "103422.535000", "103423.785000", "103425.035000", "103426.285000", "103427.535000", "103428.785000", "103430.035000", "103431.285000", "103432.535000", "103433.785000", "103435.035000", "103436.285000", "103437.535000", "103438.785000", "103440.035000", "103441.285000", "103442.535000", "103443.785000", "103445.035000", "103446.285000", "103447.535000", "103448.785000", "103450.035000", "103451.285000", "103452.535000", "103453.785000", "103455.035000", "103456.285000", "103457.535000", "103458.785000", "103500.035000", "103501.285000", "103502.535000", "103503.785000", "103505.035000", "103506.285000", "103507.535000", "103508.785000", "103510.035000", "103511.285000", "103512.535000", "103513.785000", "103515.035000", "103516.285000", "103517.535000", "103518.785000", "103520.035000", "103521.285000", "103522.535000", "103523.785000", "103525.035000", "103526.285000", "103527.535000", "103528.785000", "103530.035000", "103531.285000", "103532.535000", "103533.785000", "103535.035000", "103536.285000", "103537.535000", "103538.785000", "103540.035000", "103541.285000", "103542.535000", "103543.785000", "103545.035000", "103546.285000", "103547.535000", "103548.785000", "103550.035000", "103551.285000", "103552.535000", "103553.785000", "103555.035000", "103556.285000", "103557.535000", "103558.785000", "103600.035000", "103601.285000", "103602.535000", "103603.785000", "103605.035000", "103606.285000", "103607.535000", "103608.785000", "103610.035000", "103611.285000", "103612.535000", "103613.785000", "103615.035000", "103616.285000", "103617.535000", "103618.785000", "103620.035000", "103621.285000", "103622.535000", "103623.785000", "103625.035000", "103626.285000", "103627.535000", "103628.785000", "103630.035000", "103631.285000", "103632.535000", "103633.785000", "103635.035000", "103636.285000", "103637.535000", "103638.785000", "103640.035000", "103641.285000", "103642.535000", "103643.785000", "103645.035000", "103646.285000", "103647.535000", "103648.785000", "103650.035000", "103651.285000", "103652.535000", "103653.785000", "103655.035000", "103656.285000", "103657.535000", "103658.785000", "103700.035000", "103701.285000", "103702.535000", "103703.785000", "103705.035000", "103706.285000", "103707.535000", "103708.785000", "103710.035000", "103711.285000", "103712.535000", "103713.785000", "103715.035000", "103716.285000", "103717.535000", "103718.785000", "103720.035000", "103721.285000", "103722.535000", "103723.785000", "103725.035000", "103726.285000", "103727.535000", "103728.785000", "103730.035000", "103731.285000", "103732.535000", "103733.785000", "103735.035000", "103736.285000", "103737.535000", "103738.785000", "103740.035000", "103741.285000", "103742.535000", "103743.785000", "103745.035000", "103746.285000", "103747.535000", "103748.785000", "103750.035000", "103751.285000", "103752.535000", "103753.785000", "103755.035000", "103756.285000", "103757.535000", "103758.785000", "103800.035000", "103801.285000", "103802.535000", "103803.785000", "103805.035000", "103806.285000", "103807.535000", "103808.785000", "103810.035000", "103811.285000", "103812.535000", "103813.785000", "103815.035000", "103816.285000", "103817.535000", "103818.785000", "103820.035000", "103821.285000", "103822.535000", "103823.785000", "103825.035000", "103826.285000", "103827.535000", "103828.785000", "103830.035000", "103831.285000", "103832.535000", "103833.785000", "103835.035000", "103836.285000", "103837.535000", "103838.785000", "103840.035000", "103841.285000", "103842.535000", "103843.785000", "103845.035000", "103846.285000", "103847.535000", "103848.785000", "103850.035000", "103851.285000", "103852.535000", "103853.785000", "103855.035000", "103856.285000", "103857.535000", "103858.785000", "103900.035000", "103901.285000", "103902.535000", "103903.785000", "103905.035000", "103906.285000", "103907.535000", "103908.785000", "103910.035000", "103911.285000", "103912.535000", "103913.785000", "103915.035000", "103916.285000", "103917.535000", "103918.785000", "103920.035000", "103921.285000", "103922.535000", "103923.785000", "103925.035000", "103926.285000", "103927.535000", "103928.785000", "103930.035000", "103931.285000", "103932.535000", "103933.785000", "103935.035000", "103936.285000", "103937.535000", "103938.785000", "103940.035000", "103941.285000", "103942.535000", "103943.785000", "103945.035000", "103946.285000", "103947.535000", "103948.785000", "103950.035000", "103951.285000", "103952.535000", "103953.785000", "103955.035000", "103956.285000", "103957.535000", "103958.785000", "104000.035000", "104001.285000", "104002.535000", "104003.785000", "104005.035000", "104006.285000", "104007.535000", "104008.785000", "104010.035000", "104011.285000", "104012.535000", "104013.785000", "104015.035000", "104016.285000", "104017.535000", "104018.785000", "104020.035000", "104021.285000", "104022.535000", "104023.785000", "104025.035000", "104026.285000", "104027.535000", "104028.785000", "104030.035000", "104031.285000", "104032.535000", "104033.785000", "104035.035000", "104036.285000", "104037.535000", "104038.785000", "104040.035000", "104041.285000", "104042.535000", "104043.785000", "104045.035000", "104046.285000", "104047.535000", "104048.785000", "104050.035000", "104051.285000", "104052.535000", "104053.785000", "104055.035000", "104056.285000", "104057.535000", "104058.785000", "104100.035000", "104101.285000", "104102.535000"],
      "ContentTime": ["103419.305000", "103420.409000", "103421.616000", "103422.903000", "103424.137000", "103425.345000", "103426.619000", "103427.898000", "103429.117000", "103430.350000", "103431.594000", "103432.855000", "103434.100000", "103435.360000", "103436.628000", "103437.867000", "103439.079000", "103440.369000", "103441.606000", "103442.896000", "103444.116000", "103445.335000", "103446.605000", "103447.873000", "103449.089000", "103450.351000", "103451.634000", "103452.941000", "103454.108000", "103455.355000", "103456.583000", "103457.857000", "103459.100000", "103500.368000", "103501.597000", "103502.846000", "103504.090000", "103505.346000", "103506.588000", "103507.854000", "103509.118000", "103510.375000", "103511.616000", "103512.839000", "103514.121000", "103515.385000", "103516.601000", "103517.851000", "103519.155000", "103520.360000", "103521.600000", "103522.852000", "103524.108000", "103525.310000", "103526.681000", "103527.858000", "103529.135000", "103530.352000", "103531.578000", "103532.873000", "103534.107000", "103535.363000", "103536.622000", "103537.871000", "103539.105000", "103540.363000", "103541.613000", "103542.890000", "103544.103000", "103545.330000", "103546.606000", "103547.869000", "103549.096000", "103550.349000", "103551.595000", "103552.871000", "103554.097000", "103555.357000", "103556.611000", "103557.855000", "103559.101000", "103600.384000", "103601.581000", "103602.859000", "103604.110000", "103605.345000", "103606.589000", "103607.849000", "103609.118000", "103610.369000", "103611.618000", "103612.867000", "103614.121000", "103615.352000", "103616.608000", "103617.879000", "103619.110000", "103620.403000", "103621.645000", "103622.829000", "103624.170000", "103625.410000", "103626.614000", "103627.890000", "103629.116000", "103630.374000", "103631.633000", "103632.883000", "103634.133000", "103635.373000", "103636.634000", "103637.857000", "103639.110000", "103640.360000", "103641.624000", "103642.901000", "103644.120000", "103645.409000", "103646.687000", "103647.854000", "103649.130000", "103650.379000", "103651.649000", "103652.849000", "103654.122000", "103655.369000", "103656.631000", "103657.880000", "103659.117000", "103700.363000", "103701.632000", "103702.864000", "103704.112000", "103705.367000", "103706.618000", "103707.918000", "103709.127000", "103710.376000", "103711.583000", "103712.851000", "103714.092000", "103715.398000", "103716.640000", "103717.870000", "103719.131000", "103720.314000", "103721.613000", "103722.843000", "103724.123000", "103725.356000", "103726.621000", "103727.871000", "103729.131000", "103730.360000", "103731.589000", "103732.845000", "103734.114000", "103735.371000", "103736.614000", "103737.864000", "103739.157000", "103740.346000", "103741.604000", "103742.867000", "103744.103000", "103745.355000", "103746.625000", "103747.879000", "103749.157000", "103750.347000", "103751.620000", "103752.853000", "103754.137000", "103755.349000", "103756.611000", "103757.868000", "103759.141000", "103800.358000", "103801.615000", "103802.864000", "103804.121000", "103805.345000", "103806.589000", "103807.885000", "103809.136000", "103810.390000", "103811.613000", "103812.872000", "103814.113000", "103815.349000", "103816.599000", "103817.832000", "103819.106000", "103820.363000", "103821.628000", "103822.860000", "103824.077000", "103825.388000", "103826.614000", "103827.842000", "103829.093000", "103830.379000", "103831.604000", "103832.875000", "103834.100000", "103835.344000", "103836.610000", "103837.900000", "103839.087000", "103840.351000", "103841.591000", "103842.919000", "103844.107000", "103845.369000", "103846.607000", "103847.869000", "103849.104000", "103850.363000", "103851.599000", "103852.849000", "103854.145000", "103855.402000", "103856.618000", "103857.859000", "103859.135000", "103900.355000", "103901.615000", "103902.851000", "103904.087000", "103905.364000", "103906.633000", "103907.872000", "103909.139000", "103910.467000", "103911.648000", "103912.877000", "103914.121000", "103915.386000", "103916.614000", "103917.862000", "103919.096000", "103920.398000", "103921.623000", "103922.906000", "103924.132000", "103925.394000", "103926.664000", "103927.907000", "103929.110000", "103930.318000", "103931.649000", "103932.856000", "103934.109000", "103935.377000", "103936.627000", "103937.895000", "103939.068000", "103940.364000", "103941.619000", "103942.866000", "103944.147000", "103945.376000", "103946.571000", "103947.872000", "103949.108000", "103950.388000", "103951.613000", "103952.836000", "103954.129000", "103955.371000", "103956.619000", "103957.856000", "103959.127000", "104000.403000", "104001.604000", "104002.884000", "104004.217000", "104005.364000", "104006.635000", "104007.857000", "104009.093000", "104010.326000", "104011.616000", "104012.890000", "104014.069000", "104015.340000", "104016.618000", "104017.865000", "104019.112000", "104020.370000", "104021.609000", "104022.880000", "104024.146000", "104025.362000", "104026.632000", "104027.876000", "104029.117000", "104030.351000", "104031.589000", "104032.839000", "104034.121000", "104035.361000", "104036.613000", "104037.851000", "104039.123000", "104040.348000", "104041.591000", "104042.875000", "104044.107000", "104045.415000", "104046.611000", "104047.888000", "104049.126000", "104050.371000", "104051.596000", "104052.847000", "104054.167000", "104055.371000", "104056.616000", "104057.886000", "104059.145000", "104100.354000", "104101.605000", "104102.838000", "104104.131000"],
      "InstanceCreationTime": ["103419.305000", "103420.409000", "103421.616000", "103422.903000", "103424.137000", "103425.345000", "103426.619000", "103427.898000", "103429.117000", "103430.350000", "103431.594000", "103432.855000", "103434.100000", "103435.360000", "103436.628000", "103437.867000", "103439.079000", "103440.369000", "103441.606000", "103442.896000", "103444.116000", "103445.335000", "103446.605000", "103447.873000", "103449.089000", "103450.351000", "103451.634000", "103452.941000", "103454.108000", "103455.355000", "103456.583000", "103457.857000", "103459.100000", "103500.368000", "103501.597000", "103502.846000", "103504.090000", "103505.346000", "103506.588000", "103507.854000", "103509.118000", "103510.375000", "103511.616000", "103512.839000", "103514.121000", "103515.385000", "103516.601000", "103517.851000", "103519.155000", "103520.360000", "103521.600000", "103522.852000", "103524.108000", "103525.310000", "103526.681000", "103527.858000", "103529.135000", "103530.352000", "103531.578000", "103532.873000", "103534.107000", "103535.363000", "103536.622000", "103537.871000", "103539.105000", "103540.363000", "103541.613000", "103542.890000", "103544.103000", "103545.330000", "103546.606000", "103547.869000", "103549.096000", "103550.349000", "103551.595000", "103552.871000", "103554.097000", "103555.357000", "103556.611000", "103557.855000", "103559.101000", "103600.384000", "103601.581000", "103602.859000", "103604.110000", "103605.345000", "103606.589000", "103607.849000", "103609.118000", "103610.369000", "103611.618000", "103612.867000", "103614.121000", "103615.352000", "103616.608000", "103617.879000", "103619.110000", "103620.403000", "103621.645000", "103622.829000", "103624.170000", "103625.410000", "103626.614000", "103627.890000", "103629.116000", "103630.374000", "103631.633000", "103632.883000", "103634.133000", "103635.373000", "103636.634000", "103637.857000", "103639.110000", "103640.360000", "103641.624000", "103642.901000", "103644.120000", "103645.409000", "103646.687000", "103647.854000", "103649.130000", "103650.379000", "103651.649000", "103652.849000", "103654.122000", "103655.369000", "103656.631000", "103657.880000", "103659.117000", "103700.363000", "103701.632000", "103702.864000", "103704.112000", "103705.367000", "103706.618000", "103707.918000", "103709.127000", "103710.376000", "103711.583000", "103712.851000", "103714.092000", "103715.398000", "103716.640000", "103717.870000", "103719.131000", "103720.314000", "103721.613000", "103722.843000", "103724.123000", "103725.356000", "103726.621000", "103727.871000", "103729.131000", "103730.360000", "103731.589000", "103732.845000", "103734.114000", "103735.371000", "103736.614000", "103737.864000", "103739.157000", "103740.346000", "103741.604000", "103742.867000", "103744.103000", "103745.355000", "103746.625000", "103747.879000", "103749.157000", "103750.347000", "103751.620000", "103752.853000", "103754.137000", "103755.349000", "103756.611000", "103757.868000", "103759.141000", "103800.358000", "103801.615000", "103802.864000", "103804.121000", "103805.345000", "103806.589000", "103807.885000", "103809.136000", "103810.390000", "103811.613000", "103812.872000", "103814.113000", "103815.349000", "103816.599000", "103817.832000", "103819.106000", "103820.363000", "103821.628000", "103822.860000", "103824.077000", "103825.388000", "103826.614000", "103827.842000", "103829.093000", "103830.379000", "103831.604000", "103832.875000", "103834.100000", "103835.344000", "103836.610000", "103837.900000", "103839.087000", "103840.351000", "103841.591000", "103842.919000", "103844.107000", "103845.369000", "103846.607000", "103847.869000", "103849.104000", "103850.363000", "103851.599000", "103852.849000", "103854.145000", "103855.402000", "103856.618000", "103857.859000", "103859.135000", "103900.355000", "103901.615000", "103902.851000", "103904.087000", "103905.364000", "103906.633000", "103907.872000", "103909.139000", "103910.467000", "103911.648000", "103912.877000", "103914.121000", "103915.386000", "103916.614000", "103917.862000", "103919.096000", "103920.398000", "103921.623000", "103922.906000", "103924.132000", "103925.394000", "103926.664000", "103927.907000", "103929.110000", "103930.318000", "103931.649000", "103932.856000", "103934.109000", "103935.377000", "103936.627000", "103937.895000", "103939.068000", "103940.364000", "103941.619000", "103942.866000", "103944.147000", "103945.376000", "103946.571000", "103947.872000", "103949.108000", "103950.388000", "103951.613000", "103952.836000", "103954.129000", "103955.371000", "103956.619000", "103957.856000", "103959.127000", "104000.403000", "104001.604000", "104002.884000", "104004.217000", "104005.364000", "104006.635000", "104007.857000", "104009.093000", "104010.326000", "104011.616000", "104012.890000", "104014.069000", "104015.340000", "104016.618000", "104017.865000", "104019.112000", "104020.370000", "104021.609000", "104022.880000", "104024.146000", "104025.362000", "104026.632000", "104027.876000", "104029.117000", "104030.351000", "104031.589000", "104032.839000", "104034.121000", "104035.361000", "104036.613000", "104037.851000", "104039.123000", "104040.348000", "104041.591000", "104042.875000", "104044.107000", "104045.415000", "104046.611000", "104047.888000", "104049.126000", "104050.371000", "104051.596000", "104052.847000", "104054.167000", "104055.371000", "104056.616000", "104057.886000", "104059.145000", "104100.354000", "104101.605000", "104102.838000", "104104.131000"],
      "InstanceNumber": [1, 2, 3, 4, 5, 6, 7, 8, 9, 10, 11, 12, 13, 14, 15, 16, 17, 18, 19, 20, 21, 22, 23, 24, 25, 26, 27, 28, 29, 30, 31, 32, 33, 34, 35, 36, 37, 38, 39, 40, 41, 42, 43, 44, 45, 46, 47, 48, 49, 50, 51, 52, 53, 54, 55, 56, 57, 58, 59, 60, 61, 62, 63, 64, 65, 66, 67, 68, 69, 70, 71, 72, 73, 74, 75, 76, 77, 78, 79, 80, 81, 82, 83, 84, 85, 86, 87, 88, 89, 90, 91, 92, 93, 94, 95, 96, 97, 98, 99, 100, 101, 102, 103, 104, 105, 106, 107, 108, 109, 110, 111, 112, 113, 114, 115, 116, 117, 118, 119, 120, 121, 122, 123, 124, 125, 126, 127, 128, 129, 130, 131, 132, 133, 134, 135, 136, 137, 138, 139, 140, 141, 142, 143, 144, 145, 146, 147, 148, 149, 150, 151, 152, 153, 154, 155, 156, 157, 158, 159, 160, 161, 162, 163, 164, 165, 166, 167, 168, 169, 170, 171, 172, 173, 174, 175, 176, 177, 178, 179, 180, 181, 182, 183, 184, 185, 186, 187, 188, 189, 190, 191, 192, 193, 194, 195, 196, 197, 198, 199, 200, 201, 202, 203, 204, 205, 206, 207, 208, 209, 210, 211, 212, 213, 214, 215, 216, 217, 218, 219, 220, 221, 222, 223, 224, 225, 226, 227, 228, 229, 230, 231, 232, 233, 234, 235, 236, 237, 238, 239, 240, 241, 242, 243, 244, 245, 246, 247, 248, 249, 250, 251, 252, 253, 254, 255, 256, 257, 258, 259, 260, 261, 262, 263, 264, 265, 266, 267, 268, 269, 270, 271, 272, 273, 274, 275, 276, 277, 278, 279, 280, 281, 282, 283, 284, 285, 286, 287, 288, 289, 290, 291, 292, 293, 294, 295, 296, 297, 298, 299, 300, 301, 302, 303, 304, 305, 306, 307, 308, 309, 310, 311, 312, 313, 314, 315, 316, 317, 318, 319, 320, 321, 322, 323, 324, 325],
      "LargestImagePixelValue": [1235, 814, 920, 1015, 844, 943, 844, 1086, 792, 771, 1078, 996, 1025, 1069, 811, 813, 776, 1028, 1079, 1023, 830, 897, 1048, 1265, 976, 825, 774, 941, 949, 997, 1004, 808, 931, 697, 923, 1002, 938, 948, 952, 755, 982, 972, 882, 861, 759, 1110, 1088, 1108, 784, 813, 1027, 999, 900, 758, 837, 983, 917, 782, 732, 1083, 1058, 833, 867, 894, 1166, 887, 744, 892, 891, 970, 1174, 815, 920, 707, 938, 979, 889, 807, 860, 1012, 961, 863, 865, 732, 992, 960, 918, 897, 720, 912, 1016, 1000, 826, 751, 845, 1056, 987, 1191, 830, 885, 1019, 1014, 768, 919, 898, 977, 1166, 1002, 909, 715, 989, 1011, 803, 922, 745, 1014, 901, 767, 1026, 944, 856, 1047, 964, 912, 778, 1026, 1141, 887, 790, 881, 1010, 1128, 845, 743, 953, 969, 814, 848, 936, 983, 812, 785, 898, 989, 1108, 842, 821, 1033, 996, 1084, 782, 939, 938, 765, 916, 866, 1036, 952, 924, 855, 1001, 1027, 888, 763, 857, 972, 726, 739, 951, 998, 999, 760, 759, 1109, 737, 870, 839, 876, 1217, 818, 1137, 798, 1054, 1113, 881, 779, 975, 1021, 958, 790, 841, 981, 949, 964, 782, 1015, 766, 1104, 978, 867, 1054, 1056, 884, 742, 949, 989, 970, 930, 770, 948, 1074, 790, 944, 868, 1082, 909, 762, 966, 1009, 1121, 841, 803, 1091, 1049, 886, 820, 962, 1047, 926, 839, 714, 1024, 1051, 1000, 847, 729, 996, 1001, 776, 879, 928, 996, 991, 837, 870, 946, 1132, 853, 795, 1072, 998, 1184, 820, 728, 1045, 879, 852, 733, 1124, 1201, 827, 833, 744, 1068, 1040, 858, 804, 910, 1016, 1032, 838, 760, 821, 947, 1090, 764, 943, 1073, 1209, 950, 770, 943, 1052, 1047, 863, 747, 1038, 753, 805, 1077, 742, 1060, 838, 1033, 1333, 1241, 792, 822, 956, 994, 826, 777, 1065, 1060, 866, 809, 880, 1030, 737, 942, 1034, 1164, 853, 763, 991, 967, 1087, 813, 747, 1058, 787, 861, 983, 1056, 1077],
      "WindowCenter": [361.0, 357.0, 358.0, 358.0, 357.0, 358.0, 357.0, 359.0, 357.0, 357.0, 359.0, 358.0, 358.0, 358.0, 356.0, 357.0, 357.0, 359.0, 360.0, 358.0, 357.0, 357.0, 359.0, 360.0, 357.0, 356.0, 355.0, 357.0, 357.0, 358.0, 358.0, 357.0, 358.0, 355.0, 357.0, 358.0, 358.0, 358.0, 358.0, 356.0, 358.0, 358.0, 357.0, 357.0, 357.0, 360.0, 360.0, 359.0, 356.0, 357.0, 358.0, 358.0, 357.0, 356.0, 356.0, 358.0, 357.0, 356.0, 356.0, 359.0, 360.0, 357.0, 357.0, 357.0, 359.0, 357.0, 355.0, 356.0, 356.0, 357.0, 359.0, 356.0, 357.0, 355.0, 357.0, 358.0, 357.0, 356.0, 357.0, 358.0, 358.0, 357.0, 357.0, 355.0, 358.0, 358.0, 358.0, 357.0, 355.0, 357.0, 358.0, 358.0, 357.0, 356.0, 357.0, 359.0, 358.0, 359.0, 357.0, 357.0, 358.0, 358.0, 356.0, 357.0, 356.0, 357.0, 358.0, 357.0, 356.0, 355.0, 358.0, 359.0, 357.0, 358.0, 356.0, 358.0, 358.0, 356.0, 359.0, 358.0, 357.0, 359.0, 359.0, 357.0, 356.0, 357.0, 358.0, 356.0, 356.0, 357.0, 358.0, 359.0, 356.0, 356.0, 358.0, 358.0, 357.0, 356.0, 357.0, 357.0, 356.0, 356.0, 357.0, 358.0, 359.0, 357.0, 356.0, 358.0, 358.0, 358.0, 356.0, 358.0, 358.0, 356.0, 357.0, 356.0, 358.0, 358.0, 358.0, 357.0, 358.0, 358.0, 357.0, 355.0, 357.0, 358.0, 355.0, 356.0, 358.0, 358.0, 358.0, 356.0, 356.0, 360.0, 356.0, 357.0, 357.0, 358.0, 360.0, 356.0, 359.0, 356.0, 358.0, 357.0, 356.0, 355.0, 357.0, 357.0, 356.0, 355.0, 355.0, 357.0, 356.0, 356.0, 355.0, 358.0, 355.0, 358.0, 357.0, 356.0, 357.0, 358.0, 356.0, 355.0, 357.0, 357.0, 358.0, 357.0, 355.0, 357.0, 359.0, 356.0, 357.0, 357.0, 359.0, 357.0, 356.0, 358.0, 359.0, 359.0, 357.0, 356.0, 359.0, 359.0, 357.0, 357.0, 358.0, 358.0, 357.0, 356.0, 355.0, 357.0, 358.0, 357.0, 356.0, 355.0, 358.0, 358.0, 356.0, 356.0, 357.0, 358.0, 358.0, 356.0, 356.0, 358.0, 359.0, 357.0, 356.0, 358.0, 357.0, 359.0, 355.0, 355.0, 358.0, 357.0, 357.0, 355.0, 358.0, 359.0, 356.0, 356.0, 355.0, 357.0, 357.0, 356.0, 355.0, 357.0, 357.0, 358.0, 356.0, 355.0, 356.0, 358.0, 359.0, 356.0, 358.0, 359.0, 359.0, 357.0, 355.0, 356.0, 357.0, 357.0, 356.0, 355.0, 358.0, 355.0, 357.0, 359.0, 355.0, 360.0, 357.0, 359.0, 360.0, 358.0, 355.0, 355.0, 357.0, 357.0, 356.0, 355.0, 358.0, 358.0, 356.0, 355.0, 356.0, 358.0, 356.0, 358.0, 358.0, 359.0, 357.0, 355.0, 358.0, 358.0, 359.0, 357.0, 355.0, 359.0, 357.0, 357.0, 358.0, 358.0, 358.0],
