{
  "AcquisitionMatrixPE": 96,
  "AcquisitionNumber": 1,
  "AcquisitionTime": "10:27:30.942500",
  "BandwidthPerPixelPhaseEncode": 18.939,
  "BaseResolution": 96,
  "BodyPartExamined": "BRAIN",
  "ConsistencyInfo": "N4_VE11C_LATEST_20160120",
  "ConversionSoftware": "dcm2niix",
  "ConversionSoftwareVersion": "v1.0.20170923 (OpenJPEG build) GCC6.3.0",
  "DerivedVendorReportedEchoSpacing": 0.000550011,
  "DeviceSerialNumber": "66112",
  "DwellTime": 2.3e-06,
  "EchoTime": 0.033,
  "EchoTrainLength": 96,
  "EffectiveEchoSpacing": 0.000550011,
  "FlipAngle": 64,
  "ImageType": [
    "ORIGINAL",
    "PRIMARY",
    "FMRI",
    "NONE",
    "ND",
    "NORM",
    "MOSAIC"
],
  "InstitutionAddress": "Maynard_3_Hanover_NH_US_03755",
  "InstitutionName": "Dartmouth_College_-_PBS",
  "MagneticFieldStrength": 3,
  "Manufacturer": "Siemens",
  "ManufacturersModelName": "Prisma",
  "Modality": "MR",
  "MultibandAccelerationFactor": 4,
  "PartialFourier": 1,
  "PercentPhaseFOV": 100,
  "PhaseEncodingDirection": "j-",
  "PhaseEncodingSteps": 96,
  "PhaseResolution": 1,
  "ProcedureStepDescription": "Gobbini_Matteo_1017_famface-angles",
  "ProtocolName": "func_run-05_task-str1back",
  "PulseSequenceDetails": "%SiemensSeq%_ep2d_bold",
  "ReceiveCoilActiveElements": "HEA;HEP",
  "ReceiveCoilName": "Head_32",
  "ReconMatrixPE": 96,
  "RepetitionTime": 1.25,
  "ScanOptions": "FS",
  "ScanningSequence": "EP",
  "SequenceName": "_epfid2d1_96",
  "SequenceVariant": "SK",
  "SeriesDescription": "func_run-05_task-str1back",
  "SliceTiming": [0.88, 0, 0.615, 0.0875, 0.7025, 0.1775, 0.7925, 0.3525, 0.9675, 0.44, 1.055, 0.5275, 1.1425, 0.265, 0.88, 0, 0.615, 0.0875, 0.7025, 0.1775, 0.7925, 0.3525, 0.9675, 0.44, 1.055, 0.5275, 1.1425, 0.265, 0.88, 0, 0.615, 0.0875, 0.7025, 0.1775, 0.7925, 0.3525, 0.9675, 0.44, 1.055, 0.5275, 1.1425, 0.265, 0.88, 0, 0.615, 0.0875, 0.7025, 0.1775, 0.7925, 0.3525, 0.9675, 0.44, 1.055, 0.5275, 1.1425, 0.265],
  "SoftwareVersions": "syngo_MR_E11",
  "StationName": "AWP66112",
  "TaskName": "str1back",
  "TotalReadoutTime": 0.0522511,
  "dcmmeta_affine": [
    [-2.4994869232177734, 0.049738310277462006, -0.009543189778923988, 121.35560607910156],
    [0.049619343131780624, 2.499323844909668, 0.03030814416706562, -108.40351867675781],
    [-0.010143598541617393, -0.03011251427233219, 2.499798059463501, -81.13140869140625],
    [0.0, 0.0, 0.0, 1.0]
],
  "dcmmeta_reorient_transform": [
    [0.0, -1.0, 0.0, 95.0],
    [1.0, 0.0, 0.0, 0.0],
    [0.0, 0.0, 1.0, 0.0],
    [0.0, 0.0, 0.0, 1.0]
],
  "dcmmeta_shape": [96, 96, 56, 280],
  "dcmmeta_slice_dim": 2,
  "dcmmeta_version": 0.6,
  "global": {
    "const": {
      "AccessionNumber": "A000631",
      "AcquisitionMatrix": [96, 0, 0, 96],
      "AngioFlag": "N",
      "BitsAllocated": 16,
      "BitsStored": 12,
      "BodyPartExamined": "BRAIN",
      "Columns": 768,
      "EchoNumbers": 1,
      "EchoTime": 33.0,
      "EchoTrainLength": 96,
      "FlipAngle": 64.0,
      "HighBit": 11,
      "ImageOrientationPatient": [0.99979478118637, -0.01984773785, -0.004057439431, 0.01989532401804, 0.99972951037989, 0.01204500551315],
      "ImagePositionPatient": [-982.62043655837, -952.13292706662, -90.701655662992],
      "ImageType": [
        "ORIGINAL",
        "PRIMARY",
        "FMRI",
        "NONE",
        "ND",
        "NORM",
        "MOSAIC"
],
      "ImagedNucleus": "1H",
      "ImagingFrequency": 123.252366,
      "InPlanePhaseEncodingDirection": "COL",
      "MRAcquisitionType": "2D",
      "MagneticFieldStrength": 3.0,
      "Manufacturer": "SIEMENS",
      "ManufacturerModelName": "Prisma",
      "Modality": "MR",
      "NumberOfAverages": 1.0,
      "NumberOfPhaseEncodingSteps": 96,
      "PercentPhaseFieldOfView": 100.0,
      "PercentSampling": 100.0,
      "PerformedProcedureStepStartTime": "094845.448000",
      "PhotometricInterpretation": "MONOCHROME2",
      "PixelBandwidth": 2265.0,
      "PixelRepresentation": 0,
      "PixelSpacing": [2.5, 2.5],
      "PositionReferenceIndicator": "",
      "ProtocolName": "func_run-05_task-str1back",
      "RepetitionTime": 1250.0,
      "Rows": 768,
      "SAR": 0.05917426781538,
      "SamplesPerPixel": 1,
      "ScanOptions": "FS",
      "ScanningSequence": "EP",
      "SequenceName": "*epfid2d1_96",
      "SequenceVariant": "SK",
      "SeriesDescription": "func_run-05_task-str1back",
      "SeriesNumber": 36,
      "SeriesTime": "102732.371000",
      "SliceLocation": -82.902309543486,
      "SliceThickness": 2.5,
      "SmallestImagePixelValue": 0,
      "SoftwareVersions": "syngo MR E11",
      "SpacingBetweenSlices": 2.5000000379284,
      "SpecificCharacterSet": "ISO_IR 100",
      "StudyID": "2",
      "StudyTime": "094845.373000",
      "TransmitCoilName": "Body",
      "VariableFlipAngleFlag": "N",
      "WindowCenterWidthExplanation": "Algo1",
      "dBdt": 0.0},
    "slices": {}
  },
  "time": {
    "samples": {
      "AcquisitionNumber": [1, 2, 3, 4, 5, 6, 7, 8, 9, 10, 11, 12, 13, 14, 15, 16, 17, 18, 19, 20, 21, 22, 23, 24, 25, 26, 27, 28, 29, 30, 31, 32, 33, 34, 35, 36, 37, 38, 39, 40, 41, 42, 43, 44, 45, 46, 47, 48, 49, 50, 51, 52, 53, 54, 55, 56, 57, 58, 59, 60, 61, 62, 63, 64, 65, 66, 67, 68, 69, 70, 71, 72, 73, 74, 75, 76, 77, 78, 79, 80, 81, 82, 83, 84, 85, 86, 87, 88, 89, 90, 91, 92, 93, 94, 95, 96, 97, 98, 99, 100, 101, 102, 103, 104, 105, 106, 107, 108, 109, 110, 111, 112, 113, 114, 115, 116, 117, 118, 119, 120, 121, 122, 123, 124, 125, 126, 127, 128, 129, 130, 131, 132, 133, 134, 135, 136, 137, 138, 139, 140, 141, 142, 143, 144, 145, 146, 147, 148, 149, 150, 151, 152, 153, 154, 155, 156, 157, 158, 159, 160, 161, 162, 163, 164, 165, 166, 167, 168, 169, 170, 171, 172, 173, 174, 175, 176, 177, 178, 179, 180, 181, 182, 183, 184, 185, 186, 187, 188, 189, 190, 191, 192, 193, 194, 195, 196, 197, 198, 199, 200, 201, 202, 203, 204, 205, 206, 207, 208, 209, 210, 211, 212, 213, 214, 215, 216, 217, 218, 219, 220, 221, 222, 223, 224, 225, 226, 227, 228, 229, 230, 231, 232, 233, 234, 235, 236, 237, 238, 239, 240, 241, 242, 243, 244, 245, 246, 247, 248, 249, 250, 251, 252, 253, 254, 255, 256, 257, 258, 259, 260, 261, 262, 263, 264, 265, 266, 267, 268, 269, 270, 271, 272, 273, 274, 275, 276, 277, 278, 279, 280],
      "AcquisitionTime": ["102730.942500", "102732.192500", "102733.442500", "102734.692500", "102735.942500", "102737.192500", "102738.442500", "102739.692500", "102740.942500", "102742.192500", "102743.442500", "102744.692500", "102745.942500", "102747.192500", "102748.442500", "102749.692500", "102750.942500", "102752.192500", "102753.442500", "102754.692500", "102755.942500", "102757.192500", "102758.442500", "102759.692500", "102800.942500", "102802.192500", "102803.442500", "102804.692500", "102805.942500", "102807.192500", "102808.442500", "102809.692500", "102810.942500", "102812.192500", "102813.442500", "102814.692500", "102815.942500", "102817.192500", "102818.442500", "102819.692500", "102820.942500", "102822.192500", "102823.442500", "102824.692500", "102825.942500", "102827.192500", "102828.442500", "102829.692500", "102830.942500", "102832.192500", "102833.442500", "102834.692500", "102835.942500", "102837.192500", "102838.442500", "102839.692500", "102840.942500", "102842.192500", "102843.442500", "102844.692500", "102845.942500", "102847.192500", "102848.442500", "102849.692500", "102850.942500", "102852.192500", "102853.442500", "102854.692500", "102855.942500", "102857.192500", "102858.442500", "102859.692500", "102900.942500", "102902.192500", "102903.442500", "102904.692500", "102905.942500", "102907.192500", "102908.442500", "102909.692500", "102910.942500", "102912.192500", "102913.442500", "102914.692500", "102915.942500", "102917.192500", "102918.442500", "102919.692500", "102920.942500", "102922.192500", "102923.442500", "102924.692500", "102925.942500", "102927.192500", "102928.442500", "102929.692500", "102930.942500", "102932.192500", "102933.442500", "102934.692500", "102935.942500", "102937.192500", "102938.442500", "102939.692500", "102940.942500", "102942.192500", "102943.442500", "102944.692500", "102945.942500", "102947.192500", "102948.442500", "102949.692500", "102950.942500", "102952.192500", "102953.442500", "102954.692500", "102955.942500", "102957.192500", "102958.442500", "102959.692500", "103000.942500", "103002.192500", "103003.442500", "103004.692500", "103005.942500", "103007.192500", "103008.442500", "103009.692500", "103010.942500", "103012.192500", "103013.442500", "103014.692500", "103015.942500", "103017.192500", "103018.442500", "103019.692500", "103020.942500", "103022.192500", "103023.442500", "103024.692500", "103025.942500", "103027.192500", "103028.442500", "103029.692500", "103030.942500", "103032.192500", "103033.442500", "103034.692500", "103035.942500", "103037.192500", "103038.442500", "103039.692500", "103040.942500", "103042.192500", "103043.442500", "103044.692500", "103045.942500", "103047.192500", "103048.442500", "103049.692500", "103050.942500", "103052.192500", "103053.442500", "103054.692500", "103055.942500", "103057.192500", "103058.442500", "103059.692500", "103100.942500", "103102.192500", "103103.442500", "103104.692500", "103105.942500", "103107.192500", "103108.442500", "103109.692500", "103110.942500", "103112.192500", "103113.442500", "103114.692500", "103115.942500", "103117.192500", "103118.442500", "103119.692500", "103120.942500", "103122.192500", "103123.442500", "103124.692500", "103125.942500", "103127.192500", "103128.442500", "103129.692500", "103130.942500", "103132.192500", "103133.442500", "103134.692500", "103135.942500", "103137.192500", "103138.442500", "103139.692500", "103140.942500", "103142.192500", "103143.442500", "103144.692500", "103145.942500", "103147.192500", "103148.442500", "103149.692500", "103150.942500", "103152.192500", "103153.442500", "103154.692500", "103155.942500", "103157.192500", "103158.442500", "103159.692500", "103200.942500", "103202.192500", "103203.442500", "103204.692500", "103205.942500", "103207.192500", "103208.442500", "103209.692500", "103210.942500", "103212.192500", "103213.442500", "103214.692500", "103215.942500", "103217.192500", "103218.442500", "103219.692500", "103220.942500", "103222.192500", "103223.442500", "103224.692500", "103225.942500", "103227.192500", "103228.442500", "103229.692500", "103230.942500", "103232.192500", "103233.442500", "103234.692500", "103235.942500", "103237.192500", "103238.442500", "103239.692500", "103240.942500", "103242.192500", "103243.442500", "103244.692500", "103245.942500", "103247.192500", "103248.442500", "103249.692500", "103250.942500", "103252.192500", "103253.442500", "103254.692500", "103255.942500", "103257.192500", "103258.442500", "103259.692500", "103300.942500", "103302.192500", "103303.442500", "103304.692500", "103305.942500", "103307.192500", "103308.442500", "103309.692500", "103310.942500", "103312.192500", "103313.442500", "103314.692500", "103315.942500", "103317.192500", "103318.442500", "103319.692500"],
      "ContentTime": ["102732.374000", "102733.451000", "102734.689000", "102735.911000", "102737.186000", "102738.415000", "102739.703000", "102740.960000", "102742.179000", "102743.441000", "102744.668000", "102745.929000", "102747.169000", "102748.416000", "102749.687000", "102750.910000", "102752.173000", "102753.454000", "102754.672000", "102755.919000", "102757.208000", "102758.459000", "102759.651000", "102800.946000", "102802.186000", "102803.393000", "102804.748000", "102805.970000", "102807.173000", "102808.421000", "102809.702000", "102810.957000", "102812.202000", "102813.438000", "102814.690000", "102815.947000", "102817.177000", "102818.459000", "102819.671000", "102820.948000", "102822.206000", "102823.428000", "102824.706000", "102825.917000", "102827.232000", "102828.424000", "102829.734000", "102830.926000", "102832.216000", "102833.451000", "102834.714000", "102835.926000", "102837.198000", "102838.424000", "102839.698000", "102840.951000", "102842.165000", "102843.432000", "102844.667000", "102845.922000", "102847.203000", "102848.428000", "102849.673000", "102850.929000", "102852.249000", "102853.431000", "102854.635000", "102855.904000", "102857.168000", "102858.403000", "102859.669000", "102900.943000", "102902.226000", "102903.470000", "102904.657000", "102905.926000", "102907.177000", "102908.436000", "102909.690000", "102910.955000", "102912.184000", "102913.425000", "102914.686000", "102915.914000", "102917.207000", "102918.453000", "102919.694000", "102920.916000", "102922.198000", "102923.462000", "102924.700000", "102925.960000", "102927.216000", "102928.418000", "102929.652000", "102930.937000", "102932.167000", "102933.425000", "102934.682000", "102935.963000", "102937.187000", "102938.428000", "102939.682000", "102940.944000", "102942.194000", "102943.445000", "102944.726000", "102945.932000", "102947.181000", "102948.489000", "102949.688000", "102950.986000", "102952.185000", "102953.446000", "102954.679000", "102955.918000", "102957.204000", "102958.464000", "102959.689000", "103000.925000", "103002.240000", "103003.424000", "103004.677000", "103005.911000", "103007.206000", "103008.447000", "103009.699000", "103010.959000", "103012.209000", "103013.514000", "103014.707000", "103015.942000", "103017.197000", "103018.446000", "103019.707000", "103020.962000", "103022.199000", "103023.448000", "103024.681000", "103025.961000", "103027.186000", "103028.454000", "103029.673000", "103030.954000", "103032.180000", "103033.435000", "103034.695000", "103035.934000", "103037.215000", "103038.448000", "103039.715000", "103040.998000", "103042.220000", "103043.404000", "103044.695000", "103045.938000", "103047.220000", "103048.473000", "103049.673000", "103050.941000", "103052.172000", "103053.455000", "103054.702000", "103055.940000", "103057.170000", "103058.428000", "103059.713000", "103100.944000", "103102.167000", "103103.420000", "103104.686000", "103105.963000", "103107.186000", "103108.453000", "103109.688000", "103110.915000", "103112.159000", "103113.457000", "103114.689000", "103115.917000", "103117.173000", "103118.463000", "103119.675000", "103120.941000", "103122.218000", "103123.413000", "103124.692000", "103125.931000", "103127.188000", "103128.455000", "103129.710000", "103130.946000", "103132.173000", "103133.458000", "103134.697000", "103135.963000", "103137.261000", "103138.447000", "103139.722000", "103140.912000", "103142.167000", "103143.416000", "103144.682000", "103145.989000", "103147.249000", "103148.476000", "103149.673000", "103150.939000", "103152.229000", "103153.507000", "103154.708000", "103155.970000", "103157.201000", "103158.505000", "103159.727000", "103200.942000", "103202.188000", "103203.470000", "103204.662000", "103205.948000", "103207.191000", "103208.442000", "103209.679000", "103210.923000", "103212.182000", "103213.399000", "103214.685000", "103215.941000", "103217.244000", "103218.440000", "103219.739000", "103220.926000", "103222.217000", "103223.456000", "103224.686000", "103225.996000", "103227.186000", "103228.435000", "103229.701000", "103230.934000", "103232.207000", "103233.447000", "103234.730000", "103235.970000", "103237.178000", "103238.436000", "103239.697000", "103240.944000", "103242.221000", "103243.449000", "103244.685000", "103245.966000", "103247.202000", "103248.467000", "103249.716000", "103250.980000", "103252.176000", "103253.442000", "103254.698000", "103255.949000", "103257.181000", "103258.416000", "103259.722000", "103300.956000", "103302.184000", "103303.441000", "103304.666000", "103305.984000", "103307.198000", "103308.442000", "103309.776000", "103310.951000", "103312.208000", "103313.457000", "103314.706000", "103315.948000", "103317.210000", "103318.443000", "103319.725000", "103320.963000"],
      "InstanceCreationTime": ["102732.374000", "102733.451000", "102734.689000", "102735.911000", "102737.186000", "102738.415000", "102739.703000", "102740.960000", "102742.179000", "102743.441000", "102744.668000", "102745.929000", "102747.169000", "102748.416000", "102749.687000", "102750.910000", "102752.173000", "102753.454000", "102754.672000", "102755.919000", "102757.208000", "102758.459000", "102759.651000", "102800.946000", "102802.186000", "102803.393000", "102804.748000", "102805.970000", "102807.173000", "102808.421000", "102809.702000", "102810.957000", "102812.202000", "102813.438000", "102814.690000", "102815.947000", "102817.177000", "102818.459000", "102819.671000", "102820.948000", "102822.206000", "102823.428000", "102824.706000", "102825.917000", "102827.232000", "102828.424000", "102829.734000", "102830.926000", "102832.216000", "102833.451000", "102834.714000", "102835.926000", "102837.198000", "102838.424000", "102839.698000", "102840.951000", "102842.165000", "102843.432000", "102844.667000", "102845.922000", "102847.203000", "102848.428000", "102849.673000", "102850.929000", "102852.249000", "102853.431000", "102854.635000", "102855.904000", "102857.168000", "102858.403000", "102859.669000", "102900.943000", "102902.226000", "102903.470000", "102904.657000", "102905.926000", "102907.177000", "102908.436000", "102909.690000", "102910.955000", "102912.184000", "102913.425000", "102914.686000", "102915.914000", "102917.207000", "102918.453000", "102919.694000", "102920.916000", "102922.198000", "102923.462000", "102924.700000", "102925.960000", "102927.216000", "102928.418000", "102929.652000", "102930.937000", "102932.167000", "102933.425000", "102934.682000", "102935.963000", "102937.187000", "102938.428000", "102939.682000", "102940.944000", "102942.194000", "102943.445000", "102944.726000", "102945.932000", "102947.181000", "102948.489000", "102949.688000", "102950.986000", "102952.185000", "102953.446000", "102954.679000", "102955.918000", "102957.204000", "102958.464000", "102959.689000", "103000.925000", "103002.240000", "103003.424000", "103004.677000", "103005.911000", "103007.206000", "103008.447000", "103009.699000", "103010.959000", "103012.209000", "103013.514000", "103014.707000", "103015.942000", "103017.197000", "103018.446000", "103019.707000", "103020.962000", "103022.199000", "103023.448000", "103024.681000", "103025.961000", "103027.186000", "103028.454000", "103029.673000", "103030.954000", "103032.180000", "103033.435000", "103034.695000", "103035.934000", "103037.215000", "103038.448000", "103039.715000", "103040.998000", "103042.220000", "103043.404000", "103044.695000", "103045.938000", "103047.220000", "103048.473000", "103049.673000", "103050.941000", "103052.172000", "103053.455000", "103054.702000", "103055.940000", "103057.170000", "103058.428000", "103059.713000", "103100.944000", "103102.167000", "103103.420000", "103104.686000", "103105.963000", "103107.186000", "103108.453000", "103109.688000", "103110.915000", "103112.159000", "103113.457000", "103114.689000", "103115.917000", "103117.173000", "103118.463000", "103119.675000", "103120.941000", "103122.218000", "103123.413000", "103124.692000", "103125.931000", "103127.188000", "103128.455000", "103129.710000", "103130.946000", "103132.173000", "103133.458000", "103134.697000", "103135.963000", "103137.261000", "103138.447000", "103139.722000", "103140.912000", "103142.167000", "103143.416000", "103144.682000", "103145.989000", "103147.249000", "103148.476000", "103149.673000", "103150.939000", "103152.229000", "103153.507000", "103154.708000", "103155.970000", "103157.201000", "103158.505000", "103159.727000", "103200.942000", "103202.188000", "103203.470000", "103204.662000", "103205.948000", "103207.191000", "103208.442000", "103209.679000", "103210.923000", "103212.182000", "103213.399000", "103214.685000", "103215.941000", "103217.244000", "103218.440000", "103219.739000", "103220.926000", "103222.217000", "103223.456000", "103224.686000", "103225.996000", "103227.186000", "103228.435000", "103229.701000", "103230.934000", "103232.207000", "103233.447000", "103234.730000", "103235.970000", "103237.178000", "103238.436000", "103239.697000", "103240.944000", "103242.221000", "103243.449000", "103244.685000", "103245.966000", "103247.202000", "103248.467000", "103249.716000", "103250.980000", "103252.176000", "103253.442000", "103254.698000", "103255.949000", "103257.181000", "103258.416000", "103259.722000", "103300.956000", "103302.184000", "103303.441000", "103304.666000", "103305.984000", "103307.198000", "103308.442000", "103309.776000", "103310.951000", "103312.208000", "103313.457000", "103314.706000", "103315.948000", "103317.210000", "103318.443000", "103319.725000", "103320.963000"],
      "InstanceNumber": [1, 2, 3, 4, 5, 6, 7, 8, 9, 10, 11, 12, 13, 14, 15, 16, 17, 18, 19, 20, 21, 22, 23, 24, 25, 26, 27, 28, 29, 30, 31, 32, 33, 34, 35, 36, 37, 38, 39, 40, 41, 42, 43, 44, 45, 46, 47, 48, 49, 50, 51, 52, 53, 54, 55, 56, 57, 58, 59, 60, 61, 62, 63, 64, 65, 66, 67, 68, 69, 70, 71, 72, 73, 74, 75, 76, 77, 78, 79, 80, 81, 82, 83, 84, 85, 86, 87, 88, 89, 90, 91, 92, 93, 94, 95, 96, 97, 98, 99, 100, 101, 102, 103, 104, 105, 106, 107, 108, 109, 110, 111, 112, 113, 114, 115, 116, 117, 118, 119, 120, 121, 122, 123, 124, 125, 126, 127, 128, 129, 130, 131, 132, 133, 134, 135, 136, 137, 138, 139, 140, 141, 142, 143, 144, 145, 146, 147, 148, 149, 150, 151, 152, 153, 154, 155, 156, 157, 158, 159, 160, 161, 162, 163, 164, 165, 166, 167, 168, 169, 170, 171, 172, 173, 174, 175, 176, 177, 178, 179, 180, 181, 182, 183, 184, 185, 186, 187, 188, 189, 190, 191, 192, 193, 194, 195, 196, 197, 198, 199, 200, 201, 202, 203, 204, 205, 206, 207, 208, 209, 210, 211, 212, 213, 214, 215, 216, 217, 218, 219, 220, 221, 222, 223, 224, 225, 226, 227, 228, 229, 230, 231, 232, 233, 234, 235, 236, 237, 238, 239, 240, 241, 242, 243, 244, 245, 246, 247, 248, 249, 250, 251, 252, 253, 254, 255, 256, 257, 258, 259, 260, 261, 262, 263, 264, 265, 266, 267, 268, 269, 270, 271, 272, 273, 274, 275, 276, 277, 278, 279, 280],
      "LargestImagePixelValue": [915, 873, 1119, 850, 802, 1102, 772, 823, 981, 953, 835, 859, 1101, 812, 835, 988, 1187, 775, 778, 1041, 750, 976, 1069, 1005, 1107, 884, 808, 1007, 774, 819, 1084, 1210, 759, 825, 982, 835, 798, 1004, 1046, 816, 749, 988, 836, 853, 1060, 844, 1058, 867, 816, 1038, 1129, 823, 905, 1044, 805, 810, 883, 1013, 1024, 865, 729, 960, 1012, 855, 781, 974, 1072, 840, 758, 966, 1115, 1085, 971, 802, 978, 795, 869, 877, 947, 974, 810, 750, 1077, 774, 824, 958, 799, 1119, 879, 766, 916, 1198, 757, 828, 1038, 840, 933, 1011, 796, 826, 971, 1003, 824, 761, 1015, 992, 800, 737, 1018, 794, 850, 945, 1017, 820, 926, 1041, 1023, 920, 792, 877, 959, 1022, 835, 1028, 759, 803, 1161, 1280, 920, 743, 1160, 796, 804, 749, 994, 885, 772, 1017, 776, 755, 1072, 758, 832, 1055, 819, 923, 1244, 759, 832, 963, 1265, 851, 805, 749, 1025, 775, 917, 1026, 1099, 862, 751, 1030, 1047, 845, 848, 893, 1066, 786, 928, 743, 883, 1055, 1332, 863, 839, 1062, 769, 835, 756, 1089, 1025, 963, 771, 825, 1032, 810, 826, 917, 1124, 979, 826, 819, 943, 871, 799, 981, 779, 912, 1124, 783, 1132, 817, 867, 1260, 776, 899, 907, 858, 745, 849, 1086, 930, 792, 753, 1011, 876, 826, 1002, 1061, 1006, 800, 928, 1134, 833, 886, 841, 1078, 814, 733, 988, 872, 809, 1084, 1191, 939, 906, 965, 1047, 778, 945, 984, 1054, 831, 1058, 807, 1309, 919, 915, 1057, 790, 899, 1046, 797, 789, 818, 1028, 769, 883, 1154, 1188, 788, 755, 935, 1078, 856, 865, 878, 1008, 1156, 858, 790, 773, 1013, 848, 868, 1065, 797, 777, 1119, 780],
      "WindowCenter": [357.0, 357.0, 358.0, 356.0, 355.0, 357.0, 354.0, 355.0, 357.0, 357.0, 356.0, 356.0, 358.0, 355.0, 356.0, 357.0, 359.0, 355.0, 355.0, 358.0, 356.0, 358.0, 359.0, 357.0, 358.0, 356.0, 356.0, 358.0, 356.0, 357.0, 358.0, 359.0, 355.0, 356.0, 357.0, 356.0, 356.0, 357.0, 357.0, 356.0, 355.0, 357.0, 357.0, 357.0, 359.0, 356.0, 358.0, 356.0, 356.0, 358.0, 359.0, 356.0, 357.0, 357.0, 356.0, 356.0, 356.0, 357.0, 357.0, 356.0, 355.0, 356.0, 357.0, 356.0, 356.0, 357.0, 358.0, 356.0, 355.0, 357.0, 359.0, 358.0, 357.0, 356.0, 358.0, 356.0, 356.0, 356.0, 357.0, 357.0, 357.0, 356.0, 359.0, 357.0, 357.0, 358.0, 357.0, 359.0, 356.0, 355.0, 356.0, 358.0, 355.0, 355.0, 357.0, 356.0, 357.0, 357.0, 355.0, 355.0, 357.0, 357.0, 355.0, 354.0, 357.0, 357.0, 356.0, 355.0, 358.0, 356.0, 357.0, 358.0, 359.0, 357.0, 358.0, 359.0, 358.0, 357.0, 356.0, 357.0, 358.0, 358.0, 357.0, 358.0, 356.0, 356.0, 359.0, 359.0, 356.0, 355.0, 358.0, 355.0, 354.0, 354.0, 356.0, 355.0, 356.0, 358.0, 356.0, 355.0, 358.0, 355.0, 356.0, 358.0, 356.0, 356.0, 359.0, 354.0, 355.0, 356.0, 359.0, 355.0, 354.0, 354.0, 357.0, 355.0, 357.0, 358.0, 359.0, 356.0, 354.0, 357.0, 358.0, 356.0, 356.0, 356.0, 358.0, 356.0, 358.0, 356.0, 358.0, 359.0, 360.0, 356.0, 356.0, 358.0, 355.0, 356.0, 354.0, 357.0, 357.0, 357.0, 355.0, 356.0, 359.0, 356.0, 356.0, 357.0, 358.0, 357.0, 356.0, 356.0, 357.0, 357.0, 356.0, 358.0, 356.0, 358.0, 359.0, 356.0, 359.0, 356.0, 356.0, 359.0, 354.0, 355.0, 356.0, 356.0, 354.0, 355.0, 357.0, 356.0, 355.0, 355.0, 357.0, 357.0, 356.0, 358.0, 358.0, 357.0, 356.0, 357.0, 359.0, 356.0, 356.0, 356.0, 358.0, 356.0, 355.0, 358.0, 357.0, 357.0, 360.0, 360.0, 357.0, 357.0, 358.0, 358.0, 356.0, 357.0, 358.0, 358.0, 357.0, 358.0, 356.0, 359.0, 356.0, 356.0, 357.0, 356.0, 357.0, 358.0, 356.0, 356.0, 356.0, 357.0, 356.0, 358.0, 360.0, 359.0, 356.0, 355.0, 357.0, 358.0, 356.0, 356.0, 357.0, 358.0, 359.0, 356.0, 356.0, 355.0, 358.0, 357.0, 357.0, 359.0, 357.0, 356.0, 359.0, 356.0],
      "WindowWidth": [765.0, 763.0, 765.0, 761.0, 760.0, 763.0, 760.0, 761.0, 763.0, 763.0, 761.0, 761.0, 765.0, 760.0, 762.0, 764.0, 767.0, 761.0, 761.0, 764.0, 762.0, 765.0, 766.0, 763.0, 765.0, 762.0, 762.0, 765.0, 763.0, 763.0, 765.0, 767.0, 760.0, 762.0, 763.0, 763.0, 762.0, 764.0, 764.0, 762.0, 760.0, 763.0, 763.0, 764.0, 766.0, 762.0, 765.0, 763.0, 762.0, 765.0, 766.0, 763.0, 763.0, 764.0, 762.0, 762.0, 761.0, 763.0, 764.0, 762.0, 760.0, 762.0, 764.0, 762.0, 762.0, 764.0, 765.0, 762.0, 761.0, 763.0, 766.0, 765.0, 763.0, 762.0, 765.0, 762.0, 763.0, 761.0, 763.0, 763.0, 763.0, 762.0, 767.0, 764.0, 764.0, 766.0, 764.0, 766.0, 763.0, 761.0, 762.0, 765.0, 760.0, 761.0, 764.0, 762.0, 763.0, 763.0, 761.0, 761.0, 763.0, 763.0, 761.0, 759.0, 763.0, 763.0, 762.0, 761.0, 765.0, 762.0, 764.0, 765.0, 767.0, 765.0, 766.0, 767.0, 765.0, 764.0, 762.0, 764.0, 765.0, 766.0, 764.0, 765.0, 763.0, 762.0, 766.0, 767.0, 763.0, 760.0, 765.0, 761.0, 760.0, 759.0, 762.0, 761.0, 762.0, 765.0, 762.0, 761.0, 765.0, 761.0, 763.0, 765.0, 762.0, 763.0, 766.0, 760.0, 761.0, 762.0, 766.0, 760.0, 759.0, 759.0, 764.0, 761.0, 764.0, 765.0, 766.0, 762.0, 760.0, 764.0, 765.0, 763.0, 763.0, 763.0, 766.0, 762.0, 765.0, 763.0, 766.0, 767.0, 769.0, 763.0, 762.0, 765.0, 761.0, 762.0, 760.0, 763.0, 764.0, 763.0, 761.0, 763.0, 766.0, 763.0, 763.0, 764.0, 765.0, 764.0, 761.0, 761.0, 763.0, 764.0, 763.0, 765.0, 763.0, 766.0, 768.0, 763.0, 766.0, 762.0, 762.0, 766.0, 760.0, 761.0, 761.0, 761.0, 760.0, 760.0, 764.0, 762.0, 761.0, 760.0, 764.0, 764.0, 762.0, 764.0, 765.0, 763.0, 762.0, 763.0, 766.0, 763.0, 763.0, 762.0, 765.0, 762.0, 761.0, 764.0, 764.0, 764.0, 768.0, 769.0, 764.0, 764.0, 764.0, 765.0, 762.0, 764.0, 766.0, 765.0, 763.0, 765.0, 762.0, 767.0, 762.0, 762.0, 764.0, 762.0, 764.0, 766.0, 762.0, 762.0, 761.0, 764.0, 763.0, 766.0, 769.0, 767.0, 762.0, 761.0, 763.0, 765.0, 763.0, 763.0, 764.0, 764.0, 766.0, 762.0, 762.0, 761.0, 765.0, 764.0, 765.0, 767.0, 764.0, 763.0, 767.0, 763.0]
    },
    "slices": {}
  }
}