{
  "AcquisitionMatrixPE": 96,
  "AcquisitionNumber": 1,
  "AcquisitionTime": "10:48:43.697500",
  "BandwidthPerPixelPhaseEncode": 18.939,
  "BaseResolution": 96,
  "BodyPartExamined": "BRAIN",
  "ConsistencyInfo": "N4_VE11C_LATEST_20160120",
  "ConversionSoftware": "dcm2niix",
  "ConversionSoftwareVersion": "v1.0.20170923 (OpenJPEG build) GCC6.3.0",
  "DerivedVendorReportedEchoSpacing": 0.000550011,
  "DeviceSerialNumber": "66112",
  "DwellTime": 2.3e-06,
  "EchoTime": 0.033,
  "EchoTrainLength": 96,
  "EffectiveEchoSpacing": 0.000550011,
  "FlipAngle": 64,
  "ImageType": [
    "ORIGINAL",
    "PRIMARY",
    "FMRI",
    "NONE",
    "ND",
    "NORM",
    "MOSAIC"
],
  "InstitutionAddress": "Maynard_3_Hanover_NH_US_03755",
  "InstitutionName": "Dartmouth_College_-_PBS",
  "MagneticFieldStrength": 3,
  "Manufacturer": "Siemens",
  "ManufacturersModelName": "Prisma",
  "Modality": "MR",
  "MultibandAccelerationFactor": 4,
  "PartialFourier": 1,
  "PercentPhaseFOV": 100,
  "PhaseEncodingDirection": "j-",
  "PhaseEncodingSteps": 96,
  "PhaseResolution": 1,
  "ProcedureStepDescription": "Gobbini_Matteo_1017_famface-angles",
  "ProtocolName": "func_run-08_task-str1back",
  "PulseSequenceDetails": "%SiemensSeq%_ep2d_bold",
  "ReceiveCoilActiveElements": "HEA;HEP",
  "ReceiveCoilName": "Head_32",
  "ReconMatrixPE": 96,
  "RepetitionTime": 1.25,
  "ScanOptions": "FS",
  "ScanningSequence": "EP",
  "SequenceName": "_epfid2d1_96",
  "SequenceVariant": "SK",
  "SeriesDescription": "func_run-08_task-str1back",
  "SliceTiming": [0.88, 0, 0.615, 0.09, 0.705, 0.1775, 0.7925, 0.3525, 0.9675, 0.44, 1.055, 0.5275, 1.1425, 0.265, 0.88, 0, 0.615, 0.09, 0.705, 0.1775, 0.7925, 0.3525, 0.9675, 0.44, 1.055, 0.5275, 1.1425, 0.265, 0.88, 0, 0.615, 0.09, 0.705, 0.1775, 0.7925, 0.3525, 0.9675, 0.44, 1.055, 0.5275, 1.1425, 0.265, 0.88, 0, 0.615, 0.09, 0.705, 0.1775, 0.7925, 0.3525, 0.9675, 0.44, 1.055, 0.5275, 1.1425, 0.265],
  "SoftwareVersions": "syngo_MR_E11",
  "StationName": "AWP66112",
  "TaskName": "str1back",
  "TotalReadoutTime": 0.0522511,
  "dcmmeta_affine": [
    [-2.4994869232177734, 0.049738310277462006, -0.009543189778923988, 121.35560607910156],
    [0.049619343131780624, 2.499323844909668, 0.03030814416706562, -108.40351867675781],
    [-0.010143598541617393, -0.03011251427233219, 2.499798059463501, -81.13140869140625],
    [0.0, 0.0, 0.0, 1.0]
],
  "dcmmeta_reorient_transform": [
    [0.0, -1.0, 0.0, 95.0],
    [1.0, 0.0, 0.0, 0.0],
    [0.0, 0.0, 1.0, 0.0],
    [0.0, 0.0, 0.0, 1.0]
],
  "dcmmeta_shape": [96, 96, 56, 280],
  "dcmmeta_slice_dim": 2,
  "dcmmeta_version": 0.6,
  "global": {
    "const": {
      "AccessionNumber": "A000631",
      "AcquisitionMatrix": [96, 0, 0, 96],
      "AngioFlag": "N",
      "BitsAllocated": 16,
      "BitsStored": 12,
      "BodyPartExamined": "BRAIN",
      "Columns": 768,
      "EchoNumbers": 1,
      "EchoTime": 33.0,
      "EchoTrainLength": 96,
      "FlipAngle": 64.0,
      "HighBit": 11,
      "ImageOrientationPatient": [0.99979478118637, -0.01984773785, -0.004057439431, 0.01989532401804, 0.99972951037989, 0.01204500551315],
      "ImagePositionPatient": [-982.62043655837, -952.13292706662, -90.701655662992],
      "ImageType": [
        "ORIGINAL",
        "PRIMARY",
        "FMRI",
        "NONE",
        "ND",
        "NORM",
        "MOSAIC"
],
      "ImagedNucleus": "1H",
      "ImagingFrequency": 123.25237,
      "InPlanePhaseEncodingDirection": "COL",
      "MRAcquisitionType": "2D",
      "MagneticFieldStrength": 3.0,
      "Manufacturer": "SIEMENS",
      "ManufacturerModelName": "Prisma",
      "Modality": "MR",
      "NumberOfAverages": 1.0,
      "NumberOfPhaseEncodingSteps": 96,
      "PercentPhaseFieldOfView": 100.0,
      "PercentSampling": 100.0,
      "PerformedProcedureStepStartTime": "094845.448000",
      "PhotometricInterpretation": "MONOCHROME2",
      "PixelBandwidth": 2265.0,
      "PixelRepresentation": 0,
      "PixelSpacing": [2.5, 2.5],
      "PositionReferenceIndicator": "",
      "ProtocolName": "func_run-08_task-str1back",
      "RepetitionTime": 1250.0,
      "Rows": 768,
      "SAR": 0.05917426781538,
      "SamplesPerPixel": 1,
      "ScanOptions": "FS",
      "ScanningSequence": "EP",
      "SequenceName": "*epfid2d1_96",
      "SequenceVariant": "SK",
      "SeriesDescription": "func_run-08_task-str1back",
      "SeriesNumber": 57,
      "SeriesTime": "104845.685000",
      "SliceLocation": -82.902309543486,
      "SliceThickness": 2.5,
      "SmallestImagePixelValue": 0,
      "SoftwareVersions": "syngo MR E11",
      "SpacingBetweenSlices": 2.5000000379284,
      "SpecificCharacterSet": "ISO_IR 100",
      "StudyID": "2",
      "StudyTime": "094845.373000",
      "TransmitCoilName": "Body",
      "VariableFlipAngleFlag": "N",
      "WindowCenterWidthExplanation": "Algo1",
      "dBdt": 0.0},
    "slices": {}
  },
  "time": {
    "samples": {
      "AcquisitionNumber": [1, 2, 3, 4, 5, 6, 7, 8, 9, 10, 11, 12, 13, 14, 15, 16, 17, 18, 19, 20, 21, 22, 23, 24, 25, 26, 27, 28, 29, 30, 31, 32, 33, 34, 35, 36, 37, 38, 39, 40, 41, 42, 43, 44, 45, 46, 47, 48, 49, 50, 51, 52, 53, 54, 55, 56, 57, 58, 59, 60, 61, 62, 63, 64, 65, 66, 67, 68, 69, 70, 71, 72, 73, 74, 75, 76, 77, 78, 79, 80, 81, 82, 83, 84, 85, 86, 87, 88, 89, 90, 91, 92, 93, 94, 95, 96, 97, 98, 99, 100, 101, 102, 103, 104, 105, 106, 107, 108, 109, 110, 111, 112, 113, 114, 115, 116, 117, 118, 119, 120, 121, 122, 123, 124, 125, 126, 127, 128, 129, 130, 131, 132, 133, 134, 135, 136, 137, 138, 139, 140, 141, 142, 143, 144, 145, 146, 147, 148, 149, 150, 151, 152, 153, 154, 155, 156, 157, 158, 159, 160, 161, 162, 163, 164, 165, 166, 167, 168, 169, 170, 171, 172, 173, 174, 175, 176, 177, 178, 179, 180, 181, 182, 183, 184, 185, 186, 187, 188, 189, 190, 191, 192, 193, 194, 195, 196, 197, 198, 199, 200, 201, 202, 203, 204, 205, 206, 207, 208, 209, 210, 211, 212, 213, 214, 215, 216, 217, 218, 219, 220, 221, 222, 223, 224, 225, 226, 227, 228, 229, 230, 231, 232, 233, 234, 235, 236, 237, 238, 239, 240, 241, 242, 243, 244, 245, 246, 247, 248, 249, 250, 251, 252, 253, 254, 255, 256, 257, 258, 259, 260, 261, 262, 263, 264, 265, 266, 267, 268, 269, 270, 271, 272, 273, 274, 275, 276, 277, 278, 279, 280],
      "AcquisitionTime": ["104843.697500", "104844.947500", "104846.197500", "104847.447500", "104848.697500", "104849.947500", "104851.197500", "104852.447500", "104853.697500", "104854.947500", "104856.197500", "104857.447500", "104858.697500", "104859.947500", "104901.197500", "104902.447500", "104903.697500", "104904.947500", "104906.197500", "104907.447500", "104908.697500", "104909.947500", "104911.197500", "104912.447500", "104913.697500", "104914.947500", "104916.197500", "104917.447500", "104918.697500", "104919.947500", "104921.197500", "104922.447500", "104923.697500", "104924.947500", "104926.197500", "104927.447500", "104928.697500", "104929.947500", "104931.197500", "104932.447500", "104933.697500", "104934.947500", "104936.197500", "104937.447500", "104938.697500", "104939.947500", "104941.197500", "104942.447500", "104943.697500", "104944.947500", "104946.197500", "104947.447500", "104948.697500", "104949.947500", "104951.197500", "104952.447500", "104953.697500", "104954.947500", "104956.197500", "104957.447500", "104958.697500", "104959.947500", "105001.197500", "105002.447500", "105003.697500", "105004.947500", "105006.197500", "105007.447500", "105008.697500", "105009.947500", "105011.197500", "105012.447500", "105013.697500", "105014.947500", "105016.197500", "105017.447500", "105018.697500", "105019.947500", "105021.197500", "105022.447500", "105023.697500", "105024.947500", "105026.197500", "105027.447500", "105028.697500", "105029.947500", "105031.197500", "105032.447500", "105033.697500", "105034.947500", "105036.197500", "105037.447500", "105038.697500", "105039.947500", "105041.197500", "105042.447500", "105043.697500", "105044.947500", "105046.197500", "105047.447500", "105048.697500", "105049.947500", "105051.197500", "105052.447500", "105053.697500", "105054.947500", "105056.197500", "105057.447500", "105058.697500", "105059.947500", "105101.197500", "105102.447500", "105103.697500", "105104.947500", "105106.197500", "105107.447500", "105108.697500", "105109.947500", "105111.197500", "105112.447500", "105113.697500", "105114.947500", "105116.197500", "105117.447500", "105118.697500", "105119.947500", "105121.197500", "105122.447500", "105123.697500", "105124.947500", "105126.197500", "105127.447500", "105128.697500", "105129.947500", "105131.197500", "105132.447500", "105133.697500", "105134.947500", "105136.197500", "105137.447500", "105138.697500", "105139.947500", "105141.197500", "105142.447500", "105143.697500", "105144.947500", "105146.197500", "105147.447500", "105148.697500", "105149.947500", "105151.197500", "105152.447500", "105153.697500", "105154.947500", "105156.197500", "105157.447500", "105158.697500", "105159.947500", "105201.197500", "105202.447500", "105203.697500", "105204.947500", "105206.197500", "105207.447500", "105208.697500", "105209.947500", "105211.197500", "105212.447500", "105213.697500", "105214.947500", "105216.197500", "105217.447500", "105218.697500", "105219.947500", "105221.197500", "105222.447500", "105223.697500", "105224.947500", "105226.197500", "105227.447500", "105228.697500", "105229.947500", "105231.197500", "105232.447500", "105233.697500", "105234.947500", "105236.197500", "105237.447500", "105238.697500", "105239.947500", "105241.197500", "105242.447500", "105243.697500", "105244.947500", "105246.197500", "105247.447500", "105248.697500", "105249.947500", "105251.197500", "105252.447500", "105253.697500", "105254.947500", "105256.197500", "105257.447500", "105258.697500", "105259.947500", "105301.197500", "105302.447500", "105303.697500", "105304.947500", "105306.197500", "105307.447500", "105308.697500", "105309.947500", "105311.197500", "105312.447500", "105313.697500", "105314.947500", "105316.197500", "105317.447500", "105318.697500", "105319.947500", "105321.197500", "105322.447500", "105323.697500", "105324.947500", "105326.197500", "105327.447500", "105328.697500", "105329.947500", "105331.197500", "105332.447500", "105333.697500", "105334.947500", "105336.197500", "105337.447500", "105338.697500", "105339.947500", "105341.197500", "105342.447500", "105343.697500", "105344.947500", "105346.197500", "105347.447500", "105348.697500", "105349.947500", "105351.197500", "105352.447500", "105353.697500", "105354.947500", "105356.197500", "105357.447500", "105358.697500", "105359.947500", "105401.197500", "105402.447500", "105403.697500", "105404.947500", "105406.197500", "105407.447500", "105408.697500", "105409.947500", "105411.197500", "105412.447500", "105413.697500", "105414.947500", "105416.197500", "105417.447500", "105418.697500", "105419.947500", "105421.197500", "105422.447500", "105423.697500", "105424.947500", "105426.197500", "105427.447500", "105428.697500", "105429.947500", "105431.197500", "105432.447500"],
      "ContentTime": ["104845.689000", "104846.718000", "104847.983000", "104849.234000", "104850.470000", "104851.706000", "104852.973000", "104854.240000", "104855.492000", "104856.720000", "104858.005000", "104859.230000", "104900.494000", "104901.728000", "104902.994000", "104904.303000", "104905.486000", "104906.723000", "104907.976000", "104909.280000", "104910.502000", "104911.733000", "104912.949000", "104914.226000", "104915.478000", "104916.751000", "104917.993000", "104919.209000", "104920.547000", "104921.744000", "104922.972000", "104924.191000", "104925.458000", "104926.731000", "104927.963000", "104929.197000", "104930.484000", "104931.805000", "104932.990000", "104934.284000", "104935.484000", "104936.713000", "104937.987000", "104939.204000", "104940.461000", "104941.725000", "104942.964000", "104944.219000", "104945.456000", "104946.726000", "104947.987000", "104949.236000", "104950.459000", "104951.726000", "104952.960000", "104954.261000", "104955.493000", "104956.751000", "104957.988000", "104959.193000", "105000.521000", "105001.709000", "105003.004000", "105004.228000", "105005.466000", "105006.746000", "105007.961000", "105009.234000", "105010.463000", "105011.740000", "105012.965000", "105014.227000", "105015.502000", "105016.754000", "105017.967000", "105019.258000", "105020.518000", "105021.711000", "105022.992000", "105024.257000", "105025.463000", "105026.715000", "105027.977000", "105029.193000", "105030.499000", "105031.719000", "105032.974000", "105034.248000", "105035.505000", "105036.757000", "105037.990000", "105039.279000", "105040.475000", "105041.683000", "105042.954000", "105044.246000", "105045.510000", "105046.761000", "105047.982000", "105049.223000", "105050.504000", "105051.722000", "105053.003000", "105054.211000", "105055.468000", "105056.779000", "105057.984000", "105059.229000", "105100.480000", "105101.735000", "105103.011000", "105104.255000", "105105.566000", "105106.724000", "105107.970000", "105109.231000", "105110.474000", "105111.727000", "105113.028000", "105114.243000", "105115.517000", "105116.737000", "105117.990000", "105119.242000", "105120.479000", "105121.754000", "105123.022000", "105124.252000", "105125.446000", "105126.775000", "105127.970000", "105129.263000", "105130.508000", "105131.704000", "105132.991000", "105134.232000", "105135.479000", "105136.727000", "105137.976000", "105139.218000", "105140.505000", "105141.706000", "105143.005000", "105144.261000", "105145.513000", "105146.737000", "105147.992000", "105149.237000", "105150.526000", "105151.758000", "105152.981000", "105154.263000", "105155.496000", "105156.748000", "105157.971000", "105159.241000", "105200.497000", "105201.736000", "105203.014000", "105204.241000", "105205.480000", "105206.768000", "105207.965000", "105209.257000", "105210.487000", "105211.754000", "105213.038000", "105214.257000", "105215.485000", "105216.729000", "105217.982000", "105219.243000", "105220.488000", "105221.685000", "105223.036000", "105224.259000", "105225.533000", "105226.767000", "105227.975000", "105229.235000", "105230.500000", "105231.727000", "105233.013000", "105234.245000", "105235.500000", "105236.740000", "105237.961000", "105239.237000", "105240.491000", "105241.714000", "105243.026000", "105244.292000", "105245.474000", "105246.727000", "105247.962000", "105249.236000", "105250.456000", "105251.724000", "105252.959000", "105254.281000", "105255.500000", "105256.724000", "105257.995000", "105259.210000", "105300.484000", "105301.723000", "105302.978000", "105304.260000", "105305.465000", "105306.740000", "105307.979000", "105309.189000", "105310.475000", "105311.768000", "105312.981000", "105314.265000", "105315.491000", "105316.724000", "105317.987000", "105319.230000", "105320.446000", "105321.704000", "105322.964000", "105324.209000", "105325.505000", "105326.770000", "105327.976000", "105329.218000", "105330.517000", "105331.754000", "105332.972000", "105334.204000", "105335.479000", "105336.720000", "105337.969000", "105339.242000", "105340.474000", "105341.744000", "105343.000000", "105344.217000", "105345.502000", "105346.750000", "105348.003000", "105349.254000", "105350.478000", "105351.736000", "105352.980000", "105354.210000", "105355.513000", "105356.749000", "105357.995000", "105359.257000", "105400.495000", "105401.768000", "105402.978000", "105404.245000", "105405.477000", "105406.702000", "105408.008000", "105409.229000", "105410.481000", "105411.715000", "105412.974000", "105414.262000", "105415.494000", "105416.765000", "105417.969000", "105419.262000", "105420.528000", "105421.737000", "105422.996000", "105424.243000", "105425.499000", "105426.777000", "105427.966000", "105429.223000", "105430.499000", "105431.717000", "105433.003000", "105434.277000"],
      "InstanceCreationTime": ["104845.689000", "104846.718000", "104847.983000", "104849.234000", "104850.470000", "104851.706000", "104852.973000", "104854.240000", "104855.492000", "104856.720000", "104858.005000", "104859.230000", "104900.494000", "104901.728000", "104902.994000", "104904.303000", "104905.486000", "104906.723000", "104907.976000", "104909.280000", "104910.502000", "104911.733000", "104912.949000", "104914.226000", "104915.478000", "104916.751000", "104917.993000", "104919.209000", "104920.547000", "104921.744000", "104922.972000", "104924.191000", "104925.458000", "104926.731000", "104927.963000", "104929.197000", "104930.484000", "104931.805000", "104932.990000", "104934.284000", "104935.484000", "104936.713000", "104937.987000", "104939.204000", "104940.461000", "104941.725000", "104942.964000", "104944.219000", "104945.456000", "104946.726000", "104947.987000", "104949.236000", "104950.459000", "104951.726000", "104952.960000", "104954.261000", "104955.493000", "104956.751000", "104957.988000", "104959.193000", "105000.521000", "105001.709000", "105003.004000", "105004.228000", "105005.466000", "105006.746000", "105007.961000", "105009.234000", "105010.463000", "105011.740000", "105012.965000", "105014.227000", "105015.502000", "105016.754000", "105017.967000", "105019.258000", "105020.518000", "105021.711000", "105022.992000", "105024.257000", "105025.463000", "105026.715000", "105027.977000", "105029.193000", "105030.499000", "105031.719000", "105032.974000", "105034.248000", "105035.505000", "105036.757000", "105037.990000", "105039.279000", "105040.475000", "105041.683000", "105042.954000", "105044.246000", "105045.510000", "105046.761000", "105047.982000", "105049.223000", "105050.504000", "105051.722000", "105053.003000", "105054.211000", "105055.468000", "105056.779000", "105057.984000", "105059.229000", "105100.480000", "105101.735000", "105103.011000", "105104.255000", "105105.566000", "105106.724000", "105107.970000", "105109.231000", "105110.474000", "105111.727000", "105113.028000", "105114.243000", "105115.517000", "105116.737000", "105117.990000", "105119.242000", "105120.479000", "105121.754000", "105123.022000", "105124.252000", "105125.446000", "105126.775000", "105127.970000", "105129.263000", "105130.508000", "105131.704000", "105132.991000", "105134.232000", "105135.479000", "105136.727000", "105137.976000", "105139.218000", "105140.505000", "105141.706000", "105143.005000", "105144.261000", "105145.513000", "105146.737000", "105147.992000", "105149.237000", "105150.526000", "105151.758000", "105152.981000", "105154.263000", "105155.496000", "105156.748000", "105157.971000", "105159.241000", "105200.497000", "105201.736000", "105203.014000", "105204.241000", "105205.480000", "105206.768000", "105207.965000", "105209.257000", "105210.487000", "105211.754000", "105213.038000", "105214.257000", "105215.485000", "105216.729000", "105217.982000", "105219.243000", "105220.488000", "105221.685000", "105223.036000", "105224.259000", "105225.533000", "105226.767000", "105227.975000", "105229.235000", "105230.500000", "105231.727000", "105233.013000", "105234.245000", "105235.500000", "105236.740000", "105237.961000", "105239.237000", "105240.491000", "105241.714000", "105243.026000", "105244.292000", "105245.474000", "105246.727000", "105247.962000", "105249.236000", "105250.456000", "105251.724000", "105252.959000", "105254.281000", "105255.500000", "105256.724000", "105257.995000", "105259.210000", "105300.484000", "105301.723000", "105302.978000", "105304.260000", "105305.465000", "105306.740000", "105307.979000", "105309.189000", "105310.475000", "105311.768000", "105312.981000", "105314.265000", "105315.491000", "105316.724000", "105317.987000", "105319.230000", "105320.446000", "105321.704000", "105322.964000", "105324.209000", "105325.505000", "105326.770000", "105327.976000", "105329.218000", "105330.517000", "105331.754000", "105332.972000", "105334.204000", "105335.479000", "105336.720000", "105337.969000", "105339.242000", "105340.474000", "105341.744000", "105343.000000", "105344.217000", "105345.502000", "105346.750000", "105348.003000", "105349.254000", "105350.478000", "105351.736000", "105352.980000", "105354.210000", "105355.513000", "105356.749000", "105357.995000", "105359.257000", "105400.495000", "105401.768000", "105402.978000", "105404.245000", "105405.477000", "105406.702000", "105408.008000", "105409.229000", "105410.481000", "105411.715000", "105412.974000", "105414.262000", "105415.494000", "105416.765000", "105417.969000", "105419.262000", "105420.528000", "105421.737000", "105422.996000", "105424.243000", "105425.499000", "105426.777000", "105427.966000", "105429.223000", "105430.499000", "105431.717000", "105433.003000", "105434.277000"],
      "InstanceNumber": [1, 2, 3, 4, 5, 6, 7, 8, 9, 10, 11, 12, 13, 14, 15, 16, 17, 18, 19, 20, 21, 22, 23, 24, 25, 26, 27, 28, 29, 30, 31, 32, 33, 34, 35, 36, 37, 38, 39, 40, 41, 42, 43, 44, 45, 46, 47, 48, 49, 50, 51, 52, 53, 54, 55, 56, 57, 58, 59, 60, 61, 62, 63, 64, 65, 66, 67, 68, 69, 70, 71, 72, 73, 74, 75, 76, 77, 78, 79, 80, 81, 82, 83, 84, 85, 86, 87, 88, 89, 90, 91, 92, 93, 94, 95, 96, 97, 98, 99, 100, 101, 102, 103, 104, 105, 106, 107, 108, 109, 110, 111, 112, 113, 114, 115, 116, 117, 118, 119, 120, 121, 122, 123, 124, 125, 126, 127, 128, 129, 130, 131, 132, 133, 134, 135, 136, 137, 138, 139, 140, 141, 142, 143, 144, 145, 146, 147, 148, 149, 150, 151, 152, 153, 154, 155, 156, 157, 158, 159, 160, 161, 162, 163, 164, 165, 166, 167, 168, 169, 170, 171, 172, 173, 174, 175, 176, 177, 178, 179, 180, 181, 182, 183, 184, 185, 186, 187, 188, 189, 190, 191, 192, 193, 194, 195, 196, 197, 198, 199, 200, 201, 202, 203, 204, 205, 206, 207, 208, 209, 210, 211, 212, 213, 214, 215, 216, 217, 218, 219, 220, 221, 222, 223, 224, 225, 226, 227, 228, 229, 230, 231, 232, 233, 234, 235, 236, 237, 238, 239, 240, 241, 242, 243, 244, 245, 246, 247, 248, 249, 250, 251, 252, 253, 254, 255, 256, 257, 258, 259, 260, 261, 262, 263, 264, 265, 266, 267, 268, 269, 270, 271, 272, 273, 274, 275, 276, 277, 278, 279, 280],
      "LargestImagePixelValue": [1012, 981, 867, 1024, 781, 869, 925, 1117, 1061, 811, 852, 978, 1093, 961, 865, 839, 977, 934, 822, 959, 1075, 1041, 756, 777, 1037, 1000, 843, 761, 1025, 999, 1182, 937, 753, 976, 1025, 911, 832, 852, 1066, 791, 785, 873, 1122, 994, 904, 744, 1030, 850, 791, 777, 1068, 898, 778, 932, 1013, 872, 811, 925, 1019, 1219, 846, 756, 922, 982, 801, 792, 1069, 971, 872, 773, 1033, 1012, 792, 857, 1077, 888, 852, 873, 1035, 786, 808, 984, 872, 801, 1064, 794, 1279, 745, 1019, 917, 771, 850, 1054, 782, 751, 1046, 912, 766, 990, 748, 985, 827, 872, 893, 847, 1038, 725, 854, 1287, 932, 817, 972, 770, 886, 905, 1178, 830, 773, 1001, 1032, 781, 743, 845, 975, 859, 821, 756, 927, 1005, 824, 749, 1058, 806, 889, 700, 1032, 1282, 955, 813, 996, 1214, 831, 813, 836, 1022, 854, 1051, 1281, 910, 821, 920, 1062, 1165, 891, 783, 1036, 1142, 897, 807, 1041, 906, 741, 1087, 1293, 1283, 981, 777, 848, 773, 831, 1082, 1001, 848, 980, 1239, 1118, 815, 790, 954, 983, 908, 789, 726, 1021, 768, 925, 1112, 874, 845, 1179, 1098, 808, 836, 1074, 859, 830, 1006, 977, 861, 780, 913, 813, 965, 871, 1045, 739, 988, 980, 808, 772, 855, 1067, 724, 937, 944, 865, 984, 1298, 881, 827, 1184, 910, 820, 1025, 955, 794, 1114, 836, 850, 908, 937, 852, 778, 975, 999, 774, 972, 1030, 808, 753, 1088, 1062, 790, 974, 741, 961, 886, 1051, 775, 743, 1139, 838, 801, 773, 999, 910, 856, 1345, 1006, 833, 1094, 1125, 825, 1002, 965, 887, 750, 1073, 1265, 914, 799, 752, 920, 968, 985, 984, 753, 995, 839, 966],
      "WindowCenter": [359.0, 357.0, 356.0, 357.0, 355.0, 356.0, 356.0, 357.0, 357.0, 355.0, 355.0, 356.0, 357.0, 356.0, 355.0, 355.0, 356.0, 356.0, 356.0, 357.0, 358.0, 357.0, 355.0, 356.0, 358.0, 358.0, 356.0, 355.0, 358.0, 357.0, 359.0, 357.0, 355.0, 357.0, 357.0, 357.0, 356.0, 356.0, 358.0, 356.0, 356.0, 356.0, 358.0, 357.0, 356.0, 355.0, 358.0, 357.0, 356.0, 356.0, 358.0, 357.0, 356.0, 357.0, 358.0, 356.0, 356.0, 357.0, 357.0, 359.0, 356.0, 355.0, 357.0, 357.0, 356.0, 356.0, 359.0, 357.0, 356.0, 356.0, 358.0, 357.0, 356.0, 356.0, 358.0, 356.0, 356.0, 356.0, 358.0, 356.0, 356.0, 358.0, 357.0, 356.0, 359.0, 356.0, 360.0, 355.0, 358.0, 357.0, 356.0, 356.0, 359.0, 356.0, 356.0, 358.0, 357.0, 356.0, 358.0, 356.0, 358.0, 356.0, 357.0, 357.0, 357.0, 359.0, 355.0, 356.0, 359.0, 356.0, 355.0, 357.0, 356.0, 356.0, 356.0, 359.0, 356.0, 355.0, 357.0, 357.0, 355.0, 354.0, 356.0, 357.0, 356.0, 356.0, 355.0, 357.0, 358.0, 357.0, 356.0, 359.0, 357.0, 358.0, 356.0, 359.0, 361.0, 358.0, 357.0, 357.0, 358.0, 356.0, 356.0, 356.0, 358.0, 357.0, 359.0, 360.0, 357.0, 356.0, 356.0, 357.0, 358.0, 356.0, 355.0, 358.0, 359.0, 356.0, 356.0, 358.0, 356.0, 355.0, 358.0, 359.0, 358.0, 357.0, 355.0, 356.0, 356.0, 357.0, 359.0, 357.0, 356.0, 357.0, 359.0, 358.0, 356.0, 356.0, 357.0, 357.0, 357.0, 356.0, 355.0, 359.0, 357.0, 358.0, 359.0, 357.0, 356.0, 359.0, 358.0, 355.0, 356.0, 358.0, 356.0, 356.0, 357.0, 357.0, 356.0, 356.0, 358.0, 357.0, 358.0, 356.0, 358.0, 355.0, 357.0, 358.0, 356.0, 356.0, 356.0, 357.0, 355.0, 357.0, 358.0, 357.0, 358.0, 359.0, 356.0, 356.0, 358.0, 356.0, 355.0, 357.0, 357.0, 355.0, 358.0, 356.0, 355.0, 355.0, 356.0, 356.0, 356.0, 357.0, 358.0, 356.0, 358.0, 359.0, 356.0, 356.0, 359.0, 359.0, 356.0, 358.0, 356.0, 358.0, 356.0, 357.0, 356.0, 356.0, 359.0, 357.0, 356.0, 357.0, 359.0, 358.0, 357.0, 360.0, 357.0, 356.0, 358.0, 358.0, 355.0, 357.0, 357.0, 355.0, 354.0, 357.0, 358.0, 355.0, 354.0, 354.0, 355.0, 356.0, 357.0, 356.0, 355.0, 357.0, 356.0, 358.0],
      "WindowWidth": [767.0, 764.0, 762.0, 764.0, 761.0, 763.0, 762.0, 763.0, 763.0, 760.0, 761.0, 762.0, 763.0, 761.0, 760.0, 760.0, 761.0, 762.0, 762.0, 764.0, 765.0, 764.0, 761.0, 762.0, 765.0, 765.0, 763.0, 761.0, 764.0, 764.0, 766.0, 763.0, 761.0, 763.0, 764.0, 763.0, 763.0, 762.0, 765.0, 762.0, 762.0, 763.0, 765.0, 764.0, 762.0, 761.0, 765.0, 764.0, 762.0, 762.0, 765.0, 764.0, 762.0, 764.0, 765.0, 763.0, 763.0, 763.0, 764.0, 766.0, 761.0, 761.0, 763.0, 764.0, 762.0, 762.0, 767.0, 764.0, 763.0, 762.0, 765.0, 764.0, 762.0, 763.0, 765.0, 763.0, 763.0, 762.0, 765.0, 762.0, 763.0, 766.0, 764.0, 763.0, 766.0, 763.0, 767.0, 761.0, 765.0, 764.0, 762.0, 763.0, 766.0, 762.0, 763.0, 765.0, 764.0, 762.0, 766.0, 762.0, 766.0, 763.0, 764.0, 764.0, 764.0, 766.0, 762.0, 763.0, 767.0, 762.0, 761.0, 764.0, 762.0, 763.0, 762.0, 766.0, 762.0, 761.0, 763.0, 764.0, 761.0, 760.0, 761.0, 763.0, 763.0, 762.0, 761.0, 764.0, 765.0, 763.0, 763.0, 767.0, 765.0, 765.0, 762.0, 767.0, 769.0, 764.0, 763.0, 764.0, 766.0, 763.0, 762.0, 763.0, 765.0, 764.0, 766.0, 768.0, 763.0, 762.0, 762.0, 764.0, 765.0, 762.0, 761.0, 765.0, 767.0, 762.0, 762.0, 765.0, 763.0, 761.0, 765.0, 767.0, 765.0, 763.0, 760.0, 763.0, 762.0, 764.0, 766.0, 764.0, 762.0, 763.0, 766.0, 764.0, 762.0, 762.0, 763.0, 764.0, 763.0, 762.0, 761.0, 767.0, 764.0, 765.0, 767.0, 763.0, 763.0, 766.0, 765.0, 760.0, 761.0, 765.0, 762.0, 762.0, 763.0, 763.0, 762.0, 762.0, 765.0, 763.0, 766.0, 763.0, 765.0, 761.0, 764.0, 765.0, 762.0, 762.0, 762.0, 764.0, 761.0, 765.0, 766.0, 764.0, 766.0, 767.0, 762.0, 762.0, 766.0, 762.0, 761.0, 764.0, 763.0, 761.0, 765.0, 761.0, 761.0, 761.0, 761.0, 761.0, 762.0, 764.0, 765.0, 762.0, 765.0, 766.0, 762.0, 762.0, 766.0, 767.0, 763.0, 766.0, 763.0, 766.0, 762.0, 764.0, 762.0, 763.0, 768.0, 764.0, 763.0, 764.0, 767.0, 765.0, 764.0, 768.0, 763.0, 761.0, 765.0, 765.0, 761.0, 763.0, 763.0, 761.0, 759.0, 764.0, 765.0, 761.0, 759.0, 759.0, 760.0, 762.0, 762.0, 762.0, 760.0, 764.0, 763.0, 766.0]
    },
    "slices": {}
  }
}