{
  "AcquisitionMatrixPE": 96,
  "AcquisitionNumber": 1,
  "AcquisitionTime": "10:08:18.207500",
  "BandwidthPerPixelPhaseEncode": 18.939,
  "BaseResolution": 96,
  "BodyPartExamined": "BRAIN",
  "ConsistencyInfo": "N4_VE11C_LATEST_20160120",
  "ConversionSoftware": "dcm2niix",
  "ConversionSoftwareVersion": "v1.0.20170923 (OpenJPEG build) GCC6.3.0",
  "DerivedVendorReportedEchoSpacing": 0.000550011,
  "DeviceSerialNumber": "66112",
  "DwellTime": 2.3e-06,
  "EchoTime": 0.033,
  "EchoTrainLength": 96,
  "EffectiveEchoSpacing": 0.000550011,
  "FlipAngle": 64,
  "ImageType": [
    "ORIGINAL",
    "PRIMARY",
    "FMRI",
    "NONE",
    "ND",
    "NORM",
    "MOSAIC"
],
  "InstitutionAddress": "Maynard_3_Hanover_NH_US_03755",
  "InstitutionName": "Dartmouth_College_-_PBS",
  "MagneticFieldStrength": 3,
  "Manufacturer": "Siemens",
  "ManufacturersModelName": "Prisma",
  "Modality": "MR",
  "MultibandAccelerationFactor": 4,
  "PartialFourier": 1,
  "PercentPhaseFOV": 100,
  "PhaseEncodingDirection": "j-",
  "PhaseEncodingSteps": 96,
  "PhaseResolution": 1,
  "ProcedureStepDescription": "Gobbini_Matteo_1017_famface-angles",
  "ProtocolName": "func_run-02_task-fam1back",
  "PulseSequenceDetails": "%SiemensSeq%_ep2d_bold",
  "ReceiveCoilActiveElements": "HEA;HEP",
  "ReceiveCoilName": "Head_32",
  "ReconMatrixPE": 96,
  "RepetitionTime": 1.25,
  "ScanOptions": "FS",
  "ScanningSequence": "EP",
  "SequenceName": "_epfid2d1_96",
  "SequenceVariant": "SK",
  "SeriesDescription": "func_run-02_task-fam1back",
  "SliceTiming": [0.88, 0, 0.615, 0.0875, 0.7025, 0.1775, 0.7925, 0.3525, 0.9675, 0.44, 1.055, 0.5275, 1.1425, 0.265, 0.88, 0, 0.615, 0.0875, 0.7025, 0.1775, 0.7925, 0.3525, 0.9675, 0.44, 1.055, 0.5275, 1.1425, 0.265, 0.88, 0, 0.615, 0.0875, 0.7025, 0.1775, 0.7925, 0.3525, 0.9675, 0.44, 1.055, 0.5275, 1.1425, 0.265, 0.88, 0, 0.615, 0.0875, 0.7025, 0.1775, 0.7925, 0.3525, 0.9675, 0.44, 1.055, 0.5275, 1.1425, 0.265],
  "SoftwareVersions": "syngo_MR_E11",
  "StationName": "AWP66112",
  "TaskName": "fam1back",
  "TotalReadoutTime": 0.0522511,
  "dcmmeta_affine": [
    [-2.4994869232177734, 0.049738310277462006, -0.009543189778923988, 121.35560607910156],
    [0.049619343131780624, 2.499323844909668, 0.03030814416706562, -108.40351867675781],
    [-0.010143598541617393, -0.03011251427233219, 2.499798059463501, -81.13140869140625],
    [0.0, 0.0, 0.0, 1.0]
],
  "dcmmeta_reorient_transform": [
    [0.0, -1.0, 0.0, 95.0],
    [1.0, 0.0, 0.0, 0.0],
    [0.0, 0.0, 1.0, 0.0],
    [0.0, 0.0, 0.0, 1.0]
],
  "dcmmeta_shape": [96, 96, 56, 280],
  "dcmmeta_slice_dim": 2,
  "dcmmeta_version": 0.6,
  "global": {
    "const": {
      "AccessionNumber": "A000631",
      "AcquisitionMatrix": [96, 0, 0, 96],
      "AngioFlag": "N",
      "BitsAllocated": 16,
      "BitsStored": 12,
      "BodyPartExamined": "BRAIN",
      "Columns": 768,
      "EchoNumbers": 1,
      "EchoTime": 33.0,
      "EchoTrainLength": 96,
      "FlipAngle": 64.0,
      "HighBit": 11,
      "ImageOrientationPatient": [0.99979478118637, -0.01984773785, -0.004057439431, 0.01989532401804, 0.99972951037989, 0.01204500551315],
      "ImagePositionPatient": [-982.62043655837, -952.13292706662, -90.701655662992],
      "ImageType": [
        "ORIGINAL",
        "PRIMARY",
        "FMRI",
        "NONE",
        "ND",
        "NORM",
        "MOSAIC"
],
      "ImagedNucleus": "1H",
      "ImagingFrequency": 123.252361,
      "InPlanePhaseEncodingDirection": "COL",
      "MRAcquisitionType": "2D",
      "MagneticFieldStrength": 3.0,
      "Manufacturer": "SIEMENS",
      "ManufacturerModelName": "Prisma",
      "Modality": "MR",
      "NumberOfAverages": 1.0,
      "NumberOfPhaseEncodingSteps": 96,
      "PercentPhaseFieldOfView": 100.0,
      "PercentSampling": 100.0,
      "PerformedProcedureStepStartTime": "094845.448000",
      "PhotometricInterpretation": "MONOCHROME2",
      "PixelBandwidth": 2265.0,
      "PixelRepresentation": 0,
      "PixelSpacing": [2.5, 2.5],
      "PositionReferenceIndicator": "",
      "ProtocolName": "func_run-02_task-fam1back",
      "RepetitionTime": 1250.0,
      "Rows": 768,
      "SAR": 0.05917426781538,
      "SamplesPerPixel": 1,
      "ScanOptions": "FS",
      "ScanningSequence": "EP",
      "SequenceName": "*epfid2d1_96",
      "SequenceVariant": "SK",
      "SeriesDescription": "func_run-02_task-fam1back",
      "SeriesNumber": 15,
      "SeriesTime": "100819.570000",
      "SliceLocation": -82.902309543486,
      "SliceThickness": 2.5,
      "SmallestImagePixelValue": 0,
      "SoftwareVersions": "syngo MR E11",
      "SpacingBetweenSlices": 2.5000000379284,
      "SpecificCharacterSet": "ISO_IR 100",
      "StudyID": "2",
      "StudyTime": "094845.373000",
      "TransmitCoilName": "Body",
      "VariableFlipAngleFlag": "N",
      "WindowCenterWidthExplanation": "Algo1",
      "dBdt": 0.0},
    "slices": {}
  },
  "time": {
    "samples": {
      "AcquisitionNumber": [1, 2, 3, 4, 5, 6, 7, 8, 9, 10, 11, 12, 13, 14, 15, 16, 17, 18, 19, 20, 21, 22, 23, 24, 25, 26, 27, 28, 29, 30, 31, 32, 33, 34, 35, 36, 37, 38, 39, 40, 41, 42, 43, 44, 45, 46, 47, 48, 49, 50, 51, 52, 53, 54, 55, 56, 57, 58, 59, 60, 61, 62, 63, 64, 65, 66, 67, 68, 69, 70, 71, 72, 73, 74, 75, 76, 77, 78, 79, 80, 81, 82, 83, 84, 85, 86, 87, 88, 89, 90, 91, 92, 93, 94, 95, 96, 97, 98, 99, 100, 101, 102, 103, 104, 105, 106, 107, 108, 109, 110, 111, 112, 113, 114, 115, 116, 117, 118, 119, 120, 121, 122, 123, 124, 125, 126, 127, 128, 129, 130, 131, 132, 133, 134, 135, 136, 137, 138, 139, 140, 141, 142, 143, 144, 145, 146, 147, 148, 149, 150, 151, 152, 153, 154, 155, 156, 157, 158, 159, 160, 161, 162, 163, 164, 165, 166, 167, 168, 169, 170, 171, 172, 173, 174, 175, 176, 177, 178, 179, 180, 181, 182, 183, 184, 185, 186, 187, 188, 189, 190, 191, 192, 193, 194, 195, 196, 197, 198, 199, 200, 201, 202, 203, 204, 205, 206, 207, 208, 209, 210, 211, 212, 213, 214, 215, 216, 217, 218, 219, 220, 221, 222, 223, 224, 225, 226, 227, 228, 229, 230, 231, 232, 233, 234, 235, 236, 237, 238, 239, 240, 241, 242, 243, 244, 245, 246, 247, 248, 249, 250, 251, 252, 253, 254, 255, 256, 257, 258, 259, 260, 261, 262, 263, 264, 265, 266, 267, 268, 269, 270, 271, 272, 273, 274, 275, 276, 277, 278, 279, 280],
      "AcquisitionTime": ["100818.207500", "100819.457500", "100820.707500", "100821.957500", "100823.207500", "100824.457500", "100825.707500", "100826.957500", "100828.207500", "100829.457500", "100830.707500", "100831.957500", "100833.207500", "100834.457500", "100835.707500", "100836.957500", "100838.207500", "100839.457500", "100840.707500", "100841.957500", "100843.207500", "100844.457500", "100845.707500", "100846.957500", "100848.207500", "100849.457500", "100850.707500", "100851.957500", "100853.207500", "100854.457500", "100855.707500", "100856.957500", "100858.207500", "100859.457500", "100900.707500", "100901.957500", "100903.207500", "100904.457500", "100905.707500", "100906.957500", "100908.207500", "100909.457500", "100910.707500", "100911.957500", "100913.207500", "100914.457500", "100915.707500", "100916.957500", "100918.207500", "100919.457500", "100920.707500", "100921.957500", "100923.207500", "100924.457500", "100925.707500", "100926.957500", "100928.207500", "100929.457500", "100930.707500", "100931.957500", "100933.207500", "100934.457500", "100935.707500", "100936.957500", "100938.207500", "100939.457500", "100940.707500", "100941.957500", "100943.207500", "100944.457500", "100945.707500", "100946.957500", "100948.207500", "100949.457500", "100950.707500", "100951.957500", "100953.207500", "100954.457500", "100955.707500", "100956.957500", "100958.207500", "100959.457500", "101000.707500", "101001.957500", "101003.207500", "101004.457500", "101005.707500", "101006.957500", "101008.207500", "101009.457500", "101010.707500", "101011.957500", "101013.207500", "101014.457500", "101015.707500", "101016.957500", "101018.207500", "101019.457500", "101020.707500", "101021.957500", "101023.207500", "101024.457500", "101025.707500", "101026.957500", "101028.207500", "101029.457500", "101030.707500", "101031.957500", "101033.207500", "101034.457500", "101035.707500", "101036.957500", "101038.207500", "101039.457500", "101040.707500", "101041.957500", "101043.207500", "101044.457500", "101045.707500", "101046.957500", "101048.207500", "101049.457500", "101050.707500", "101051.957500", "101053.207500", "101054.457500", "101055.707500", "101056.957500", "101058.207500", "101059.457500", "101100.707500", "101101.957500", "101103.207500", "101104.457500", "101105.707500", "101106.957500", "101108.207500", "101109.457500", "101110.707500", "101111.957500", "101113.207500", "101114.457500", "101115.707500", "101116.957500", "101118.207500", "101119.457500", "101120.707500", "101121.957500", "101123.207500", "101124.457500", "101125.707500", "101126.957500", "101128.207500", "101129.457500", "101130.707500", "101131.957500", "101133.207500", "101134.457500", "101135.707500", "101136.957500", "101138.207500", "101139.457500", "101140.707500", "101141.957500", "101143.207500", "101144.457500", "101145.707500", "101146.957500", "101148.207500", "101149.457500", "101150.707500", "101151.957500", "101153.207500", "101154.457500", "101155.707500", "101156.957500", "101158.207500", "101159.457500", "101200.707500", "101201.957500", "101203.207500", "101204.457500", "101205.707500", "101206.957500", "101208.207500", "101209.457500", "101210.707500", "101211.957500", "101213.207500", "101214.457500", "101215.707500", "101216.957500", "101218.207500", "101219.457500", "101220.707500", "101221.957500", "101223.207500", "101224.457500", "101225.707500", "101226.957500", "101228.207500", "101229.457500", "101230.707500", "101231.957500", "101233.207500", "101234.457500", "101235.707500", "101236.957500", "101238.207500", "101239.457500", "101240.707500", "101241.957500", "101243.207500", "101244.457500", "101245.707500", "101246.957500", "101248.207500", "101249.457500", "101250.707500", "101251.957500", "101253.207500", "101254.457500", "101255.707500", "101256.957500", "101258.207500", "101259.457500", "101300.707500", "101301.957500", "101303.207500", "101304.457500", "101305.707500", "101306.957500", "101308.207500", "101309.457500", "101310.707500", "101311.957500", "101313.207500", "101314.457500", "101315.707500", "101316.957500", "101318.207500", "101319.457500", "101320.707500", "101321.957500", "101323.207500", "101324.457500", "101325.707500", "101326.957500", "101328.207500", "101329.457500", "101330.707500", "101331.957500", "101333.207500", "101334.457500", "101335.707500", "101336.957500", "101338.207500", "101339.457500", "101340.707500", "101341.957500", "101343.207500", "101344.457500", "101345.707500", "101346.957500", "101348.207500", "101349.457500", "101350.707500", "101351.957500", "101353.207500", "101354.457500", "101355.707500", "101356.957500", "101358.207500", "101359.457500", "101400.707500", "101401.957500", "101403.207500", "101404.457500", "101405.707500", "101406.957500"],
      "ContentTime": ["100819.573000", "100820.590000", "100821.830000", "100823.072000", "100824.337000", "100825.591000", "100826.851000", "100828.089000", "100829.332000", "100830.569000", "100831.853000", "100833.087000", "100834.324000", "100835.600000", "100836.862000", "100838.073000", "100839.342000", "100840.609000", "100841.893000", "100843.068000", "100844.341000", "100845.585000", "100846.822000", "100848.076000", "100849.353000", "100850.599000", "100851.856000", "100853.069000", "100854.311000", "100855.560000", "100856.829000", "100858.063000", "100859.308000", "100900.564000", "100901.817000", "100903.083000", "100904.376000", "100905.554000", "100906.858000", "100908.050000", "100909.382000", "100910.671000", "100911.885000", "100913.183000", "100914.355000", "100915.562000", "100916.828000", "100918.092000", "100919.325000", "100920.574000", "100921.839000", "100923.092000", "100924.368000", "100925.575000", "100926.818000", "100928.064000", "100929.343000", "100930.613000", "100931.808000", "100933.073000", "100934.319000", "100935.587000", "100936.831000", "100938.083000", "100939.358000", "100940.594000", "100941.875000", "100943.099000", "100944.333000", "100945.568000", "100946.838000", "100948.048000", "100949.318000", "100950.585000", "100951.816000", "100953.084000", "100954.307000", "100955.622000", "100956.862000", "100958.105000", "100959.336000", "101000.569000", "101001.805000", "101003.095000", "101004.338000", "101005.566000", "101006.820000", "101008.098000", "101009.413000", "101010.606000", "101011.822000", "101013.057000", "101014.342000", "101015.581000", "101016.847000", "101018.096000", "101019.335000", "101020.575000", "101021.805000", "101023.061000", "101024.340000", "101025.569000", "101026.848000", "101028.081000", "101029.326000", "101030.589000", "101031.843000", "101033.102000", "101034.322000", "101035.593000", "101036.850000", "101038.082000", "101039.337000", "101040.580000", "101041.839000", "101043.102000", "101044.346000", "101045.606000", "101046.821000", "101048.093000", "101049.340000", "101050.600000", "101051.840000", "101053.133000", "101054.379000", "101055.587000", "101056.855000", "101058.049000", "101059.343000", "101100.595000", "101101.913000", "101103.074000", "101104.336000", "101105.561000", "101106.833000", "101108.088000", "101109.407000", "101110.627000", "101111.868000", "101113.088000", "101114.323000", "101115.608000", "101116.860000", "101118.121000", "101119.316000", "101120.582000", "101121.813000", "101123.064000", "101124.311000", "101125.578000", "101126.875000", "101128.078000", "101129.319000", "101130.585000", "101131.873000", "101133.087000", "101134.318000", "101135.612000", "101136.840000", "101138.133000", "101139.341000", "101140.603000", "101141.847000", "101143.072000", "101144.310000", "101145.577000", "101146.851000", "101148.085000", "101149.338000", "101150.583000", "101151.854000", "101153.080000", "101154.344000", "101155.583000", "101156.829000", "101158.046000", "101159.390000", "101200.585000", "101201.835000", "101203.114000", "101204.371000", "101205.594000", "101206.836000", "101208.127000", "101209.357000", "101210.645000", "101211.855000", "101213.111000", "101214.343000", "101215.584000", "101216.796000", "101218.091000", "101219.309000", "101220.606000", "101221.788000", "101223.078000", "101224.380000", "101225.590000", "101226.826000", "101228.091000", "101229.330000", "101230.577000", "101231.843000", "101233.087000", "101234.316000", "101235.584000", "101236.837000", "101238.089000", "101239.380000", "101240.604000", "101241.816000", "101243.129000", "101244.386000", "101245.585000", "101246.877000", "101248.067000", "101249.342000", "101250.580000", "101251.849000", "101253.133000", "101254.362000", "101255.571000", "101256.870000", "101258.083000", "101259.326000", "101300.585000", "101301.880000", "101303.073000", "101304.354000", "101305.578000", "101306.850000", "101308.093000", "101309.333000", "101310.631000", "101311.879000", "101313.074000", "101314.336000", "101315.617000", "101316.856000", "101318.095000", "101319.309000", "101320.590000", "101321.846000", "101323.071000", "101324.317000", "101325.601000", "101326.806000", "101328.091000", "101329.352000", "101330.570000", "101331.814000", "101333.080000", "101334.305000", "101335.578000", "101336.822000", "101338.086000", "101339.331000", "101340.573000", "101341.828000", "101343.077000", "101344.322000", "101345.612000", "101346.818000", "101348.135000", "101349.356000", "101350.582000", "101351.947000", "101353.103000", "101354.338000", "101355.592000", "101356.883000", "101358.081000", "101359.331000", "101400.582000", "101401.848000", "101403.083000", "101404.336000", "101405.573000", "101406.835000", "101408.114000"],
      "InstanceCreationTime": ["100819.573000", "100820.590000", "100821.830000", "100823.072000", "100824.337000", "100825.591000", "100826.851000", "100828.089000", "100829.332000", "100830.569000", "100831.853000", "100833.087000", "100834.324000", "100835.600000", "100836.862000", "100838.073000", "100839.342000", "100840.609000", "100841.893000", "100843.068000", "100844.341000", "100845.585000", "100846.822000", "100848.076000", "100849.353000", "100850.599000", "100851.856000", "100853.069000", "100854.311000", "100855.560000", "100856.829000", "100858.063000", "100859.308000", "100900.564000", "100901.817000", "100903.083000", "100904.376000", "100905.554000", "100906.858000", "100908.050000", "100909.382000", "100910.671000", "100911.885000", "100913.183000", "100914.355000", "100915.562000", "100916.828000", "100918.092000", "100919.325000", "100920.574000", "100921.839000", "100923.092000", "100924.368000", "100925.575000", "100926.818000", "100928.064000", "100929.343000", "100930.613000", "100931.808000", "100933.073000", "100934.319000", "100935.587000", "100936.831000", "100938.083000", "100939.358000", "100940.594000", "100941.875000", "100943.099000", "100944.333000", "100945.568000", "100946.838000", "100948.048000", "100949.318000", "100950.585000", "100951.816000", "100953.084000", "100954.307000", "100955.622000", "100956.862000", "100958.105000", "100959.336000", "101000.569000", "101001.805000", "101003.095000", "101004.338000", "101005.566000", "101006.820000", "101008.098000", "101009.413000", "101010.606000", "101011.822000", "101013.057000", "101014.342000", "101015.581000", "101016.847000", "101018.096000", "101019.335000", "101020.575000", "101021.805000", "101023.061000", "101024.340000", "101025.569000", "101026.848000", "101028.081000", "101029.326000", "101030.589000", "101031.843000", "101033.102000", "101034.322000", "101035.593000", "101036.850000", "101038.082000", "101039.337000", "101040.580000", "101041.839000", "101043.102000", "101044.346000", "101045.606000", "101046.821000", "101048.093000", "101049.340000", "101050.600000", "101051.840000", "101053.133000", "101054.379000", "101055.587000", "101056.855000", "101058.049000", "101059.343000", "101100.595000", "101101.913000", "101103.074000", "101104.336000", "101105.561000", "101106.833000", "101108.088000", "101109.407000", "101110.627000", "101111.868000", "101113.088000", "101114.323000", "101115.608000", "101116.860000", "101118.121000", "101119.316000", "101120.582000", "101121.813000", "101123.064000", "101124.311000", "101125.578000", "101126.875000", "101128.078000", "101129.319000", "101130.585000", "101131.873000", "101133.087000", "101134.318000", "101135.612000", "101136.840000", "101138.133000", "101139.341000", "101140.603000", "101141.847000", "101143.072000", "101144.310000", "101145.577000", "101146.851000", "101148.085000", "101149.338000", "101150.583000", "101151.854000", "101153.080000", "101154.344000", "101155.583000", "101156.829000", "101158.046000", "101159.390000", "101200.585000", "101201.835000", "101203.114000", "101204.371000", "101205.594000", "101206.836000", "101208.127000", "101209.357000", "101210.645000", "101211.855000", "101213.111000", "101214.343000", "101215.584000", "101216.796000", "101218.091000", "101219.309000", "101220.606000", "101221.788000", "101223.078000", "101224.380000", "101225.590000", "101226.826000", "101228.091000", "101229.330000", "101230.577000", "101231.843000", "101233.087000", "101234.316000", "101235.584000", "101236.837000", "101238.089000", "101239.380000", "101240.604000", "101241.816000", "101243.129000", "101244.386000", "101245.585000", "101246.877000", "101248.067000", "101249.342000", "101250.580000", "101251.849000", "101253.133000", "101254.362000", "101255.571000", "101256.870000", "101258.083000", "101259.326000", "101300.585000", "101301.880000", "101303.073000", "101304.354000", "101305.578000", "101306.850000", "101308.093000", "101309.333000", "101310.631000", "101311.879000", "101313.074000", "101314.336000", "101315.617000", "101316.856000", "101318.095000", "101319.309000", "101320.590000", "101321.846000", "101323.071000", "101324.317000", "101325.601000", "101326.806000", "101328.091000", "101329.352000", "101330.570000", "101331.814000", "101333.080000", "101334.305000", "101335.578000", "101336.822000", "101338.086000", "101339.331000", "101340.573000", "101341.828000", "101343.077000", "101344.322000", "101345.612000", "101346.818000", "101348.135000", "101349.356000", "101350.582000", "101351.947000", "101353.103000", "101354.338000", "101355.592000", "101356.883000", "101358.081000", "101359.331000", "101400.582000", "101401.848000", "101403.083000", "101404.336000", "101405.573000", "101406.835000", "101408.114000"],
      "InstanceNumber": [1, 2, 3, 4, 5, 6, 7, 8, 9, 10, 11, 12, 13, 14, 15, 16, 17, 18, 19, 20, 21, 22, 23, 24, 25, 26, 27, 28, 29, 30, 31, 32, 33, 34, 35, 36, 37, 38, 39, 40, 41, 42, 43, 44, 45, 46, 47, 48, 49, 50, 51, 52, 53, 54, 55, 56, 57, 58, 59, 60, 61, 62, 63, 64, 65, 66, 67, 68, 69, 70, 71, 72, 73, 74, 75, 76, 77, 78, 79, 80, 81, 82, 83, 84, 85, 86, 87, 88, 89, 90, 91, 92, 93, 94, 95, 96, 97, 98, 99, 100, 101, 102, 103, 104, 105, 106, 107, 108, 109, 110, 111, 112, 113, 114, 115, 116, 117, 118, 119, 120, 121, 122, 123, 124, 125, 126, 127, 128, 129, 130, 131, 132, 133, 134, 135, 136, 137, 138, 139, 140, 141, 142, 143, 144, 145, 146, 147, 148, 149, 150, 151, 152, 153, 154, 155, 156, 157, 158, 159, 160, 161, 162, 163, 164, 165, 166, 167, 168, 169, 170, 171, 172, 173, 174, 175, 176, 177, 178, 179, 180, 181, 182, 183, 184, 185, 186, 187, 188, 189, 190, 191, 192, 193, 194, 195, 196, 197, 198, 199, 200, 201, 202, 203, 204, 205, 206, 207, 208, 209, 210, 211, 212, 213, 214, 215, 216, 217, 218, 219, 220, 221, 222, 223, 224, 225, 226, 227, 228, 229, 230, 231, 232, 233, 234, 235, 236, 237, 238, 239, 240, 241, 242, 243, 244, 245, 246, 247, 248, 249, 250, 251, 252, 253, 254, 255, 256, 257, 258, 259, 260, 261, 262, 263, 264, 265, 266, 267, 268, 269, 270, 271, 272, 273, 274, 275, 276, 277, 278, 279, 280],
      "LargestImagePixelValue": [867, 1003, 828, 925, 1144, 1279, 818, 711, 1046, 971, 795, 872, 1114, 973, 850, 900, 1161, 883, 829, 1094, 1095, 858, 759, 1112, 1195, 811, 835, 986, 842, 799, 1057, 1107, 761, 906, 958, 1081, 860, 855, 912, 1122, 834, 904, 961, 1039, 857, 775, 1049, 1072, 847, 734, 1070, 751, 768, 1072, 1032, 796, 778, 1047, 1092, 765, 979, 1062, 898, 746, 1087, 1123, 793, 805, 884, 1070, 761, 807, 717, 907, 1017, 1074, 860, 717, 1035, 1010, 842, 1031, 1079, 973, 848, 1000, 1096, 857, 847, 908, 1068, 885, 896, 894, 1111, 809, 824, 1055, 796, 853, 969, 1120, 800, 835, 897, 1091, 844, 767, 920, 1019, 1039, 771, 864, 951, 1063, 823, 781, 1005, 1077, 869, 794, 906, 1053, 885, 894, 860, 1091, 794, 951, 1025, 932, 821, 943, 1035, 781, 862, 1036, 839, 717, 1088, 864, 786, 950, 1020, 927, 821, 792, 1077, 990, 838, 835, 1060, 845, 774, 1011, 1062, 819, 717, 1136, 1088, 856, 737, 1074, 780, 774, 1127, 750, 916, 1079, 1242, 780, 783, 752, 1022, 950, 1147, 939, 821, 802, 1118, 913, 966, 958, 806, 866, 1094, 1131, 858, 768, 1051, 1038, 1195, 853, 813, 919, 1044, 802, 814, 1066, 1071, 974, 836, 865, 1082, 874, 914, 807, 1071, 799, 822, 1099, 1054, 875, 786, 931, 1029, 923, 844, 924, 1104, 1152, 920, 770, 1075, 952, 820, 839, 875, 1051, 845, 828, 979, 1105, 812, 833, 893, 1069, 838, 797, 958, 1051, 940, 863, 937, 1080, 1205, 805, 799, 1069, 805, 837, 943, 1094, 785, 842, 939, 1141, 862, 889, 1085, 802, 851, 955, 1101, 826, 820, 1040, 981, 913, 794, 1080, 955, 839, 993, 775, 986, 1071, 1135, 851, 939],
      "WindowCenter": [357.0, 358.0, 356.0, 357.0, 359.0, 359.0, 355.0, 354.0, 357.0, 357.0, 356.0, 355.0, 358.0, 357.0, 356.0, 357.0, 359.0, 357.0, 356.0, 358.0, 359.0, 356.0, 355.0, 358.0, 358.0, 355.0, 356.0, 357.0, 356.0, 356.0, 358.0, 358.0, 355.0, 356.0, 357.0, 358.0, 356.0, 356.0, 357.0, 358.0, 356.0, 356.0, 357.0, 357.0, 356.0, 355.0, 358.0, 358.0, 356.0, 354.0, 358.0, 355.0, 355.0, 358.0, 357.0, 355.0, 355.0, 358.0, 359.0, 355.0, 357.0, 358.0, 356.0, 354.0, 357.0, 358.0, 355.0, 355.0, 356.0, 358.0, 355.0, 356.0, 355.0, 357.0, 358.0, 358.0, 355.0, 354.0, 357.0, 357.0, 356.0, 358.0, 358.0, 357.0, 356.0, 357.0, 358.0, 356.0, 355.0, 356.0, 357.0, 356.0, 356.0, 356.0, 358.0, 356.0, 355.0, 358.0, 356.0, 356.0, 357.0, 358.0, 355.0, 356.0, 356.0, 358.0, 355.0, 354.0, 356.0, 357.0, 357.0, 355.0, 356.0, 357.0, 358.0, 356.0, 355.0, 357.0, 358.0, 356.0, 356.0, 356.0, 358.0, 356.0, 356.0, 356.0, 358.0, 356.0, 357.0, 357.0, 356.0, 356.0, 357.0, 357.0, 355.0, 356.0, 357.0, 355.0, 354.0, 358.0, 356.0, 355.0, 357.0, 357.0, 356.0, 355.0, 355.0, 358.0, 357.0, 356.0, 356.0, 357.0, 356.0, 355.0, 357.0, 357.0, 355.0, 354.0, 358.0, 358.0, 356.0, 355.0, 358.0, 356.0, 356.0, 359.0, 356.0, 358.0, 359.0, 359.0, 355.0, 355.0, 356.0, 359.0, 358.0, 359.0, 357.0, 356.0, 356.0, 359.0, 357.0, 356.0, 356.0, 355.0, 356.0, 359.0, 359.0, 356.0, 355.0, 358.0, 357.0, 358.0, 356.0, 355.0, 356.0, 357.0, 355.0, 355.0, 357.0, 358.0, 357.0, 356.0, 355.0, 357.0, 356.0, 356.0, 356.0, 358.0, 355.0, 356.0, 358.0, 358.0, 356.0, 355.0, 357.0, 357.0, 356.0, 356.0, 356.0, 358.0, 358.0, 356.0, 355.0, 357.0, 357.0, 355.0, 355.0, 355.0, 357.0, 355.0, 355.0, 357.0, 358.0, 356.0, 355.0, 356.0, 357.0, 356.0, 355.0, 357.0, 358.0, 357.0, 356.0, 357.0, 358.0, 358.0, 355.0, 355.0, 358.0, 356.0, 356.0, 357.0, 358.0, 355.0, 355.0, 357.0, 358.0, 356.0, 356.0, 358.0, 355.0, 355.0, 357.0, 358.0, 355.0, 355.0, 357.0, 357.0, 357.0, 356.0, 358.0, 357.0, 356.0, 358.0, 356.0, 358.0, 358.0, 358.0, 355.0, 356.0],
      "WindowWidth": [765.0, 765.0, 762.0, 764.0, 766.0, 766.0, 760.0, 759.0, 763.0, 763.0, 761.0, 761.0, 765.0, 763.0, 763.0, 764.0, 767.0, 764.0, 762.0, 765.0, 766.0, 763.0, 761.0, 764.0, 765.0, 760.0, 761.0, 763.0, 762.0, 761.0, 764.0, 765.0, 761.0, 762.0, 763.0, 765.0, 761.0, 761.0, 763.0, 765.0, 762.0, 762.0, 763.0, 763.0, 762.0, 761.0, 765.0, 765.0, 762.0, 760.0, 765.0, 761.0, 761.0, 765.0, 764.0, 761.0, 761.0, 765.0, 766.0, 761.0, 764.0, 765.0, 762.0, 760.0, 763.0, 765.0, 760.0, 760.0, 762.0, 765.0, 761.0, 762.0, 762.0, 763.0, 765.0, 765.0, 761.0, 760.0, 764.0, 764.0, 763.0, 765.0, 765.0, 763.0, 761.0, 763.0, 765.0, 761.0, 761.0, 762.0, 764.0, 762.0, 762.0, 762.0, 765.0, 762.0, 761.0, 765.0, 762.0, 763.0, 764.0, 765.0, 761.0, 761.0, 762.0, 764.0, 761.0, 760.0, 762.0, 764.0, 764.0, 761.0, 761.0, 763.0, 765.0, 762.0, 761.0, 763.0, 765.0, 761.0, 762.0, 762.0, 764.0, 762.0, 763.0, 762.0, 765.0, 762.0, 763.0, 764.0, 762.0, 761.0, 763.0, 763.0, 760.0, 761.0, 764.0, 761.0, 760.0, 765.0, 762.0, 760.0, 763.0, 764.0, 762.0, 761.0, 760.0, 764.0, 764.0, 761.0, 762.0, 764.0, 761.0, 761.0, 764.0, 764.0, 761.0, 760.0, 765.0, 765.0, 762.0, 761.0, 765.0, 762.0, 762.0, 766.0, 762.0, 765.0, 766.0, 766.0, 761.0, 761.0, 762.0, 766.0, 766.0, 767.0, 763.0, 762.0, 762.0, 766.0, 763.0, 761.0, 761.0, 761.0, 762.0, 766.0, 766.0, 762.0, 761.0, 765.0, 764.0, 765.0, 761.0, 760.0, 762.0, 764.0, 761.0, 761.0, 763.0, 764.0, 763.0, 761.0, 761.0, 764.0, 762.0, 762.0, 762.0, 765.0, 761.0, 761.0, 765.0, 765.0, 762.0, 760.0, 763.0, 764.0, 762.0, 762.0, 762.0, 765.0, 764.0, 762.0, 760.0, 763.0, 763.0, 760.0, 761.0, 760.0, 763.0, 761.0, 760.0, 763.0, 764.0, 761.0, 760.0, 762.0, 763.0, 761.0, 761.0, 763.0, 765.0, 763.0, 763.0, 763.0, 765.0, 765.0, 761.0, 760.0, 765.0, 761.0, 762.0, 763.0, 765.0, 761.0, 761.0, 763.0, 765.0, 762.0, 762.0, 764.0, 760.0, 761.0, 763.0, 764.0, 761.0, 761.0, 764.0, 764.0, 763.0, 762.0, 764.0, 763.0, 762.0, 765.0, 762.0, 764.0, 765.0, 765.0, 761.0, 762.0]
    },
    "slices": {}
  }
}