{
  "AcquisitionMatrixPE": 96,
  "AcquisitionNumber": 1,
  "AcquisitionTime": "10:55:20.072500",
  "BandwidthPerPixelPhaseEncode": 18.939,
  "BaseResolution": 96,
  "BodyPartExamined": "BRAIN",
  "ConsistencyInfo": "N4_VE11C_LATEST_20160120",
  "ConversionSoftware": "dcm2niix",
  "ConversionSoftwareVersion": "v1.0.20170923 (OpenJPEG build) GCC6.3.0",
  "DerivedVendorReportedEchoSpacing": 0.000550011,
  "DeviceSerialNumber": "66112",
  "DwellTime": 2.3e-06,
  "EchoTime": 0.033,
  "EchoTrainLength": 96,
  "EffectiveEchoSpacing": 0.000550011,
  "FlipAngle": 64,
  "ImageType": [
    "ORIGINAL",
    "PRIMARY",
    "FMRI",
    "NONE",
    "ND",
    "NORM",
    "MOSAIC"
],
  "InstitutionAddress": "Maynard_3_Hanover_NH_US_03755",
  "InstitutionName": "Dartmouth_College_-_PBS",
  "MagneticFieldStrength": 3,
  "Manufacturer": "Siemens",
  "ManufacturersModelName": "Prisma",
  "Modality": "MR",
  "MultibandAccelerationFactor": 4,
  "PartialFourier": 1,
  "PercentPhaseFOV": 100,
  "PhaseEncodingDirection": "j-",
  "PhaseEncodingSteps": 96,
  "PhaseResolution": 1,
  "ProcedureStepDescription": "Gobbini_Matteo_1017_famface-angles",
  "ProtocolName": "func_run-09_task-fam1back",
  "PulseSequenceDetails": "%SiemensSeq%_ep2d_bold",
  "ReceiveCoilActiveElements": "HEA;HEP",
  "ReceiveCoilName": "Head_32",
  "ReconMatrixPE": 96,
  "RepetitionTime": 1.25,
  "ScanOptions": "FS",
  "ScanningSequence": "EP",
  "SequenceName": "_epfid2d1_96",
  "SequenceVariant": "SK",
  "SeriesDescription": "func_run-09_task-fam1back",
  "SliceTiming": [0.88, 0, 0.615, 0.09, 0.705, 0.1775, 0.7925, 0.3525, 0.9675, 0.44, 1.055, 0.5275, 1.1425, 0.265, 0.88, 0, 0.615, 0.09, 0.705, 0.1775, 0.7925, 0.3525, 0.9675, 0.44, 1.055, 0.5275, 1.1425, 0.265, 0.88, 0, 0.615, 0.09, 0.705, 0.1775, 0.7925, 0.3525, 0.9675, 0.44, 1.055, 0.5275, 1.1425, 0.265, 0.88, 0, 0.615, 0.09, 0.705, 0.1775, 0.7925, 0.3525, 0.9675, 0.44, 1.055, 0.5275, 1.1425, 0.265],
  "SoftwareVersions": "syngo_MR_E11",
  "StationName": "AWP66112",
  "TaskName": "fam1back",
  "TotalReadoutTime": 0.0522511,
  "dcmmeta_affine": [
    [-2.4994869232177734, 0.049738310277462006, -0.009543189778923988, 121.35560607910156],
    [0.049619343131780624, 2.499323844909668, 0.03030814416706562, -108.40351867675781],
    [-0.010143598541617393, -0.03011251427233219, 2.499798059463501, -81.13140869140625],
    [0.0, 0.0, 0.0, 1.0]
],
  "dcmmeta_reorient_transform": [
    [0.0, -1.0, 0.0, 95.0],
    [1.0, 0.0, 0.0, 0.0],
    [0.0, 0.0, 1.0, 0.0],
    [0.0, 0.0, 0.0, 1.0]
],
  "dcmmeta_shape": [96, 96, 56, 280],
  "dcmmeta_slice_dim": 2,
  "dcmmeta_version": 0.6,
  "global": {
    "const": {
      "AccessionNumber": "A000631",
      "AcquisitionMatrix": [96, 0, 0, 96],
      "AngioFlag": "N",
      "BitsAllocated": 16,
      "BitsStored": 12,
      "BodyPartExamined": "BRAIN",
      "Columns": 768,
      "EchoNumbers": 1,
      "EchoTime": 33.0,
      "EchoTrainLength": 96,
      "FlipAngle": 64.0,
      "HighBit": 11,
      "ImageOrientationPatient": [0.99979478118637, -0.01984773785, -0.004057439431, 0.01989532401804, 0.99972951037989, 0.01204500551315],
      "ImagePositionPatient": [-982.62043655837, -952.13292706662, -90.701655662992],
      "ImageType": [
        "ORIGINAL",
        "PRIMARY",
        "FMRI",
        "NONE",
        "ND",
        "NORM",
        "MOSAIC"
],
      "ImagedNucleus": "1H",
      "ImagingFrequency": 123.252372,
      "InPlanePhaseEncodingDirection": "COL",
      "MRAcquisitionType": "2D",
      "MagneticFieldStrength": 3.0,
      "Manufacturer": "SIEMENS",
      "ManufacturerModelName": "Prisma",
      "Modality": "MR",
      "NumberOfAverages": 1.0,
      "NumberOfPhaseEncodingSteps": 96,
      "PercentPhaseFieldOfView": 100.0,
      "PercentSampling": 100.0,
      "PerformedProcedureStepStartTime": "094845.448000",
      "PhotometricInterpretation": "MONOCHROME2",
      "PixelBandwidth": 2265.0,
      "PixelRepresentation": 0,
      "PixelSpacing": [2.5, 2.5],
      "PositionReferenceIndicator": "",
      "ProtocolName": "func_run-09_task-fam1back",
      "RepetitionTime": 1250.0,
      "Rows": 768,
      "SAR": 0.05917426781538,
      "SamplesPerPixel": 1,
      "ScanOptions": "FS",
      "ScanningSequence": "EP",
      "SequenceName": "*epfid2d1_96",
      "SequenceVariant": "SK",
      "SeriesDescription": "func_run-09_task-fam1back",
      "SeriesNumber": 64,
      "SeriesTime": "105521.134000",
      "SliceLocation": -82.902309543486,
      "SliceThickness": 2.5,
      "SmallestImagePixelValue": 0,
      "SoftwareVersions": "syngo MR E11",
      "SpacingBetweenSlices": 2.5000000379284,
      "SpecificCharacterSet": "ISO_IR 100",
      "StudyID": "2",
      "StudyTime": "094845.373000",
      "TransmitCoilName": "Body",
      "VariableFlipAngleFlag": "N",
      "WindowCenterWidthExplanation": "Algo1",
      "dBdt": 0.0},
    "slices": {}
  },
  "time": {
    "samples": {
      "AcquisitionNumber": [1, 2, 3, 4, 5, 6, 7, 8, 9, 10, 11, 12, 13, 14, 15, 16, 17, 18, 19, 20, 21, 22, 23, 24, 25, 26, 27, 28, 29, 30, 31, 32, 33, 34, 35, 36, 37, 38, 39, 40, 41, 42, 43, 44, 45, 46, 47, 48, 49, 50, 51, 52, 53, 54, 55, 56, 57, 58, 59, 60, 61, 62, 63, 64, 65, 66, 67, 68, 69, 70, 71, 72, 73, 74, 75, 76, 77, 78, 79, 80, 81, 82, 83, 84, 85, 86, 87, 88, 89, 90, 91, 92, 93, 94, 95, 96, 97, 98, 99, 100, 101, 102, 103, 104, 105, 106, 107, 108, 109, 110, 111, 112, 113, 114, 115, 116, 117, 118, 119, 120, 121, 122, 123, 124, 125, 126, 127, 128, 129, 130, 131, 132, 133, 134, 135, 136, 137, 138, 139, 140, 141, 142, 143, 144, 145, 146, 147, 148, 149, 150, 151, 152, 153, 154, 155, 156, 157, 158, 159, 160, 161, 162, 163, 164, 165, 166, 167, 168, 169, 170, 171, 172, 173, 174, 175, 176, 177, 178, 179, 180, 181, 182, 183, 184, 185, 186, 187, 188, 189, 190, 191, 192, 193, 194, 195, 196, 197, 198, 199, 200, 201, 202, 203, 204, 205, 206, 207, 208, 209, 210, 211, 212, 213, 214, 215, 216, 217, 218, 219, 220, 221, 222, 223, 224, 225, 226, 227, 228, 229, 230, 231, 232, 233, 234, 235, 236, 237, 238, 239, 240, 241, 242, 243, 244, 245, 246, 247, 248, 249, 250, 251, 252, 253, 254, 255, 256, 257, 258, 259, 260, 261, 262, 263, 264, 265, 266, 267, 268, 269, 270, 271, 272, 273, 274, 275, 276, 277, 278, 279, 280],
      "AcquisitionTime": ["105520.072500", "105521.322500", "105522.572500", "105523.822500", "105525.072500", "105526.322500", "105527.572500", "105528.822500", "105530.072500", "105531.322500", "105532.572500", "105533.822500", "105535.072500", "105536.322500", "105537.572500", "105538.822500", "105540.072500", "105541.322500", "105542.572500", "105543.822500", "105545.072500", "105546.322500", "105547.572500", "105548.822500", "105550.072500", "105551.322500", "105552.572500", "105553.822500", "105555.072500", "105556.322500", "105557.572500", "105558.822500", "105600.072500", "105601.322500", "105602.572500", "105603.822500", "105605.072500", "105606.322500", "105607.572500", "105608.822500", "105610.072500", "105611.322500", "105612.572500", "105613.822500", "105615.072500", "105616.322500", "105617.572500", "105618.822500", "105620.072500", "105621.322500", "105622.572500", "105623.822500", "105625.072500", "105626.322500", "105627.572500", "105628.822500", "105630.072500", "105631.322500", "105632.572500", "105633.822500", "105635.072500", "105636.322500", "105637.572500", "105638.822500", "105640.072500", "105641.322500", "105642.572500", "105643.822500", "105645.072500", "105646.322500", "105647.572500", "105648.822500", "105650.072500", "105651.322500", "105652.572500", "105653.822500", "105655.072500", "105656.322500", "105657.572500", "105658.822500", "105700.072500", "105701.322500", "105702.572500", "105703.822500", "105705.072500", "105706.322500", "105707.572500", "105708.822500", "105710.072500", "105711.322500", "105712.572500", "105713.822500", "105715.072500", "105716.322500", "105717.572500", "105718.822500", "105720.072500", "105721.322500", "105722.572500", "105723.822500", "105725.072500", "105726.322500", "105727.572500", "105728.822500", "105730.072500", "105731.322500", "105732.572500", "105733.822500", "105735.072500", "105736.322500", "105737.572500", "105738.822500", "105740.072500", "105741.322500", "105742.572500", "105743.822500", "105745.072500", "105746.322500", "105747.572500", "105748.822500", "105750.072500", "105751.322500", "105752.572500", "105753.822500", "105755.072500", "105756.322500", "105757.572500", "105758.822500", "105800.072500", "105801.322500", "105802.572500", "105803.822500", "105805.072500", "105806.322500", "105807.572500", "105808.822500", "105810.072500", "105811.322500", "105812.572500", "105813.822500", "105815.072500", "105816.322500", "105817.572500", "105818.822500", "105820.072500", "105821.322500", "105822.572500", "105823.822500", "105825.072500", "105826.322500", "105827.572500", "105828.822500", "105830.072500", "105831.322500", "105832.572500", "105833.822500", "105835.072500", "105836.322500", "105837.572500", "105838.822500", "105840.072500", "105841.322500", "105842.572500", "105843.822500", "105845.072500", "105846.322500", "105847.572500", "105848.822500", "105850.072500", "105851.322500", "105852.572500", "105853.822500", "105855.072500", "105856.322500", "105857.572500", "105858.822500", "105900.072500", "105901.322500", "105902.572500", "105903.822500", "105905.072500", "105906.322500", "105907.572500", "105908.822500", "105910.072500", "105911.322500", "105912.572500", "105913.822500", "105915.072500", "105916.322500", "105917.572500", "105918.822500", "105920.072500", "105921.322500", "105922.572500", "105923.822500", "105925.072500", "105926.322500", "105927.572500", "105928.822500", "105930.072500", "105931.322500", "105932.572500", "105933.822500", "105935.072500", "105936.322500", "105937.572500", "105938.822500", "105940.072500", "105941.322500", "105942.572500", "105943.822500", "105945.072500", "105946.322500", "105947.572500", "105948.822500", "105950.072500", "105951.322500", "105952.572500", "105953.822500", "105955.072500", "105956.322500", "105957.572500", "105958.822500", "110000.072500", "110001.322500", "110002.572500", "110003.822500", "110005.072500", "110006.322500", "110007.572500", "110008.822500", "110010.072500", "110011.322500", "110012.572500", "110013.822500", "110015.072500", "110016.322500", "110017.572500", "110018.822500", "110020.072500", "110021.322500", "110022.572500", "110023.822500", "110025.072500", "110026.322500", "110027.572500", "110028.822500", "110030.072500", "110031.322500", "110032.572500", "110033.822500", "110035.072500", "110036.322500", "110037.572500", "110038.822500", "110040.072500", "110041.322500", "110042.572500", "110043.822500", "110045.072500", "110046.322500", "110047.572500", "110048.822500", "110050.072500", "110051.322500", "110052.572500", "110053.822500", "110055.072500", "110056.322500", "110057.572500", "110058.822500", "110100.072500", "110101.322500", "110102.572500", "110103.822500", "110105.072500", "110106.322500", "110107.572500", "110108.822500"],
      "ContentTime": ["105521.138000", "105522.210000", "105523.420000", "105524.732000", "105525.934000", "105527.218000", "105528.434000", "105529.687000", "105530.967000", "105532.202000", "105533.446000", "105534.661000", "105535.935000", "105537.230000", "105538.430000", "105539.696000", "105540.970000", "105542.186000", "105543.444000", "105544.703000", "105546.023000", "105547.204000", "105548.429000", "105549.681000", "105550.950000", "105552.212000", "105553.425000", "105554.700000", "105555.948000", "105557.196000", "105558.428000", "105559.676000", "105600.963000", "105602.263000", "105603.451000", "105604.687000", "105605.970000", "105607.201000", "105608.467000", "105609.735000", "105610.923000", "105612.199000", "105613.487000", "105614.718000", "105615.983000", "105617.210000", "105618.421000", "105619.697000", "105620.953000", "105622.211000", "105623.481000", "105624.689000", "105625.959000", "105627.179000", "105628.452000", "105629.720000", "105630.926000", "105632.208000", "105633.444000", "105634.681000", "105635.949000", "105637.227000", "105638.472000", "105639.681000", "105640.995000", "105642.225000", "105643.442000", "105644.704000", "105645.985000", "105647.197000", "105648.436000", "105649.680000", "105650.941000", "105652.181000", "105653.450000", "105654.694000", "105655.945000", "105657.198000", "105658.446000", "105659.682000", "105700.970000", "105702.193000", "105703.429000", "105704.709000", "105705.930000", "105707.180000", "105708.439000", "105709.709000", "105710.943000", "105712.198000", "105713.460000", "105714.726000", "105715.937000", "105717.158000", "105718.451000", "105719.716000", "105720.950000", "105722.168000", "105723.417000", "105724.687000", "105725.981000", "105727.199000", "105728.472000", "105729.715000", "105730.955000", "105732.222000", "105733.468000", "105734.716000", "105735.964000", "105737.171000", "105738.432000", "105739.704000", "105740.991000", "105742.205000", "105743.524000", "105744.720000", "105745.983000", "105747.219000", "105748.463000", "105749.758000", "105750.940000", "105752.245000", "105753.425000", "105754.691000", "105755.957000", "105757.239000", "105758.452000", "105759.701000", "105800.956000", "105802.192000", "105803.504000", "105804.728000", "105805.961000", "105807.198000", "105808.451000", "105809.713000", "105810.974000", "105812.217000", "105813.458000", "105814.724000", "105815.928000", "105817.200000", "105818.444000", "105819.798000", "105820.973000", "105822.204000", "105823.439000", "105824.703000", "105825.922000", "105827.187000", "105828.447000", "105829.705000", "105830.926000", "105832.217000", "105833.440000", "105834.694000", "105835.974000", "105837.215000", "105838.484000", "105839.723000", "105840.966000", "105842.225000", "105843.467000", "105844.698000", "105845.924000", "105847.200000", "105848.426000", "105849.721000", "105850.931000", "105852.193000", "105853.455000", "105854.714000", "105855.928000", "105857.205000", "105858.463000", "105859.714000", "105900.959000", "105902.215000", "105903.450000", "105904.695000", "105905.957000", "105907.209000", "105908.454000", "105909.690000", "105910.949000", "105912.187000", "105913.459000", "105914.707000", "105915.961000", "105917.235000", "105918.462000", "105919.710000", "105920.953000", "105922.188000", "105923.514000", "105924.688000", "105925.944000", "105927.171000", "105928.449000", "105929.704000", "105930.941000", "105932.204000", "105933.466000", "105934.685000", "105935.919000", "105937.197000", "105938.430000", "105939.702000", "105940.944000", "105942.191000", "105943.477000", "105944.708000", "105945.962000", "105947.222000", "105948.444000", "105949.712000", "105950.962000", "105952.150000", "105953.460000", "105954.695000", "105955.946000", "105957.210000", "105958.449000", "105959.701000", "110000.954000", "110002.198000", "110003.508000", "110004.695000", "110005.921000", "110007.205000", "110008.477000", "110009.702000", "110010.972000", "110012.190000", "110013.475000", "110014.702000", "110015.951000", "110017.188000", "110018.447000", "110019.694000", "110020.947000", "110022.196000", "110023.471000", "110024.693000", "110025.958000", "110027.190000", "110028.465000", "110029.721000", "110030.950000", "110032.193000", "110033.473000", "110034.716000", "110035.958000", "110037.204000", "110038.436000", "110039.682000", "110040.933000", "110042.209000", "110043.491000", "110044.757000", "110045.970000", "110047.202000", "110048.466000", "110049.686000", "110050.968000", "110052.241000", "110053.467000", "110054.703000", "110055.987000", "110057.157000", "110058.448000", "110059.723000", "110100.959000", "110102.194000", "110103.451000", "110104.694000", "110106.009000", "110107.185000", "110108.475000", "110109.755000"],
      "InstanceCreationTime": ["105521.138000", "105522.210000", "105523.420000", "105524.732000", "105525.934000", "105527.218000", "105528.434000", "105529.687000", "105530.967000", "105532.202000", "105533.446000", "105534.661000", "105535.935000", "105537.230000", "105538.430000", "105539.696000", "105540.970000", "105542.186000", "105543.444000", "105544.703000", "105546.023000", "105547.204000", "105548.429000", "105549.681000", "105550.950000", "105552.212000", "105553.425000", "105554.700000", "105555.948000", "105557.196000", "105558.428000", "105559.676000", "105600.963000", "105602.263000", "105603.451000", "105604.687000", "105605.970000", "105607.201000", "105608.467000", "105609.735000", "105610.923000", "105612.199000", "105613.487000", "105614.718000", "105615.983000", "105617.210000", "105618.421000", "105619.697000", "105620.953000", "105622.211000", "105623.481000", "105624.689000", "105625.959000", "105627.179000", "105628.452000", "105629.720000", "105630.926000", "105632.208000", "105633.444000", "105634.681000", "105635.949000", "105637.227000", "105638.472000", "105639.681000", "105640.995000", "105642.225000", "105643.442000", "105644.704000", "105645.985000", "105647.197000", "105648.436000", "105649.680000", "105650.941000", "105652.181000", "105653.450000", "105654.694000", "105655.945000", "105657.198000", "105658.446000", "105659.682000", "105700.970000", "105702.193000", "105703.429000", "105704.709000", "105705.930000", "105707.180000", "105708.439000", "105709.709000", "105710.943000", "105712.198000", "105713.460000", "105714.726000", "105715.937000", "105717.158000", "105718.451000", "105719.716000", "105720.950000", "105722.168000", "105723.417000", "105724.687000", "105725.981000", "105727.199000", "105728.472000", "105729.715000", "105730.955000", "105732.222000", "105733.468000", "105734.716000", "105735.964000", "105737.171000", "105738.432000", "105739.704000", "105740.991000", "105742.205000", "105743.524000", "105744.720000", "105745.983000", "105747.219000", "105748.463000", "105749.758000", "105750.940000", "105752.245000", "105753.425000", "105754.691000", "105755.957000", "105757.239000", "105758.452000", "105759.701000", "105800.956000", "105802.192000", "105803.504000", "105804.728000", "105805.961000", "105807.198000", "105808.451000", "105809.713000", "105810.974000", "105812.217000", "105813.458000", "105814.724000", "105815.928000", "105817.200000", "105818.444000", "105819.798000", "105820.973000", "105822.204000", "105823.439000", "105824.703000", "105825.922000", "105827.187000", "105828.447000", "105829.705000", "105830.926000", "105832.217000", "105833.440000", "105834.694000", "105835.974000", "105837.215000", "105838.484000", "105839.723000", "105840.966000", "105842.225000", "105843.467000", "105844.698000", "105845.924000", "105847.200000", "105848.426000", "105849.721000", "105850.931000", "105852.193000", "105853.455000", "105854.714000", "105855.928000", "105857.205000", "105858.463000", "105859.714000", "105900.959000", "105902.215000", "105903.450000", "105904.695000", "105905.957000", "105907.209000", "105908.454000", "105909.690000", "105910.949000", "105912.187000", "105913.459000", "105914.707000", "105915.961000", "105917.235000", "105918.462000", "105919.710000", "105920.953000", "105922.188000", "105923.514000", "105924.688000", "105925.944000", "105927.171000", "105928.449000", "105929.704000", "105930.941000", "105932.204000", "105933.466000", "105934.685000", "105935.919000", "105937.197000", "105938.430000", "105939.702000", "105940.944000", "105942.191000", "105943.477000", "105944.708000", "105945.962000", "105947.222000", "105948.444000", "105949.712000", "105950.962000", "105952.150000", "105953.460000", "105954.695000", "105955.946000", "105957.210000", "105958.449000", "105959.701000", "110000.954000", "110002.198000", "110003.508000", "110004.695000", "110005.921000", "110007.205000", "110008.477000", "110009.702000", "110010.972000", "110012.190000", "110013.475000", "110014.702000", "110015.951000", "110017.188000", "110018.447000", "110019.694000", "110020.947000", "110022.196000", "110023.471000", "110024.693000", "110025.958000", "110027.190000", "110028.465000", "110029.721000", "110030.950000", "110032.193000", "110033.473000", "110034.716000", "110035.958000", "110037.204000", "110038.436000", "110039.682000", "110040.933000", "110042.209000", "110043.491000", "110044.757000", "110045.970000", "110047.202000", "110048.466000", "110049.686000", "110050.968000", "110052.241000", "110053.467000", "110054.703000", "110055.987000", "110057.157000", "110058.448000", "110059.723000", "110100.959000", "110102.194000", "110103.451000", "110104.694000", "110106.009000", "110107.185000", "110108.475000", "110109.755000"],
      "InstanceNumber": [1, 2, 3, 4, 5, 6, 7, 8, 9, 10, 11, 12, 13, 14, 15, 16, 17, 18, 19, 20, 21, 22, 23, 24, 25, 26, 27, 28, 29, 30, 31, 32, 33, 34, 35, 36, 37, 38, 39, 40, 41, 42, 43, 44, 45, 46, 47, 48, 49, 50, 51, 52, 53, 54, 55, 56, 57, 58, 59, 60, 61, 62, 63, 64, 65, 66, 67, 68, 69, 70, 71, 72, 73, 74, 75, 76, 77, 78, 79, 80, 81, 82, 83, 84, 85, 86, 87, 88, 89, 90, 91, 92, 93, 94, 95, 96, 97, 98, 99, 100, 101, 102, 103, 104, 105, 106, 107, 108, 109, 110, 111, 112, 113, 114, 115, 116, 117, 118, 119, 120, 121, 122, 123, 124, 125, 126, 127, 128, 129, 130, 131, 132, 133, 134, 135, 136, 137, 138, 139, 140, 141, 142, 143, 144, 145, 146, 147, 148, 149, 150, 151, 152, 153, 154, 155, 156, 157, 158, 159, 160, 161, 162, 163, 164, 165, 166, 167, 168, 169, 170, 171, 172, 173, 174, 175, 176, 177, 178, 179, 180, 181, 182, 183, 184, 185, 186, 187, 188, 189, 190, 191, 192, 193, 194, 195, 196, 197, 198, 199, 200, 201, 202, 203, 204, 205, 206, 207, 208, 209, 210, 211, 212, 213, 214, 215, 216, 217, 218, 219, 220, 221, 222, 223, 224, 225, 226, 227, 228, 229, 230, 231, 232, 233, 234, 235, 236, 237, 238, 239, 240, 241, 242, 243, 244, 245, 246, 247, 248, 249, 250, 251, 252, 253, 254, 255, 256, 257, 258, 259, 260, 261, 262, 263, 264, 265, 266, 267, 268, 269, 270, 271, 272, 273, 274, 275, 276, 277, 278, 279, 280],
      "LargestImagePixelValue": [817, 1098, 872, 812, 735, 1055, 1347, 1131, 889, 793, 991, 1057, 761, 814, 1024, 1088, 841, 722, 970, 1240, 799, 877, 992, 1026, 877, 1034, 1246, 1015, 871, 808, 989, 787, 877, 984, 1053, 935, 786, 869, 970, 1033, 864, 848, 1001, 1147, 818, 786, 826, 998, 1088, 815, 780, 976, 895, 823, 944, 1100, 1094, 877, 823, 880, 1000, 847, 839, 1220, 1037, 835, 977, 1107, 873, 751, 1121, 899, 752, 1130, 1244, 804, 745, 1000, 1188, 788, 844, 862, 1180, 861, 748, 892, 992, 904, 853, 923, 1156, 850, 902, 728, 990, 821, 818, 729, 1030, 799, 783, 1039, 800, 1012, 1181, 885, 1077, 1268, 768, 941, 1166, 1309, 892, 738, 1035, 706, 904, 1120, 870, 878, 1096, 778, 838, 1082, 837, 790, 1163, 854, 815, 958, 793, 817, 926, 1216, 1005, 868, 803, 1006, 792, 751, 1058, 1073, 1048, 845, 801, 1045, 768, 835, 969, 1206, 860, 774, 1045, 1153, 847, 877, 1238, 856, 886, 794, 1081, 779, 972, 1103, 1352, 922, 706, 1010, 1140, 770, 869, 979, 1052, 785, 930, 1215, 997, 861, 708, 1039, 844, 784, 693, 1049, 961, 758, 908, 1073, 755, 774, 1116, 1035, 783, 869, 962, 886, 792, 1078, 791, 790, 1292, 905, 889, 1126, 791, 828, 1122, 767, 961, 1162, 799, 823, 785, 787, 1089, 843, 881, 1187, 780, 872, 1324, 830, 793, 1083, 841, 836, 1038, 787, 911, 884, 768, 1152, 833, 903, 878, 745, 1292, 1085, 823, 866, 1198, 805, 799, 1043, 739, 825, 1068, 809, 936, 1020, 806, 793, 1140, 786, 867, 1229, 816, 831, 814, 1237, 792, 801, 801, 1066, 769, 723, 987, 1184, 814, 725, 1101, 1258, 882, 815, 929, 801, 927, 1079, 841, 982],
      "WindowCenter": [358.0, 359.0, 357.0, 357.0, 357.0, 360.0, 361.0, 359.0, 356.0, 356.0, 358.0, 359.0, 356.0, 356.0, 358.0, 359.0, 356.0, 355.0, 357.0, 359.0, 356.0, 357.0, 358.0, 357.0, 356.0, 358.0, 358.0, 357.0, 355.0, 355.0, 357.0, 355.0, 356.0, 357.0, 357.0, 356.0, 355.0, 356.0, 357.0, 358.0, 356.0, 356.0, 357.0, 358.0, 356.0, 355.0, 356.0, 357.0, 358.0, 356.0, 356.0, 358.0, 358.0, 357.0, 358.0, 359.0, 359.0, 357.0, 356.0, 358.0, 359.0, 357.0, 357.0, 359.0, 358.0, 356.0, 357.0, 359.0, 356.0, 355.0, 358.0, 357.0, 355.0, 358.0, 358.0, 355.0, 354.0, 356.0, 358.0, 355.0, 355.0, 355.0, 357.0, 355.0, 354.0, 356.0, 357.0, 356.0, 356.0, 357.0, 358.0, 355.0, 356.0, 354.0, 358.0, 356.0, 356.0, 355.0, 358.0, 357.0, 357.0, 360.0, 357.0, 359.0, 359.0, 357.0, 358.0, 359.0, 354.0, 356.0, 358.0, 359.0, 355.0, 354.0, 357.0, 355.0, 357.0, 359.0, 356.0, 356.0, 358.0, 355.0, 356.0, 358.0, 356.0, 356.0, 358.0, 356.0, 356.0, 357.0, 356.0, 356.0, 356.0, 358.0, 357.0, 356.0, 356.0, 357.0, 356.0, 355.0, 358.0, 358.0, 357.0, 356.0, 356.0, 358.0, 356.0, 357.0, 358.0, 359.0, 356.0, 356.0, 358.0, 359.0, 356.0, 356.0, 359.0, 356.0, 356.0, 355.0, 358.0, 356.0, 358.0, 359.0, 360.0, 356.0, 354.0, 357.0, 358.0, 355.0, 356.0, 357.0, 357.0, 354.0, 356.0, 358.0, 356.0, 355.0, 354.0, 357.0, 356.0, 355.0, 354.0, 357.0, 357.0, 355.0, 356.0, 358.0, 355.0, 356.0, 358.0, 358.0, 356.0, 356.0, 357.0, 357.0, 356.0, 359.0, 356.0, 356.0, 360.0, 357.0, 356.0, 358.0, 356.0, 356.0, 358.0, 355.0, 357.0, 358.0, 355.0, 356.0, 355.0, 355.0, 358.0, 356.0, 356.0, 358.0, 355.0, 356.0, 359.0, 355.0, 355.0, 357.0, 355.0, 355.0, 357.0, 355.0, 357.0, 356.0, 355.0, 359.0, 355.0, 356.0, 356.0, 355.0, 359.0, 358.0, 355.0, 356.0, 358.0, 355.0, 355.0, 356.0, 354.0, 356.0, 358.0, 356.0, 357.0, 357.0, 355.0, 356.0, 358.0, 355.0, 356.0, 359.0, 356.0, 356.0, 355.0, 358.0, 355.0, 355.0, 355.0, 357.0, 355.0, 354.0, 357.0, 359.0, 356.0, 355.0, 358.0, 358.0, 355.0, 355.0, 356.0, 356.0, 357.0, 359.0, 356.0, 357.0],
      "WindowWidth": [767.0, 768.0, 764.0, 764.0, 764.0, 768.0, 770.0, 766.0, 763.0, 762.0, 765.0, 766.0, 762.0, 763.0, 765.0, 767.0, 763.0, 761.0, 764.0, 766.0, 762.0, 764.0, 765.0, 764.0, 762.0, 765.0, 765.0, 762.0, 761.0, 760.0, 764.0, 760.0, 762.0, 763.0, 764.0, 762.0, 760.0, 762.0, 764.0, 765.0, 763.0, 762.0, 764.0, 765.0, 762.0, 761.0, 762.0, 764.0, 765.0, 763.0, 762.0, 765.0, 765.0, 764.0, 765.0, 767.0, 766.0, 764.0, 763.0, 765.0, 768.0, 764.0, 764.0, 767.0, 765.0, 763.0, 764.0, 766.0, 763.0, 761.0, 765.0, 763.0, 761.0, 765.0, 765.0, 760.0, 760.0, 762.0, 765.0, 760.0, 761.0, 761.0, 764.0, 761.0, 759.0, 762.0, 764.0, 762.0, 762.0, 763.0, 765.0, 761.0, 762.0, 760.0, 765.0, 763.0, 763.0, 761.0, 765.0, 764.0, 764.0, 768.0, 764.0, 767.0, 767.0, 764.0, 765.0, 766.0, 760.0, 762.0, 765.0, 766.0, 761.0, 759.0, 763.0, 760.0, 763.0, 766.0, 763.0, 762.0, 764.0, 761.0, 762.0, 765.0, 762.0, 762.0, 765.0, 762.0, 762.0, 764.0, 762.0, 763.0, 762.0, 765.0, 764.0, 762.0, 762.0, 763.0, 762.0, 761.0, 765.0, 765.0, 764.0, 763.0, 762.0, 765.0, 762.0, 764.0, 766.0, 767.0, 763.0, 762.0, 765.0, 766.0, 763.0, 762.0, 767.0, 762.0, 762.0, 761.0, 764.0, 762.0, 765.0, 766.0, 768.0, 762.0, 759.0, 762.0, 764.0, 760.0, 761.0, 763.0, 763.0, 759.0, 761.0, 764.0, 762.0, 760.0, 758.0, 763.0, 762.0, 760.0, 759.0, 763.0, 763.0, 761.0, 762.0, 765.0, 761.0, 762.0, 766.0, 765.0, 762.0, 761.0, 763.0, 764.0, 762.0, 766.0, 762.0, 762.0, 768.0, 763.0, 763.0, 765.0, 762.0, 762.0, 765.0, 761.0, 763.0, 765.0, 760.0, 761.0, 761.0, 761.0, 765.0, 761.0, 762.0, 765.0, 761.0, 761.0, 766.0, 761.0, 760.0, 763.0, 761.0, 761.0, 764.0, 761.0, 763.0, 762.0, 761.0, 766.0, 761.0, 762.0, 762.0, 761.0, 766.0, 764.0, 760.0, 761.0, 764.0, 760.0, 760.0, 762.0, 760.0, 762.0, 765.0, 762.0, 763.0, 764.0, 761.0, 762.0, 766.0, 761.0, 762.0, 766.0, 762.0, 761.0, 760.0, 765.0, 761.0, 760.0, 760.0, 763.0, 761.0, 760.0, 764.0, 766.0, 762.0, 760.0, 765.0, 765.0, 761.0, 761.0, 762.0, 762.0, 764.0, 766.0, 762.0, 763.0]
    },
    "slices": {}
  }
}