{
  "AcquisitionMatrixPE": 96,
  "AcquisitionNumber": 1,
  "AcquisitionTime": "16:28:36.372500",
  "BandwidthPerPixelPhaseEncode": 18.939,
  "BaseResolution": 96,
  "BodyPartExamined": "BRAIN",
  "ConsistencyInfo": "N4_VE11C_LATEST_20160120",
  "ConversionSoftware": "dcm2niix",
  "ConversionSoftwareVersion": "v1.0.20170923 (OpenJPEG build) GCC6.3.0",
  "DerivedVendorReportedEchoSpacing": 0.000550011,
  "DeviceSerialNumber": "66112",
  "DwellTime": 2.3e-06,
  "EchoTime": 0.033,
  "EchoTrainLength": 96,
  "EffectiveEchoSpacing": 0.000550011,
  "FlipAngle": 64,
  "ImageType": [
    "ORIGINAL",
    "PRIMARY",
    "FMRI",
    "NONE",
    "ND",
    "NORM",
    "MOSAIC"
],
  "InstitutionAddress": "Maynard_3_Hanover_NH_US_03755",
  "InstitutionName": "Dartmouth_College_-_PBS",
  "MagneticFieldStrength": 3,
  "Manufacturer": "Siemens",
  "ManufacturersModelName": "Prisma",
  "Modality": "MR",
  "MultibandAccelerationFactor": 4,
  "PartialFourier": 1,
  "PercentPhaseFOV": 100,
  "PhaseEncodingDirection": "j-",
  "PhaseEncodingSteps": 96,
  "PhaseResolution": 1,
  "ProcedureStepDescription": "Gobbini_Matteo_1017_famface-angles",
  "ProtocolName": "func_run-03_task-str1back",
  "PulseSequenceDetails": "%SiemensSeq%_ep2d_bold",
  "ReceiveCoilActiveElements": "HEA;HEP",
  "ReceiveCoilName": "Head_32",
  "ReconMatrixPE": 96,
  "RepetitionTime": 1.25,
  "ScanOptions": "FS",
  "ScanningSequence": "EP",
  "SequenceName": "_epfid2d1_96",
  "SequenceVariant": "SK",
  "SeriesDescription": "func_run-03_task-str1back",
  "SliceTiming": [0.88, 0, 0.615, 0.0875, 0.7025, 0.1775, 0.79, 0.3525, 0.9675, 0.44, 1.055, 0.5275, 1.1425, 0.265, 0.88, 0, 0.615, 0.0875, 0.7025, 0.1775, 0.79, 0.3525, 0.9675, 0.44, 1.055, 0.5275, 1.1425, 0.265, 0.88, 0, 0.615, 0.0875, 0.7025, 0.1775, 0.79, 0.3525, 0.9675, 0.44, 1.055, 0.5275, 1.1425, 0.265, 0.88, 0, 0.615, 0.0875, 0.7025, 0.1775, 0.79, 0.3525, 0.9675, 0.44, 1.055, 0.5275, 1.1425, 0.265],
  "SoftwareVersions": "syngo_MR_E11",
  "StationName": "AWP66112",
  "TaskName": "str1back",
  "TotalReadoutTime": 0.0522511,
  "dcmmeta_affine": [
    [-2.4968180656433105, -0.09504520893096924, 0.08286155015230179, 126.8009033203125],
    [-0.09264481067657471, 2.4972221851348877, 0.0727931410074234, -110.70008087158203],
    [0.08553693443536758, -0.06962981820106506, 2.497565746307373, -79.99674224853516],
    [0.0, 0.0, 0.0, 1.0]
],
  "dcmmeta_reorient_transform": [
    [0.0, -1.0, 0.0, 95.0],
    [1.0, 0.0, 0.0, 0.0],
    [0.0, 0.0, 1.0, 0.0],
    [0.0, 0.0, 0.0, 1.0]
],
  "dcmmeta_shape": [96, 96, 56, 280],
  "dcmmeta_slice_dim": 2,
  "dcmmeta_version": 0.6,
  "global": {
    "const": {
      "AccessionNumber": "A000239",
      "AcquisitionMatrix": [96, 0, 0, 96],
      "AngioFlag": "N",
      "BitsAllocated": 16,
      "BitsStored": 12,
      "BodyPartExamined": "BRAIN",
      "Columns": 768,
      "EchoNumbers": 1,
      "EchoTime": 33.0,
      "EchoTrainLength": 96,
      "FlipAngle": 64.0,
      "HighBit": 11,
      "ImageOrientationPatient": [0.99872721977866, 0.03705792414142, 0.03421477358565, -0.0380180825564, 0.9988888304209, 0.02785192738566],
      "ImagePositionPatient": [-924.76728725537, -996.73128933664, -138.74760715121],
      "ImageType": [
        "ORIGINAL",
        "PRIMARY",
        "FMRI",
        "NONE",
        "ND",
        "NORM",
        "MOSAIC"
],
      "ImagedNucleus": "1H",
      "ImagingFrequency": 123.252392,
      "InPlanePhaseEncodingDirection": "COL",
      "MRAcquisitionType": "2D",
      "MagneticFieldStrength": 3.0,
      "Manufacturer": "SIEMENS",
      "ManufacturerModelName": "Prisma",
      "Modality": "MR",
      "NumberOfAverages": 1.0,
      "NumberOfPhaseEncodingSteps": 96,
      "PercentPhaseFieldOfView": 100.0,
      "PercentSampling": 100.0,
      "PerformedProcedureStepStartTime": "160145.008000",
      "PhotometricInterpretation": "MONOCHROME2",
      "PixelBandwidth": 2265.0,
      "PixelRepresentation": 0,
      "PixelSpacing": [2.5, 2.5],
      "PositionReferenceIndicator": "",
      "ProtocolName": "func_run-03_task-str1back",
      "RepetitionTime": 1250.0,
      "Rows": 768,
      "SAR": 0.05586939788993,
      "SamplesPerPixel": 1,
      "ScanOptions": "FS",
      "ScanningSequence": "EP",
      "SequenceName": "*epfid2d1_96",
      "SequenceVariant": "SK",
      "SeriesDescription": "func_run-03_task-str1back",
      "SeriesNumber": 22,
      "SeriesTime": "162838.105000",
      "SliceLocation": -78.93937051997,
      "SliceThickness": 2.5,
      "SmallestImagePixelValue": 0,
      "SoftwareVersions": "syngo MR E11",
      "SpacingBetweenSlices": 2.4999999678755,
      "SpecificCharacterSet": "ISO_IR 100",
      "StudyID": "1",
      "StudyTime": "160144.944000",
      "TransmitCoilName": "Body",
      "VariableFlipAngleFlag": "N",
      "WindowCenterWidthExplanation": "Algo1",
      "dBdt": 0.0},
    "slices": {}
  },
  "time": {
    "samples": {
      "AcquisitionNumber": [1, 2, 3, 4, 5, 6, 7, 8, 9, 10, 11, 12, 13, 14, 15, 16, 17, 18, 19, 20, 21, 22, 23, 24, 25, 26, 27, 28, 29, 30, 31, 32, 33, 34, 35, 36, 37, 38, 39, 40, 41, 42, 43, 44, 45, 46, 47, 48, 49, 50, 51, 52, 53, 54, 55, 56, 57, 58, 59, 60, 61, 62, 63, 64, 65, 66, 67, 68, 69, 70, 71, 72, 73, 74, 75, 76, 77, 78, 79, 80, 81, 82, 83, 84, 85, 86, 87, 88, 89, 90, 91, 92, 93, 94, 95, 96, 97, 98, 99, 100, 101, 102, 103, 104, 105, 106, 107, 108, 109, 110, 111, 112, 113, 114, 115, 116, 117, 118, 119, 120, 121, 122, 123, 124, 125, 126, 127, 128, 129, 130, 131, 132, 133, 134, 135, 136, 137, 138, 139, 140, 141, 142, 143, 144, 145, 146, 147, 148, 149, 150, 151, 152, 153, 154, 155, 156, 157, 158, 159, 160, 161, 162, 163, 164, 165, 166, 167, 168, 169, 170, 171, 172, 173, 174, 175, 176, 177, 178, 179, 180, 181, 182, 183, 184, 185, 186, 187, 188, 189, 190, 191, 192, 193, 194, 195, 196, 197, 198, 199, 200, 201, 202, 203, 204, 205, 206, 207, 208, 209, 210, 211, 212, 213, 214, 215, 216, 217, 218, 219, 220, 221, 222, 223, 224, 225, 226, 227, 228, 229, 230, 231, 232, 233, 234, 235, 236, 237, 238, 239, 240, 241, 242, 243, 244, 245, 246, 247, 248, 249, 250, 251, 252, 253, 254, 255, 256, 257, 258, 259, 260, 261, 262, 263, 264, 265, 266, 267, 268, 269, 270, 271, 272, 273, 274, 275, 276, 277, 278, 279, 280],
      "AcquisitionTime": ["162836.372500", "162837.622500", "162838.872500", "162840.122500", "162841.372500", "162842.622500", "162843.872500", "162845.122500", "162846.372500", "162847.622500", "162848.872500", "162850.122500", "162851.372500", "162852.622500", "162853.872500", "162855.122500", "162856.372500", "162857.622500", "162858.872500", "162900.122500", "162901.372500", "162902.622500", "162903.872500", "162905.122500", "162906.372500", "162907.622500", "162908.872500", "162910.122500", "162911.372500", "162912.622500", "162913.872500", "162915.122500", "162916.372500", "162917.622500", "162918.872500", "162920.122500", "162921.372500", "162922.622500", "162923.872500", "162925.122500", "162926.372500", "162927.622500", "162928.872500", "162930.122500", "162931.372500", "162932.622500", "162933.872500", "162935.122500", "162936.372500", "162937.622500", "162938.872500", "162940.122500", "162941.372500", "162942.622500", "162943.872500", "162945.122500", "162946.372500", "162947.622500", "162948.872500", "162950.122500", "162951.372500", "162952.622500", "162953.872500", "162955.122500", "162956.372500", "162957.622500", "162958.872500", "163000.122500", "163001.372500", "163002.622500", "163003.872500", "163005.122500", "163006.372500", "163007.622500", "163008.872500", "163010.122500", "163011.372500", "163012.622500", "163013.872500", "163015.122500", "163016.372500", "163017.622500", "163018.872500", "163020.122500", "163021.372500", "163022.622500", "163023.872500", "163025.122500", "163026.372500", "163027.622500", "163028.872500", "163030.122500", "163031.372500", "163032.622500", "163033.872500", "163035.122500", "163036.372500", "163037.622500", "163038.872500", "163040.122500", "163041.372500", "163042.622500", "163043.872500", "163045.122500", "163046.372500", "163047.622500", "163048.872500", "163050.122500", "163051.372500", "163052.622500", "163053.872500", "163055.122500", "163056.372500", "163057.622500", "163058.872500", "163100.122500", "163101.372500", "163102.622500", "163103.872500", "163105.122500", "163106.372500", "163107.622500", "163108.872500", "163110.122500", "163111.372500", "163112.622500", "163113.872500", "163115.122500", "163116.372500", "163117.622500", "163118.872500", "163120.122500", "163121.372500", "163122.622500", "163123.872500", "163125.122500", "163126.372500", "163127.622500", "163128.872500", "163130.122500", "163131.372500", "163132.622500", "163133.872500", "163135.122500", "163136.372500", "163137.622500", "163138.872500", "163140.122500", "163141.372500", "163142.622500", "163143.872500", "163145.122500", "163146.372500", "163147.622500", "163148.872500", "163150.122500", "163151.372500", "163152.622500", "163153.872500", "163155.122500", "163156.372500", "163157.622500", "163158.872500", "163200.122500", "163201.372500", "163202.622500", "163203.872500", "163205.122500", "163206.372500", "163207.622500", "163208.872500", "163210.122500", "163211.372500", "163212.622500", "163213.872500", "163215.122500", "163216.372500", "163217.622500", "163218.872500", "163220.122500", "163221.372500", "163222.622500", "163223.872500", "163225.122500", "163226.372500", "163227.622500", "163228.872500", "163230.122500", "163231.372500", "163232.622500", "163233.872500", "163235.122500", "163236.372500", "163237.622500", "163238.872500", "163240.122500", "163241.372500", "163242.622500", "163243.872500", "163245.122500", "163246.372500", "163247.622500", "163248.872500", "163250.122500", "163251.372500", "163252.622500", "163253.872500", "163255.122500", "163256.372500", "163257.622500", "163258.872500", "163300.122500", "163301.372500", "163302.622500", "163303.872500", "163305.122500", "163306.372500", "163307.622500", "163308.872500", "163310.122500", "163311.372500", "163312.622500", "163313.872500", "163315.122500", "163316.372500", "163317.622500", "163318.872500", "163320.122500", "163321.372500", "163322.622500", "163323.872500", "163325.122500", "163326.372500", "163327.622500", "163328.872500", "163330.122500", "163331.372500", "163332.622500", "163333.872500", "163335.122500", "163336.372500", "163337.622500", "163338.872500", "163340.122500", "163341.372500", "163342.622500", "163343.872500", "163345.122500", "163346.372500", "163347.622500", "163348.872500", "163350.122500", "163351.372500", "163352.622500", "163353.872500", "163355.122500", "163356.372500", "163357.622500", "163358.872500", "163400.122500", "163401.372500", "163402.622500", "163403.872500", "163405.122500", "163406.372500", "163407.622500", "163408.872500", "163410.122500", "163411.372500", "163412.622500", "163413.872500", "163415.122500", "163416.372500", "163417.622500", "163418.872500", "163420.122500", "163421.372500", "163422.622500", "163423.872500", "163425.122500"],
      "ContentTime": ["162838.109000", "162839.198000", "162840.437000", "162841.693000", "162842.951000", "162844.159000", "162845.400000", "162846.648000", "162847.895000", "162849.180000", "162850.403000", "162851.694000", "162852.947000", "162854.198000", "162855.415000", "162856.645000", "162857.889000", "162859.127000", "162900.408000", "162901.689000", "162902.899000", "162904.202000", "162905.409000", "162906.620000", "162907.905000", "162909.154000", "162910.422000", "162911.643000", "162912.904000", "162914.179000", "162915.450000", "162916.671000", "162917.912000", "162919.139000", "162920.407000", "162921.707000", "162922.920000", "162924.165000", "162925.447000", "162926.652000", "162927.928000", "162929.147000", "162930.411000", "162931.630000", "162932.905000", "162934.131000", "162935.394000", "162936.670000", "162937.911000", "162939.155000", "162940.412000", "162941.680000", "162942.945000", "162944.175000", "162945.417000", "162946.732000", "162947.916000", "162949.152000", "162950.435000", "162951.633000", "162952.940000", "162954.153000", "162955.441000", "162956.645000", "162957.904000", "162959.172000", "163000.442000", "163001.659000", "163002.907000", "163004.174000", "163005.412000", "163006.688000", "163007.907000", "163009.140000", "163010.468000", "163011.678000", "163012.876000", "163014.147000", "163015.409000", "163016.661000", "163017.904000", "163019.139000", "163020.408000", "163021.655000", "163022.951000", "163024.141000", "163025.387000", "163026.636000", "163027.901000", "163029.149000", "163030.448000", "163031.667000", "163032.919000", "163034.162000", "163035.397000", "163036.620000", "163037.924000", "163039.165000", "163040.394000", "163041.677000", "163042.863000", "163044.179000", "163045.391000", "163046.670000", "163047.892000", "163049.165000", "163050.406000", "163051.650000", "163052.926000", "163054.150000", "163055.446000", "163056.663000", "163057.891000", "163059.194000", "163100.399000", "163101.683000", "163102.877000", "163104.185000", "163105.393000", "163106.629000", "163107.960000", "163109.158000", "163110.466000", "163111.693000", "163112.939000", "163114.185000", "163115.408000", "163116.762000", "163117.913000", "163119.202000", "163120.423000", "163121.672000", "163122.903000", "163124.220000", "163125.433000", "163126.666000", "163127.902000", "163129.158000", "163130.425000", "163131.642000", "163132.890000", "163134.194000", "163135.394000", "163136.653000", "163137.910000", "163139.146000", "163140.422000", "163141.714000", "163142.924000", "163144.182000", "163145.388000", "163146.671000", "163147.872000", "163149.157000", "163150.376000", "163151.652000", "163152.952000", "163154.182000", "163155.504000", "163156.671000", "163157.950000", "163159.157000", "163200.432000", "163201.714000", "163202.920000", "163204.251000", "163205.418000", "163206.683000", "163207.909000", "163209.161000", "163210.422000", "163211.650000", "163212.902000", "163214.239000", "163215.391000", "163216.671000", "163217.904000", "163219.175000", "163220.427000", "163221.649000", "163222.908000", "163224.145000", "163225.444000", "163226.689000", "163227.922000", "163229.170000", "163230.428000", "163231.675000", "163232.889000", "163234.251000", "163235.397000", "163236.699000", "163237.946000", "163239.195000", "163240.444000", "163241.682000", "163242.939000", "163244.167000", "163245.478000", "163246.664000", "163247.957000", "163249.180000", "163250.410000", "163251.649000", "163252.930000", "163254.181000", "163255.404000", "163256.656000", "163257.959000", "163259.162000", "163300.418000", "163301.679000", "163302.913000", "163304.171000", "163305.381000", "163306.657000", "163307.989000", "163309.157000", "163310.391000", "163311.669000", "163312.902000", "163314.155000", "163315.464000", "163316.657000", "163317.909000", "163319.168000", "163320.412000", "163321.657000", "163322.917000", "163324.153000", "163325.418000", "163326.649000", "163327.902000", "163329.159000", "163330.431000", "163331.642000", "163332.907000", "163334.165000", "163335.451000", "163336.677000", "163337.933000", "163339.181000", "163340.446000", "163341.680000", "163342.903000", "163344.201000", "163345.453000", "163346.651000", "163347.904000", "163349.176000", "163350.406000", "163351.689000", "163352.909000", "163354.227000", "163355.400000", "163356.644000", "163357.887000", "163359.144000", "163400.421000", "163401.656000", "163402.913000", "163404.163000", "163405.413000", "163406.674000", "163407.928000", "163409.145000", "163410.419000", "163411.672000", "163412.894000", "163414.193000", "163415.428000", "163416.687000", "163417.913000", "163419.198000", "163420.402000", "163421.677000", "163422.955000", "163424.190000", "163425.420000", "163426.763000"],
      "InstanceCreationTime": ["162838.109000", "162839.198000", "162840.437000", "162841.693000", "162842.951000", "162844.159000", "162845.400000", "162846.648000", "162847.895000", "162849.180000", "162850.403000", "162851.694000", "162852.947000", "162854.198000", "162855.415000", "162856.645000", "162857.889000", "162859.127000", "162900.408000", "162901.689000", "162902.899000", "162904.202000", "162905.409000", "162906.620000", "162907.905000", "162909.154000", "162910.422000", "162911.643000", "162912.904000", "162914.179000", "162915.450000", "162916.671000", "162917.912000", "162919.139000", "162920.407000", "162921.707000", "162922.920000", "162924.165000", "162925.447000", "162926.652000", "162927.928000", "162929.147000", "162930.411000", "162931.630000", "162932.905000", "162934.131000", "162935.394000", "162936.670000", "162937.911000", "162939.155000", "162940.412000", "162941.680000", "162942.945000", "162944.175000", "162945.417000", "162946.732000", "162947.916000", "162949.152000", "162950.435000", "162951.633000", "162952.940000", "162954.153000", "162955.441000", "162956.645000", "162957.904000", "162959.172000", "163000.442000", "163001.659000", "163002.907000", "163004.174000", "163005.412000", "163006.688000", "163007.907000", "163009.140000", "163010.468000", "163011.678000", "163012.876000", "163014.147000", "163015.409000", "163016.661000", "163017.904000", "163019.139000", "163020.408000", "163021.655000", "163022.951000", "163024.141000", "163025.387000", "163026.636000", "163027.901000", "163029.149000", "163030.448000", "163031.667000", "163032.919000", "163034.162000", "163035.397000", "163036.620000", "163037.924000", "163039.165000", "163040.394000", "163041.677000", "163042.863000", "163044.179000", "163045.391000", "163046.670000", "163047.892000", "163049.165000", "163050.406000", "163051.650000", "163052.926000", "163054.150000", "163055.446000", "163056.663000", "163057.891000", "163059.194000", "163100.399000", "163101.683000", "163102.877000", "163104.185000", "163105.393000", "163106.629000", "163107.960000", "163109.158000", "163110.466000", "163111.693000", "163112.939000", "163114.185000", "163115.408000", "163116.762000", "163117.913000", "163119.202000", "163120.423000", "163121.672000", "163122.903000", "163124.220000", "163125.433000", "163126.666000", "163127.902000", "163129.158000", "163130.425000", "163131.642000", "163132.890000", "163134.194000", "163135.394000", "163136.653000", "163137.910000", "163139.146000", "163140.422000", "163141.714000", "163142.924000", "163144.182000", "163145.388000", "163146.671000", "163147.872000", "163149.157000", "163150.376000", "163151.652000", "163152.952000", "163154.182000", "163155.504000", "163156.671000", "163157.950000", "163159.157000", "163200.432000", "163201.714000", "163202.920000", "163204.251000", "163205.418000", "163206.683000", "163207.909000", "163209.161000", "163210.422000", "163211.650000", "163212.902000", "163214.239000", "163215.391000", "163216.671000", "163217.904000", "163219.175000", "163220.427000", "163221.649000", "163222.908000", "163224.145000", "163225.444000", "163226.689000", "163227.922000", "163229.170000", "163230.428000", "163231.675000", "163232.889000", "163234.251000", "163235.397000", "163236.699000", "163237.946000", "163239.195000", "163240.444000", "163241.682000", "163242.939000", "163244.167000", "163245.478000", "163246.664000", "163247.957000", "163249.180000", "163250.410000", "163251.649000", "163252.930000", "163254.181000", "163255.404000", "163256.656000", "163257.959000", "163259.162000", "163300.418000", "163301.679000", "163302.913000", "163304.171000", "163305.381000", "163306.657000", "163307.989000", "163309.157000", "163310.391000", "163311.669000", "163312.902000", "163314.155000", "163315.464000", "163316.657000", "163317.909000", "163319.168000", "163320.412000", "163321.657000", "163322.917000", "163324.153000", "163325.418000", "163326.649000", "163327.902000", "163329.159000", "163330.431000", "163331.642000", "163332.907000", "163334.165000", "163335.451000", "163336.677000", "163337.933000", "163339.181000", "163340.446000", "163341.680000", "163342.903000", "163344.201000", "163345.453000", "163346.651000", "163347.904000", "163349.176000", "163350.406000", "163351.689000", "163352.909000", "163354.227000", "163355.400000", "163356.644000", "163357.887000", "163359.144000", "163400.421000", "163401.656000", "163402.913000", "163404.163000", "163405.413000", "163406.674000", "163407.928000", "163409.145000", "163410.419000", "163411.672000", "163412.894000", "163414.193000", "163415.428000", "163416.687000", "163417.913000", "163419.198000", "163420.402000", "163421.677000", "163422.955000", "163424.190000", "163425.420000", "163426.763000"],
      "InstanceNumber": [1, 2, 3, 4, 5, 6, 7, 8, 9, 10, 11, 12, 13, 14, 15, 16, 17, 18, 19, 20, 21, 22, 23, 24, 25, 26, 27, 28, 29, 30, 31, 32, 33, 34, 35, 36, 37, 38, 39, 40, 41, 42, 43, 44, 45, 46, 47, 48, 49, 50, 51, 52, 53, 54, 55, 56, 57, 58, 59, 60, 61, 62, 63, 64, 65, 66, 67, 68, 69, 70, 71, 72, 73, 74, 75, 76, 77, 78, 79, 80, 81, 82, 83, 84, 85, 86, 87, 88, 89, 90, 91, 92, 93, 94, 95, 96, 97, 98, 99, 100, 101, 102, 103, 104, 105, 106, 107, 108, 109, 110, 111, 112, 113, 114, 115, 116, 117, 118, 119, 120, 121, 122, 123, 124, 125, 126, 127, 128, 129, 130, 131, 132, 133, 134, 135, 136, 137, 138, 139, 140, 141, 142, 143, 144, 145, 146, 147, 148, 149, 150, 151, 152, 153, 154, 155, 156, 157, 158, 159, 160, 161, 162, 163, 164, 165, 166, 167, 168, 169, 170, 171, 172, 173, 174, 175, 176, 177, 178, 179, 180, 181, 182, 183, 184, 185, 186, 187, 188, 189, 190, 191, 192, 193, 194, 195, 196, 197, 198, 199, 200, 201, 202, 203, 204, 205, 206, 207, 208, 209, 210, 211, 212, 213, 214, 215, 216, 217, 218, 219, 220, 221, 222, 223, 224, 225, 226, 227, 228, 229, 230, 231, 232, 233, 234, 235, 236, 237, 238, 239, 240, 241, 242, 243, 244, 245, 246, 247, 248, 249, 250, 251, 252, 253, 254, 255, 256, 257, 258, 259, 260, 261, 262, 263, 264, 265, 266, 267, 268, 269, 270, 271, 272, 273, 274, 275, 276, 277, 278, 279, 280],
      "LargestImagePixelValue": [1096, 1029, 1117, 1034, 1015, 1171, 1089, 1124, 1100, 1056, 1093, 1002, 1033, 1021, 1049, 1068, 1093, 1098, 1089, 1108, 1030, 1139, 1092, 1103, 1430, 1112, 1037, 975, 984, 1065, 1045, 1075, 1101, 1062, 1024, 1117, 956, 1028, 1029, 1039, 1042, 1000, 899, 1033, 944, 1089, 1012, 982, 951, 985, 1262, 1041, 1198, 1408, 1094, 1150, 944, 1070, 1110, 1078, 1047, 973, 1074, 1164, 1077, 1061, 999, 971, 966, 959, 1087, 1177, 1034, 962, 942, 991, 1008, 998, 1117, 1083, 1049, 1087, 1041, 1223, 1159, 1153, 1323, 1023, 970, 1010, 1049, 1096, 1084, 1186, 1127, 1033, 1051, 1014, 1011, 999, 903, 1075, 1063, 1026, 1097, 1055, 1107, 1136, 1125, 1150, 1083, 1037, 1050, 1021, 1016, 920, 1016, 1202, 937, 1036, 974, 1004, 1298, 1065, 1107, 1230, 1083, 1044, 1088, 1059, 1056, 881, 1010, 944, 905, 950, 873, 1068, 1088, 1279, 1207, 1078, 1104, 952, 983, 1053, 1017, 1080, 1405, 1049, 1075, 990, 1038, 1252, 1085, 1171, 1232, 1065, 1255, 1243, 984, 937, 1018, 1091, 1026, 1259, 1143, 1130, 1039, 912, 1067, 1014, 980, 989, 885, 993, 1030, 1078, 1181, 1098, 1063, 1026, 890, 1017, 1036, 1281, 1266, 1088, 978, 929, 1009, 959, 982, 1120, 924, 1026, 995, 1064, 1168, 1091, 1193, 1191, 981, 1002, 872, 1006, 1174, 1014, 982, 906, 972, 1080, 1033, 1077, 965, 1097, 1122, 1068, 1288, 1170, 1072, 1199, 955, 1058, 952, 1013, 1192, 1067, 1034, 985, 937, 990, 973, 1047, 1086, 1049, 1123, 1078, 1030, 1076, 911, 1030, 1027, 998, 1074, 977, 1021, 1118, 1024, 1179, 1006, 1146, 1291, 1037, 916, 983, 983, 997, 1011, 1091, 1117, 1182, 1247, 1067, 1007, 1000, 1030, 1015, 934, 1003, 1004, 1028, 1077, 969, 1023, 934, 951, 1062, 1022, 1096],
      "WindowCenter": [377.0, 376.0, 376.0, 375.0, 376.0, 376.0, 376.0, 376.0, 376.0, 376.0, 376.0, 375.0, 376.0, 376.0, 377.0, 377.0, 377.0, 377.0, 376.0, 376.0, 375.0, 376.0, 376.0, 376.0, 377.0, 375.0, 375.0, 375.0, 376.0, 376.0, 375.0, 375.0, 376.0, 375.0, 376.0, 376.0, 375.0, 375.0, 375.0, 375.0, 375.0, 375.0, 374.0, 375.0, 375.0, 376.0, 376.0, 376.0, 376.0, 375.0, 377.0, 375.0, 376.0, 377.0, 376.0, 376.0, 374.0, 376.0, 376.0, 376.0, 376.0, 374.0, 375.0, 376.0, 376.0, 376.0, 375.0, 375.0, 375.0, 375.0, 376.0, 377.0, 376.0, 375.0, 375.0, 375.0, 375.0, 376.0, 377.0, 377.0, 377.0, 377.0, 377.0, 377.0, 376.0, 376.0, 377.0, 375.0, 375.0, 376.0, 375.0, 375.0, 375.0, 376.0, 376.0, 375.0, 376.0, 375.0, 375.0, 375.0, 374.0, 376.0, 376.0, 376.0, 377.0, 377.0, 377.0, 377.0, 376.0, 377.0, 376.0, 376.0, 376.0, 376.0, 376.0, 374.0, 376.0, 376.0, 375.0, 376.0, 375.0, 375.0, 378.0, 375.0, 376.0, 377.0, 376.0, 375.0, 375.0, 375.0, 375.0, 373.0, 375.0, 374.0, 374.0, 375.0, 375.0, 377.0, 377.0, 378.0, 376.0, 375.0, 376.0, 375.0, 375.0, 376.0, 375.0, 376.0, 378.0, 376.0, 376.0, 375.0, 375.0, 377.0, 376.0, 376.0, 377.0, 375.0, 376.0, 376.0, 375.0, 375.0, 377.0, 376.0, 375.0, 376.0, 374.0, 374.0, 374.0, 373.0, 375.0, 374.0, 375.0, 375.0, 374.0, 375.0, 376.0, 376.0, 376.0, 376.0, 376.0, 376.0, 376.0, 377.0, 377.0, 378.0, 377.0, 376.0, 375.0, 375.0, 375.0, 375.0, 375.0, 376.0, 375.0, 376.0, 376.0, 377.0, 377.0, 376.0, 376.0, 376.0, 374.0, 375.0, 374.0, 376.0, 376.0, 376.0, 376.0, 375.0, 376.0, 377.0, 377.0, 377.0, 375.0, 377.0, 377.0, 377.0, 378.0, 377.0, 376.0, 376.0, 375.0, 376.0, 375.0, 375.0, 376.0, 375.0, 376.0, 375.0, 375.0, 376.0, 375.0, 376.0, 376.0, 376.0, 377.0, 377.0, 376.0, 376.0, 375.0, 375.0, 375.0, 375.0, 376.0, 376.0, 377.0, 377.0, 376.0, 376.0, 375.0, 376.0, 378.0, 376.0, 375.0, 375.0, 375.0, 375.0, 376.0, 377.0, 377.0, 377.0, 377.0, 376.0, 375.0, 375.0, 375.0, 375.0, 375.0, 375.0, 375.0, 376.0, 376.0, 375.0, 375.0, 375.0, 375.0, 377.0, 376.0, 377.0],
      "WindowWidth": [803.0, 799.0, 800.0, 798.0, 799.0, 800.0, 799.0, 800.0, 799.0, 799.0, 800.0, 798.0, 799.0, 800.0, 801.0, 801.0, 800.0, 800.0, 799.0, 799.0, 798.0, 800.0, 799.0, 798.0, 801.0, 797.0, 798.0, 798.0, 799.0, 799.0, 797.0, 798.0, 799.0, 798.0, 799.0, 800.0, 797.0, 798.0, 797.0, 798.0, 798.0, 797.0, 796.0, 798.0, 797.0, 800.0, 799.0, 799.0, 799.0, 798.0, 800.0, 798.0, 799.0, 801.0, 798.0, 798.0, 796.0, 798.0, 800.0, 799.0, 799.0, 796.0, 798.0, 798.0, 799.0, 798.0, 798.0, 798.0, 797.0, 797.0, 799.0, 800.0, 799.0, 798.0, 797.0, 798.0, 798.0, 799.0, 801.0, 800.0, 801.0, 800.0, 800.0, 801.0, 800.0, 799.0, 800.0, 798.0, 799.0, 799.0, 798.0, 798.0, 797.0, 799.0, 798.0, 797.0, 799.0, 797.0, 798.0, 797.0, 796.0, 799.0, 799.0, 799.0, 800.0, 800.0, 800.0, 800.0, 800.0, 800.0, 799.0, 799.0, 799.0, 799.0, 799.0, 796.0, 799.0, 800.0, 797.0, 799.0, 798.0, 798.0, 801.0, 798.0, 799.0, 800.0, 799.0, 798.0, 798.0, 798.0, 798.0, 795.0, 797.0, 796.0, 796.0, 797.0, 798.0, 801.0, 800.0, 802.0, 800.0, 798.0, 798.0, 797.0, 798.0, 799.0, 798.0, 800.0, 802.0, 799.0, 799.0, 797.0, 798.0, 800.0, 798.0, 799.0, 800.0, 798.0, 799.0, 798.0, 798.0, 799.0, 800.0, 799.0, 798.0, 798.0, 796.0, 795.0, 795.0, 794.0, 797.0, 796.0, 796.0, 798.0, 796.0, 798.0, 799.0, 799.0, 800.0, 799.0, 799.0, 799.0, 799.0, 801.0, 801.0, 802.0, 801.0, 799.0, 798.0, 798.0, 798.0, 798.0, 798.0, 800.0, 798.0, 799.0, 799.0, 800.0, 800.0, 799.0, 799.0, 798.0, 796.0, 797.0, 796.0, 799.0, 800.0, 799.0, 799.0, 798.0, 800.0, 800.0, 801.0, 801.0, 798.0, 800.0, 800.0, 800.0, 802.0, 801.0, 800.0, 800.0, 797.0, 798.0, 797.0, 798.0, 799.0, 798.0, 799.0, 798.0, 798.0, 799.0, 798.0, 799.0, 799.0, 799.0, 800.0, 800.0, 799.0, 800.0, 798.0, 798.0, 798.0, 798.0, 800.0, 800.0, 800.0, 800.0, 800.0, 800.0, 797.0, 799.0, 801.0, 799.0, 798.0, 798.0, 799.0, 798.0, 799.0, 800.0, 800.0, 801.0, 801.0, 799.0, 798.0, 797.0, 798.0, 798.0, 797.0, 798.0, 798.0, 799.0, 799.0, 797.0, 798.0, 797.0, 798.0, 800.0, 799.0, 800.0]
    },
    "slices": {}
  }
}