{
  "AcquisitionMatrixPE": 96,
  "AcquisitionNumber": 1,
  "AcquisitionTime": "17:21:38.412500",
  "BandwidthPerPixelPhaseEncode": 18.939,
  "BaseResolution": 96,
  "BodyPartExamined": "BRAIN",
  "ConsistencyInfo": "N4_VE11C_LATEST_20160120",
  "ConversionSoftware": "dcm2niix",
  "ConversionSoftwareVersion": "v1.0.20170923 (OpenJPEG build) GCC6.3.0",
  "DerivedVendorReportedEchoSpacing": 0.000550011,
  "DeviceSerialNumber": "66112",
  "DwellTime": 2.3e-06,
  "EchoTime": 0.033,
  "EchoTrainLength": 96,
  "EffectiveEchoSpacing": 0.000550011,
  "FlipAngle": 64,
  "ImageType": [
    "ORIGINAL",
    "PRIMARY",
    "FMRI",
    "NONE",
    "ND",
    "NORM",
    "MOSAIC"
],
  "InstitutionAddress": "Maynard_3_Hanover_NH_US_03755",
  "InstitutionName": "Dartmouth_College_-_PBS",
  "MagneticFieldStrength": 3,
  "Manufacturer": "Siemens",
  "ManufacturersModelName": "Prisma",
  "Modality": "MR",
  "MultibandAccelerationFactor": 4,
  "PartialFourier": 1,
  "PercentPhaseFOV": 100,
  "PhaseEncodingDirection": "j-",
  "PhaseEncodingSteps": 96,
  "PhaseResolution": 1,
  "ProcedureStepDescription": "Gobbini_Matteo_1017_famface-angles",
  "ProtocolName": "func_run-11_task-str1back",
  "PulseSequenceDetails": "%SiemensSeq%_ep2d_bold",
  "ReceiveCoilActiveElements": "HEA;HEP",
  "ReceiveCoilName": "Head_32",
  "ReconMatrixPE": 96,
  "RepetitionTime": 1.25,
  "ScanOptions": "FS",
  "ScanningSequence": "EP",
  "SequenceName": "_epfid2d1_96",
  "SequenceVariant": "SK",
  "SeriesDescription": "func_run-11_task-str1back",
  "SliceTiming": [0.8775, 0, 0.615, 0.0875, 0.7025, 0.175, 0.79, 0.35, 0.965, 0.4375, 1.0525, 0.5275, 1.1425, 0.2625, 0.8775, 0, 0.615, 0.0875, 0.7025, 0.175, 0.79, 0.35, 0.965, 0.4375, 1.0525, 0.5275, 1.1425, 0.2625, 0.8775, 0, 0.615, 0.0875, 0.7025, 0.175, 0.79, 0.35, 0.965, 0.4375, 1.0525, 0.5275, 1.1425, 0.2625, 0.8775, 0, 0.615, 0.0875, 0.7025, 0.175, 0.79, 0.35, 0.965, 0.4375, 1.0525, 0.5275, 1.1425, 0.2625],
  "SoftwareVersions": "syngo_MR_E11",
  "StationName": "AWP66112",
  "TaskName": "str1back",
  "TotalReadoutTime": 0.0522511,
  "dcmmeta_affine": [
    [-2.4968180656433105, -0.09504520893096924, 0.08286155015230179, 126.8009033203125],
    [-0.09264481067657471, 2.4972221851348877, 0.0727931410074234, -110.70008087158203],
    [0.08553693443536758, -0.06962981820106506, 2.497565746307373, -79.99674224853516],
    [0.0, 0.0, 0.0, 1.0]
],
  "dcmmeta_reorient_transform": [
    [0.0, -1.0, 0.0, 95.0],
    [1.0, 0.0, 0.0, 0.0],
    [0.0, 0.0, 1.0, 0.0],
    [0.0, 0.0, 0.0, 1.0]
],
  "dcmmeta_shape": [96, 96, 56, 280],
  "dcmmeta_slice_dim": 2,
  "dcmmeta_version": 0.6,
  "global": {
    "const": {
      "AccessionNumber": "A000239",
      "AcquisitionMatrix": [96, 0, 0, 96],
      "AngioFlag": "N",
      "BitsAllocated": 16,
      "BitsStored": 12,
      "BodyPartExamined": "BRAIN",
      "Columns": 768,
      "EchoNumbers": 1,
      "EchoTime": 33.0,
      "EchoTrainLength": 96,
      "FlipAngle": 64.0,
      "HighBit": 11,
      "ImageOrientationPatient": [0.99872721977866, 0.03705792414142, 0.03421477358565, -0.0380180825564, 0.9988888304209, 0.02785192738566],
      "ImagePositionPatient": [-924.76728725537, -996.73128933664, -138.74760715121],
      "ImageType": [
        "ORIGINAL",
        "PRIMARY",
        "FMRI",
        "NONE",
        "ND",
        "NORM",
        "MOSAIC"
],
      "ImagedNucleus": "1H",
      "ImagingFrequency": 123.2524,
      "InPlanePhaseEncodingDirection": "COL",
      "MRAcquisitionType": "2D",
      "MagneticFieldStrength": 3.0,
      "Manufacturer": "SIEMENS",
      "ManufacturerModelName": "Prisma",
      "Modality": "MR",
      "NumberOfAverages": 1.0,
      "NumberOfPhaseEncodingSteps": 96,
      "PercentPhaseFieldOfView": 100.0,
      "PercentSampling": 100.0,
      "PerformedProcedureStepStartTime": "160145.008000",
      "PhotometricInterpretation": "MONOCHROME2",
      "PixelBandwidth": 2265.0,
      "PixelRepresentation": 0,
      "PixelSpacing": [2.5, 2.5],
      "PositionReferenceIndicator": "",
      "ProtocolName": "func_run-11_task-str1back",
      "RepetitionTime": 1250.0,
      "Rows": 768,
      "SAR": 0.05586939788993,
      "SamplesPerPixel": 1,
      "ScanOptions": "FS",
      "ScanningSequence": "EP",
      "SequenceName": "*epfid2d1_96",
      "SequenceVariant": "SK",
      "SeriesDescription": "func_run-11_task-str1back",
      "SeriesNumber": 78,
      "SeriesTime": "172139.531000",
      "SliceLocation": -78.93937051997,
      "SliceThickness": 2.5,
      "SmallestImagePixelValue": 0,
      "SoftwareVersions": "syngo MR E11",
      "SpacingBetweenSlices": 2.4999999678755,
      "SpecificCharacterSet": "ISO_IR 100",
      "StudyID": "1",
      "StudyTime": "160144.944000",
      "TransmitCoilName": "Body",
      "VariableFlipAngleFlag": "N",
      "WindowCenterWidthExplanation": "Algo1",
      "dBdt": 0.0},
    "slices": {}
  },
  "time": {
    "samples": {
      "AcquisitionNumber": [1, 2, 3, 4, 5, 6, 7, 8, 9, 10, 11, 12, 13, 14, 15, 16, 17, 18, 19, 20, 21, 22, 23, 24, 25, 26, 27, 28, 29, 30, 31, 32, 33, 34, 35, 36, 37, 38, 39, 40, 41, 42, 43, 44, 45, 46, 47, 48, 49, 50, 51, 52, 53, 54, 55, 56, 57, 58, 59, 60, 61, 62, 63, 64, 65, 66, 67, 68, 69, 70, 71, 72, 73, 74, 75, 76, 77, 78, 79, 80, 81, 82, 83, 84, 85, 86, 87, 88, 89, 90, 91, 92, 93, 94, 95, 96, 97, 98, 99, 100, 101, 102, 103, 104, 105, 106, 107, 108, 109, 110, 111, 112, 113, 114, 115, 116, 117, 118, 119, 120, 121, 122, 123, 124, 125, 126, 127, 128, 129, 130, 131, 132, 133, 134, 135, 136, 137, 138, 139, 140, 141, 142, 143, 144, 145, 146, 147, 148, 149, 150, 151, 152, 153, 154, 155, 156, 157, 158, 159, 160, 161, 162, 163, 164, 165, 166, 167, 168, 169, 170, 171, 172, 173, 174, 175, 176, 177, 178, 179, 180, 181, 182, 183, 184, 185, 186, 187, 188, 189, 190, 191, 192, 193, 194, 195, 196, 197, 198, 199, 200, 201, 202, 203, 204, 205, 206, 207, 208, 209, 210, 211, 212, 213, 214, 215, 216, 217, 218, 219, 220, 221, 222, 223, 224, 225, 226, 227, 228, 229, 230, 231, 232, 233, 234, 235, 236, 237, 238, 239, 240, 241, 242, 243, 244, 245, 246, 247, 248, 249, 250, 251, 252, 253, 254, 255, 256, 257, 258, 259, 260, 261, 262, 263, 264, 265, 266, 267, 268, 269, 270, 271, 272, 273, 274, 275, 276, 277, 278, 279, 280],
      "AcquisitionTime": ["172138.412500", "172139.662500", "172140.912500", "172142.162500", "172143.412500", "172144.662500", "172145.912500", "172147.162500", "172148.412500", "172149.662500", "172150.912500", "172152.162500", "172153.412500", "172154.662500", "172155.912500", "172157.162500", "172158.412500", "172159.662500", "172200.912500", "172202.162500", "172203.412500", "172204.662500", "172205.912500", "172207.162500", "172208.412500", "172209.662500", "172210.912500", "172212.162500", "172213.412500", "172214.662500", "172215.912500", "172217.162500", "172218.412500", "172219.662500", "172220.912500", "172222.162500", "172223.412500", "172224.662500", "172225.912500", "172227.162500", "172228.412500", "172229.662500", "172230.912500", "172232.162500", "172233.412500", "172234.662500", "172235.912500", "172237.162500", "172238.412500", "172239.662500", "172240.912500", "172242.162500", "172243.412500", "172244.662500", "172245.912500", "172247.162500", "172248.412500", "172249.662500", "172250.912500", "172252.162500", "172253.412500", "172254.662500", "172255.912500", "172257.162500", "172258.412500", "172259.662500", "172300.912500", "172302.162500", "172303.412500", "172304.662500", "172305.912500", "172307.162500", "172308.412500", "172309.662500", "172310.912500", "172312.162500", "172313.412500", "172314.662500", "172315.912500", "172317.162500", "172318.412500", "172319.662500", "172320.912500", "172322.162500", "172323.412500", "172324.662500", "172325.912500", "172327.162500", "172328.412500", "172329.662500", "172330.912500", "172332.162500", "172333.412500", "172334.662500", "172335.912500", "172337.162500", "172338.412500", "172339.662500", "172340.912500", "172342.162500", "172343.412500", "172344.662500", "172345.912500", "172347.162500", "172348.412500", "172349.662500", "172350.912500", "172352.162500", "172353.412500", "172354.662500", "172355.912500", "172357.162500", "172358.412500", "172359.662500", "172400.912500", "172402.162500", "172403.412500", "172404.662500", "172405.912500", "172407.162500", "172408.412500", "172409.662500", "172410.912500", "172412.162500", "172413.412500", "172414.662500", "172415.912500", "172417.162500", "172418.412500", "172419.662500", "172420.912500", "172422.162500", "172423.412500", "172424.662500", "172425.912500", "172427.162500", "172428.412500", "172429.662500", "172430.912500", "172432.162500", "172433.412500", "172434.662500", "172435.912500", "172437.162500", "172438.412500", "172439.662500", "172440.912500", "172442.162500", "172443.412500", "172444.662500", "172445.912500", "172447.162500", "172448.412500", "172449.662500", "172450.912500", "172452.162500", "172453.412500", "172454.662500", "172455.912500", "172457.162500", "172458.412500", "172459.662500", "172500.912500", "172502.162500", "172503.412500", "172504.662500", "172505.912500", "172507.162500", "172508.412500", "172509.662500", "172510.912500", "172512.162500", "172513.412500", "172514.662500", "172515.912500", "172517.162500", "172518.412500", "172519.662500", "172520.912500", "172522.162500", "172523.412500", "172524.662500", "172525.912500", "172527.162500", "172528.412500", "172529.662500", "172530.912500", "172532.162500", "172533.412500", "172534.662500", "172535.912500", "172537.162500", "172538.412500", "172539.662500", "172540.912500", "172542.162500", "172543.412500", "172544.662500", "172545.912500", "172547.162500", "172548.412500", "172549.662500", "172550.912500", "172552.162500", "172553.412500", "172554.662500", "172555.912500", "172557.162500", "172558.412500", "172559.662500", "172600.912500", "172602.162500", "172603.412500", "172604.662500", "172605.912500", "172607.162500", "172608.412500", "172609.662500", "172610.912500", "172612.162500", "172613.412500", "172614.662500", "172615.912500", "172617.162500", "172618.412500", "172619.662500", "172620.912500", "172622.162500", "172623.412500", "172624.662500", "172625.912500", "172627.162500", "172628.412500", "172629.662500", "172630.912500", "172632.162500", "172633.412500", "172634.662500", "172635.912500", "172637.162500", "172638.412500", "172639.662500", "172640.912500", "172642.162500", "172643.412500", "172644.662500", "172645.912500", "172647.162500", "172648.412500", "172649.662500", "172650.912500", "172652.162500", "172653.412500", "172654.662500", "172655.912500", "172657.162500", "172658.412500", "172659.662500", "172700.912500", "172702.162500", "172703.412500", "172704.662500", "172705.912500", "172707.162500", "172708.412500", "172709.662500", "172710.912500", "172712.162500", "172713.412500", "172714.662500", "172715.912500", "172717.162500", "172718.412500", "172719.662500", "172720.912500", "172722.162500", "172723.412500", "172724.662500", "172725.912500", "172727.162500"],
      "ContentTime": ["172139.535000", "172140.622000", "172141.871000", "172143.131000", "172144.406000", "172145.607000", "172146.860000", "172148.127000", "172149.360000", "172150.605000", "172151.908000", "172153.098000", "172154.338000", "172155.597000", "172156.863000", "172158.105000", "172159.366000", "172200.585000", "172201.877000", "172203.127000", "172204.371000", "172205.702000", "172206.859000", "172208.075000", "172209.361000", "172210.622000", "172211.847000", "172213.085000", "172214.344000", "172215.671000", "172216.870000", "172218.110000", "172219.349000", "172220.670000", "172221.888000", "172223.135000", "172224.384000", "172225.628000", "172226.881000", "172228.190000", "172229.352000", "172230.651000", "172231.882000", "172233.126000", "172234.361000", "172235.628000", "172236.865000", "172238.142000", "172239.347000", "172240.610000", "172241.853000", "172243.123000", "172244.374000", "172245.669000", "172246.938000", "172248.122000", "172249.365000", "172250.591000", "172251.890000", "172253.111000", "172254.349000", "172255.626000", "172256.888000", "172258.149000", "172259.371000", "172300.593000", "172301.834000", "172303.128000", "172304.358000", "172305.634000", "172306.882000", "172308.105000", "172309.364000", "172310.646000", "172311.862000", "172313.175000", "172314.362000", "172315.635000", "172316.860000", "172318.093000", "172319.377000", "172320.607000", "172321.890000", "172323.132000", "172324.354000", "172325.585000", "172326.894000", "172328.126000", "172329.350000", "172330.639000", "172331.860000", "172333.092000", "172334.372000", "172335.601000", "172336.842000", "172338.199000", "172339.355000", "172340.589000", "172341.869000", "172343.138000", "172344.370000", "172345.673000", "172346.908000", "172348.135000", "172349.391000", "172350.627000", "172351.874000", "172353.170000", "172354.366000", "172355.627000", "172356.830000", "172358.133000", "172359.364000", "172400.595000", "172401.901000", "172403.140000", "172404.403000", "172405.635000", "172406.839000", "172408.106000", "172409.364000", "172410.635000", "172411.881000", "172413.151000", "172414.343000", "172415.653000", "172416.851000", "172418.145000", "172419.371000", "172420.629000", "172421.873000", "172423.109000", "172424.318000", "172425.614000", "172426.860000", "172428.083000", "172429.364000", "172430.640000", "172431.919000", "172433.153000", "172434.372000", "172435.656000", "172436.867000", "172438.139000", "172439.385000", "172440.613000", "172441.892000", "172443.114000", "172444.389000", "172445.613000", "172446.865000", "172448.092000", "172449.356000", "172450.608000", "172451.863000", "172453.142000", "172454.357000", "172455.597000", "172456.860000", "172458.122000", "172459.355000", "172500.629000", "172501.875000", "172503.128000", "172504.336000", "172505.635000", "172506.906000", "172508.123000", "172509.371000", "172510.678000", "172511.850000", "172513.151000", "172514.369000", "172515.721000", "172516.951000", "172518.119000", "172519.376000", "172520.618000", "172521.884000", "172523.136000", "172524.381000", "172525.595000", "172526.862000", "172528.124000", "172529.408000", "172530.626000", "172531.872000", "172533.106000", "172534.377000", "172535.619000", "172536.930000", "172538.126000", "172539.403000", "172540.680000", "172541.900000", "172543.130000", "172544.406000", "172545.654000", "172546.878000", "172548.137000", "172549.318000", "172550.628000", "172551.843000", "172553.111000", "172554.356000", "172555.634000", "172556.867000", "172558.148000", "172559.370000", "172600.651000", "172601.884000", "172603.119000", "172604.365000", "172605.616000", "172606.876000", "172608.060000", "172609.356000", "172610.635000", "172611.854000", "172613.111000", "172614.340000", "172615.595000", "172616.881000", "172618.126000", "172619.414000", "172620.595000", "172621.864000", "172623.142000", "172624.371000", "172625.619000", "172626.859000", "172628.165000", "172629.384000", "172630.622000", "172631.841000", "172633.119000", "172634.358000", "172635.635000", "172636.888000", "172638.128000", "172639.393000", "172640.626000", "172641.857000", "172643.126000", "172644.369000", "172645.635000", "172646.863000", "172648.100000", "172649.394000", "172650.628000", "172651.872000", "172653.168000", "172654.375000", "172655.626000", "172656.845000", "172658.103000", "172659.393000", "172700.660000", "172701.960000", "172703.140000", "172704.371000", "172705.620000", "172706.956000", "172708.152000", "172709.401000", "172710.629000", "172711.898000", "172713.117000", "172714.371000", "172715.648000", "172716.862000", "172718.149000", "172719.454000", "172720.631000", "172721.862000", "172723.144000", "172724.368000", "172725.652000", "172726.859000", "172728.166000"],
      "InstanceCreationTime": ["172139.535000", "172140.622000", "172141.871000", "172143.131000", "172144.406000", "172145.607000", "172146.860000", "172148.127000", "172149.360000", "172150.605000", "172151.908000", "172153.098000", "172154.338000", "172155.597000", "172156.863000", "172158.105000", "172159.366000", "172200.585000", "172201.877000", "172203.127000", "172204.371000", "172205.702000", "172206.859000", "172208.075000", "172209.361000", "172210.622000", "172211.847000", "172213.085000", "172214.344000", "172215.671000", "172216.870000", "172218.110000", "172219.349000", "172220.670000", "172221.888000", "172223.135000", "172224.384000", "172225.628000", "172226.881000", "172228.190000", "172229.352000", "172230.651000", "172231.882000", "172233.126000", "172234.361000", "172235.628000", "172236.865000", "172238.142000", "172239.347000", "172240.610000", "172241.853000", "172243.123000", "172244.374000", "172245.669000", "172246.938000", "172248.122000", "172249.365000", "172250.591000", "172251.890000", "172253.111000", "172254.349000", "172255.626000", "172256.888000", "172258.149000", "172259.371000", "172300.593000", "172301.834000", "172303.128000", "172304.358000", "172305.634000", "172306.882000", "172308.105000", "172309.364000", "172310.646000", "172311.862000", "172313.175000", "172314.362000", "172315.635000", "172316.860000", "172318.093000", "172319.377000", "172320.607000", "172321.890000", "172323.132000", "172324.354000", "172325.585000", "172326.894000", "172328.126000", "172329.350000", "172330.639000", "172331.860000", "172333.092000", "172334.372000", "172335.601000", "172336.842000", "172338.199000", "172339.355000", "172340.589000", "172341.869000", "172343.138000", "172344.370000", "172345.673000", "172346.908000", "172348.135000", "172349.391000", "172350.627000", "172351.874000", "172353.170000", "172354.366000", "172355.627000", "172356.830000", "172358.133000", "172359.364000", "172400.595000", "172401.901000", "172403.140000", "172404.403000", "172405.635000", "172406.839000", "172408.106000", "172409.364000", "172410.635000", "172411.881000", "172413.151000", "172414.343000", "172415.653000", "172416.851000", "172418.145000", "172419.371000", "172420.629000", "172421.873000", "172423.109000", "172424.318000", "172425.614000", "172426.860000", "172428.083000", "172429.364000", "172430.640000", "172431.919000", "172433.153000", "172434.372000", "172435.656000", "172436.867000", "172438.139000", "172439.385000", "172440.613000", "172441.892000", "172443.114000", "172444.389000", "172445.613000", "172446.865000", "172448.092000", "172449.356000", "172450.608000", "172451.863000", "172453.142000", "172454.357000", "172455.597000", "172456.860000", "172458.122000", "172459.355000", "172500.629000", "172501.875000", "172503.128000", "172504.336000", "172505.635000", "172506.906000", "172508.123000", "172509.371000", "172510.678000", "172511.850000", "172513.151000", "172514.369000", "172515.721000", "172516.951000", "172518.119000", "172519.376000", "172520.618000", "172521.884000", "172523.136000", "172524.381000", "172525.595000", "172526.862000", "172528.124000", "172529.408000", "172530.626000", "172531.872000", "172533.106000", "172534.377000", "172535.619000", "172536.930000", "172538.126000", "172539.403000", "172540.680000", "172541.900000", "172543.130000", "172544.406000", "172545.654000", "172546.878000", "172548.137000", "172549.318000", "172550.628000", "172551.843000", "172553.111000", "172554.356000", "172555.634000", "172556.867000", "172558.148000", "172559.370000", "172600.651000", "172601.884000", "172603.119000", "172604.365000", "172605.616000", "172606.876000", "172608.060000", "172609.356000", "172610.635000", "172611.854000", "172613.111000", "172614.340000", "172615.595000", "172616.881000", "172618.126000", "172619.414000", "172620.595000", "172621.864000", "172623.142000", "172624.371000", "172625.619000", "172626.859000", "172628.165000", "172629.384000", "172630.622000", "172631.841000", "172633.119000", "172634.358000", "172635.635000", "172636.888000", "172638.128000", "172639.393000", "172640.626000", "172641.857000", "172643.126000", "172644.369000", "172645.635000", "172646.863000", "172648.100000", "172649.394000", "172650.628000", "172651.872000", "172653.168000", "172654.375000", "172655.626000", "172656.845000", "172658.103000", "172659.393000", "172700.660000", "172701.960000", "172703.140000", "172704.371000", "172705.620000", "172706.956000", "172708.152000", "172709.401000", "172710.629000", "172711.898000", "172713.117000", "172714.371000", "172715.648000", "172716.862000", "172718.149000", "172719.454000", "172720.631000", "172721.862000", "172723.144000", "172724.368000", "172725.652000", "172726.859000", "172728.166000"],
      "InstanceNumber": [1, 2, 3, 4, 5, 6, 7, 8, 9, 10, 11, 12, 13, 14, 15, 16, 17, 18, 19, 20, 21, 22, 23, 24, 25, 26, 27, 28, 29, 30, 31, 32, 33, 34, 35, 36, 37, 38, 39, 40, 41, 42, 43, 44, 45, 46, 47, 48, 49, 50, 51, 52, 53, 54, 55, 56, 57, 58, 59, 60, 61, 62, 63, 64, 65, 66, 67, 68, 69, 70, 71, 72, 73, 74, 75, 76, 77, 78, 79, 80, 81, 82, 83, 84, 85, 86, 87, 88, 89, 90, 91, 92, 93, 94, 95, 96, 97, 98, 99, 100, 101, 102, 103, 104, 105, 106, 107, 108, 109, 110, 111, 112, 113, 114, 115, 116, 117, 118, 119, 120, 121, 122, 123, 124, 125, 126, 127, 128, 129, 130, 131, 132, 133, 134, 135, 136, 137, 138, 139, 140, 141, 142, 143, 144, 145, 146, 147, 148, 149, 150, 151, 152, 153, 154, 155, 156, 157, 158, 159, 160, 161, 162, 163, 164, 165, 166, 167, 168, 169, 170, 171, 172, 173, 174, 175, 176, 177, 178, 179, 180, 181, 182, 183, 184, 185, 186, 187, 188, 189, 190, 191, 192, 193, 194, 195, 196, 197, 198, 199, 200, 201, 202, 203, 204, 205, 206, 207, 208, 209, 210, 211, 212, 213, 214, 215, 216, 217, 218, 219, 220, 221, 222, 223, 224, 225, 226, 227, 228, 229, 230, 231, 232, 233, 234, 235, 236, 237, 238, 239, 240, 241, 242, 243, 244, 245, 246, 247, 248, 249, 250, 251, 252, 253, 254, 255, 256, 257, 258, 259, 260, 261, 262, 263, 264, 265, 266, 267, 268, 269, 270, 271, 272, 273, 274, 275, 276, 277, 278, 279, 280],
      "LargestImagePixelValue": [1157, 1106, 1114, 1284, 1316, 1011, 1197, 1032, 1031, 1059, 1079, 1111, 1160, 1072, 1055, 1012, 1099, 1263, 1119, 1045, 1008, 931, 1034, 1015, 1070, 1158, 1042, 1069, 981, 993, 1053, 1112, 1068, 1061, 1072, 1098, 1071, 1264, 1082, 1072, 1104, 1091, 1022, 1019, 1061, 1114, 1324, 1069, 1041, 1219, 1092, 1110, 1290, 1049, 1007, 1121, 997, 1011, 969, 1044, 1220, 1114, 1027, 1110, 1103, 1165, 1098, 1062, 971, 1040, 1107, 1073, 1029, 1012, 1075, 1111, 1216, 1059, 1134, 1329, 1045, 997, 1047, 1108, 1060, 1005, 1099, 1261, 1129, 1024, 1166, 1006, 1088, 1065, 1005, 1065, 1042, 1106, 1042, 1128, 1062, 1138, 1294, 1180, 1079, 1103, 1114, 1153, 1072, 960, 1063, 1035, 1070, 1225, 1064, 1013, 1096, 1044, 1051, 1141, 1115, 1387, 1138, 1016, 1113, 1008, 1081, 1120, 1367, 1055, 1077, 1008, 1010, 1044, 1088, 1120, 1065, 1049, 1093, 1237, 1128, 1159, 1300, 1135, 1091, 1066, 1090, 1099, 1145, 1164, 1219, 1066, 1120, 1165, 1057, 972, 1174, 1075, 1095, 1070, 1128, 1253, 1145, 1132, 1077, 1118, 1152, 1184, 1136, 1212, 1124, 1089, 1008, 1043, 1102, 1049, 1098, 1096, 1176, 1143, 1185, 1098, 1176, 1203, 1114, 1269, 1149, 1170, 1431, 1183, 1057, 1132, 1104, 1273, 1111, 1108, 1277, 1102, 1028, 1058, 1073, 1093, 1050, 1121, 1089, 1167, 1096, 1067, 1059, 1040, 1053, 1091, 1052, 1122, 1181, 1336, 1186, 1192, 1275, 1132, 1100, 1114, 1042, 1027, 1044, 1063, 1083, 1180, 1070, 1091, 1053, 999, 1042, 1071, 1162, 1171, 1245, 1149, 1081, 1053, 1113, 1064, 1167, 1157, 1368, 1196, 1167, 1084, 1098, 1103, 1100, 1102, 1114, 1149, 1155, 1171, 1172, 1124, 1160, 1164, 1225, 1157, 1157, 1151, 1121, 1100, 1167, 1128, 1108, 1342, 1063, 1158, 1098, 1074, 1101, 1119, 1143, 1102, 1112, 1169],
      "WindowCenter": [381.0, 379.0, 379.0, 379.0, 379.0, 376.0, 377.0, 376.0, 376.0, 376.0, 377.0, 377.0, 377.0, 377.0, 377.0, 376.0, 377.0, 378.0, 376.0, 376.0, 376.0, 376.0, 377.0, 377.0, 377.0, 378.0, 376.0, 377.0, 378.0, 377.0, 377.0, 377.0, 377.0, 376.0, 377.0, 377.0, 377.0, 378.0, 376.0, 376.0, 376.0, 376.0, 376.0, 376.0, 377.0, 377.0, 378.0, 377.0, 377.0, 377.0, 377.0, 377.0, 378.0, 376.0, 375.0, 376.0, 376.0, 377.0, 376.0, 377.0, 378.0, 377.0, 376.0, 377.0, 377.0, 377.0, 376.0, 376.0, 375.0, 377.0, 377.0, 376.0, 376.0, 376.0, 377.0, 377.0, 378.0, 376.0, 377.0, 377.0, 376.0, 376.0, 377.0, 377.0, 377.0, 376.0, 377.0, 377.0, 377.0, 375.0, 376.0, 375.0, 376.0, 376.0, 376.0, 377.0, 377.0, 377.0, 377.0, 377.0, 377.0, 377.0, 378.0, 377.0, 377.0, 377.0, 377.0, 377.0, 376.0, 375.0, 377.0, 377.0, 377.0, 378.0, 377.0, 376.0, 377.0, 377.0, 377.0, 377.0, 377.0, 378.0, 376.0, 375.0, 376.0, 375.0, 376.0, 377.0, 378.0, 376.0, 376.0, 375.0, 376.0, 377.0, 377.0, 378.0, 377.0, 377.0, 377.0, 378.0, 377.0, 378.0, 378.0, 377.0, 377.0, 377.0, 378.0, 377.0, 377.0, 377.0, 377.0, 376.0, 378.0, 378.0, 378.0, 377.0, 378.0, 377.0, 377.0, 377.0, 377.0, 378.0, 377.0, 377.0, 377.0, 377.0, 377.0, 377.0, 377.0, 378.0, 377.0, 377.0, 377.0, 377.0, 377.0, 376.0, 376.0, 376.0, 377.0, 377.0, 378.0, 377.0, 378.0, 378.0, 377.0, 378.0, 377.0, 378.0, 378.0, 377.0, 376.0, 377.0, 377.0, 378.0, 377.0, 377.0, 378.0, 377.0, 377.0, 377.0, 377.0, 377.0, 377.0, 377.0, 376.0, 377.0, 376.0, 376.0, 377.0, 377.0, 377.0, 377.0, 377.0, 377.0, 377.0, 377.0, 376.0, 377.0, 378.0, 377.0, 377.0, 376.0, 376.0, 376.0, 377.0, 377.0, 376.0, 377.0, 376.0, 376.0, 377.0, 377.0, 377.0, 377.0, 377.0, 377.0, 378.0, 377.0, 376.0, 376.0, 376.0, 376.0, 377.0, 377.0, 378.0, 377.0, 376.0, 376.0, 376.0, 376.0, 377.0, 377.0, 377.0, 376.0, 377.0, 377.0, 378.0, 377.0, 378.0, 378.0, 378.0, 376.0, 376.0, 376.0, 376.0, 376.0, 376.0, 377.0, 377.0, 378.0, 376.0, 377.0, 377.0, 377.0, 377.0, 378.0, 378.0, 377.0, 378.0, 378.0],
      "WindowWidth": [809.0, 805.0, 804.0, 805.0, 805.0, 800.0, 801.0, 799.0, 799.0, 800.0, 801.0, 801.0, 801.0, 801.0, 801.0, 800.0, 801.0, 801.0, 800.0, 799.0, 800.0, 800.0, 802.0, 801.0, 801.0, 802.0, 799.0, 802.0, 804.0, 801.0, 801.0, 801.0, 801.0, 800.0, 800.0, 801.0, 800.0, 802.0, 799.0, 799.0, 799.0, 800.0, 800.0, 799.0, 801.0, 801.0, 803.0, 800.0, 800.0, 801.0, 800.0, 801.0, 802.0, 799.0, 798.0, 800.0, 799.0, 802.0, 800.0, 801.0, 802.0, 800.0, 799.0, 800.0, 800.0, 801.0, 799.0, 799.0, 799.0, 800.0, 801.0, 800.0, 799.0, 800.0, 801.0, 801.0, 802.0, 800.0, 800.0, 801.0, 799.0, 799.0, 800.0, 801.0, 801.0, 800.0, 800.0, 801.0, 800.0, 798.0, 800.0, 798.0, 799.0, 800.0, 799.0, 800.0, 800.0, 801.0, 800.0, 802.0, 800.0, 801.0, 802.0, 801.0, 800.0, 800.0, 800.0, 800.0, 799.0, 798.0, 800.0, 800.0, 801.0, 803.0, 800.0, 799.0, 800.0, 800.0, 800.0, 802.0, 801.0, 802.0, 800.0, 798.0, 800.0, 798.0, 799.0, 800.0, 802.0, 799.0, 799.0, 798.0, 799.0, 800.0, 801.0, 802.0, 801.0, 801.0, 801.0, 802.0, 801.0, 802.0, 802.0, 801.0, 801.0, 802.0, 802.0, 801.0, 801.0, 800.0, 801.0, 800.0, 802.0, 803.0, 803.0, 801.0, 802.0, 801.0, 800.0, 800.0, 801.0, 801.0, 801.0, 801.0, 800.0, 801.0, 801.0, 800.0, 801.0, 802.0, 800.0, 801.0, 800.0, 800.0, 800.0, 799.0, 799.0, 800.0, 801.0, 801.0, 802.0, 801.0, 802.0, 802.0, 801.0, 803.0, 801.0, 802.0, 802.0, 801.0, 799.0, 801.0, 801.0, 803.0, 801.0, 801.0, 803.0, 801.0, 801.0, 800.0, 801.0, 801.0, 800.0, 801.0, 799.0, 800.0, 800.0, 799.0, 800.0, 800.0, 800.0, 801.0, 800.0, 801.0, 801.0, 801.0, 800.0, 801.0, 801.0, 801.0, 801.0, 800.0, 799.0, 800.0, 800.0, 800.0, 799.0, 800.0, 799.0, 799.0, 800.0, 800.0, 800.0, 801.0, 801.0, 801.0, 802.0, 801.0, 800.0, 799.0, 800.0, 799.0, 801.0, 801.0, 802.0, 801.0, 800.0, 799.0, 800.0, 800.0, 801.0, 800.0, 800.0, 800.0, 800.0, 800.0, 802.0, 801.0, 802.0, 802.0, 802.0, 800.0, 799.0, 798.0, 798.0, 799.0, 800.0, 800.0, 801.0, 802.0, 799.0, 801.0, 801.0, 802.0, 801.0, 803.0, 803.0, 800.0, 802.0, 802.0]
    },
    "slices": {}
  }
}