{
  "AcquisitionMatrixPE": 96,
  "AcquisitionNumber": 1,
  "AcquisitionTime": "17:08:58.300000",
  "BandwidthPerPixelPhaseEncode": 18.939,
  "BaseResolution": 96,
  "BodyPartExamined": "BRAIN",
  "ConsistencyInfo": "N4_VE11C_LATEST_20160120",
  "ConversionSoftware": "dcm2niix",
  "ConversionSoftwareVersion": "v1.0.20170923 (OpenJPEG build) GCC6.3.0",
  "DerivedVendorReportedEchoSpacing": 0.000550011,
  "DeviceSerialNumber": "66112",
  "DwellTime": 2.3e-06,
  "EchoTime": 0.033,
  "EchoTrainLength": 96,
  "EffectiveEchoSpacing": 0.000550011,
  "FlipAngle": 64,
  "ImageType": [
    "ORIGINAL",
    "PRIMARY",
    "FMRI",
    "NONE",
    "ND",
    "NORM",
    "MOSAIC"
],
  "InstitutionAddress": "Maynard_3_Hanover_NH_US_03755",
  "InstitutionName": "Dartmouth_College_-_PBS",
  "MagneticFieldStrength": 3,
  "Manufacturer": "Siemens",
  "ManufacturersModelName": "Prisma",
  "Modality": "MR",
  "MultibandAccelerationFactor": 4,
  "PartialFourier": 1,
  "PercentPhaseFOV": 100,
  "PhaseEncodingDirection": "j-",
  "PhaseEncodingSteps": 96,
  "PhaseResolution": 1,
  "ProcedureStepDescription": "Gobbini_Matteo_1017_famface-angles",
  "ProtocolName": "func_run-09_task-fam1back",
  "PulseSequenceDetails": "%SiemensSeq%_ep2d_bold",
  "ReceiveCoilActiveElements": "HEA;HEP",
  "ReceiveCoilName": "Head_32",
  "ReconMatrixPE": 96,
  "RepetitionTime": 1.25,
  "ScanOptions": "FS",
  "ScanningSequence": "EP",
  "SequenceName": "_epfid2d1_96",
  "SequenceVariant": "SK",
  "SeriesDescription": "func_run-09_task-fam1back",
  "SliceTiming": [0.88, 0, 0.615, 0.0875, 0.7025, 0.175, 0.79, 0.3525, 0.9675, 0.44, 1.055, 0.5275, 1.1425, 0.265, 0.88, 0, 0.615, 0.0875, 0.7025, 0.175, 0.79, 0.3525, 0.9675, 0.44, 1.055, 0.5275, 1.1425, 0.265, 0.88, 0, 0.615, 0.0875, 0.7025, 0.175, 0.79, 0.3525, 0.9675, 0.44, 1.055, 0.5275, 1.1425, 0.265, 0.88, 0, 0.615, 0.0875, 0.7025, 0.175, 0.79, 0.3525, 0.9675, 0.44, 1.055, 0.5275, 1.1425, 0.265],
  "SoftwareVersions": "syngo_MR_E11",
  "StationName": "AWP66112",
  "TaskName": "fam1back",
  "TotalReadoutTime": 0.0522511,
  "dcmmeta_affine": [
    [-2.4968180656433105, -0.09504520893096924, 0.08286155015230179, 126.8009033203125],
    [-0.09264481067657471, 2.4972221851348877, 0.0727931410074234, -110.70008087158203],
    [0.08553693443536758, -0.06962981820106506, 2.497565746307373, -79.99674224853516],
    [0.0, 0.0, 0.0, 1.0]
],
  "dcmmeta_reorient_transform": [
    [0.0, -1.0, 0.0, 95.0],
    [1.0, 0.0, 0.0, 0.0],
    [0.0, 0.0, 1.0, 0.0],
    [0.0, 0.0, 0.0, 1.0]
],
  "dcmmeta_shape": [96, 96, 56, 280],
  "dcmmeta_slice_dim": 2,
  "dcmmeta_version": 0.6,
  "global": {
    "const": {
      "AccessionNumber": "A000239",
      "AcquisitionMatrix": [96, 0, 0, 96],
      "AngioFlag": "N",
      "BitsAllocated": 16,
      "BitsStored": 12,
      "BodyPartExamined": "BRAIN",
      "Columns": 768,
      "EchoNumbers": 1,
      "EchoTime": 33.0,
      "EchoTrainLength": 96,
      "FlipAngle": 64.0,
      "HighBit": 11,
      "ImageOrientationPatient": [0.99872721977866, 0.03705792414142, 0.03421477358565, -0.0380180825564, 0.9988888304209, 0.02785192738566],
      "ImagePositionPatient": [-924.76728725537, -996.73128933664, -138.74760715121],
      "ImageType": [
        "ORIGINAL",
        "PRIMARY",
        "FMRI",
        "NONE",
        "ND",
        "NORM",
        "MOSAIC"
],
      "ImagedNucleus": "1H",
      "ImagingFrequency": 123.252397,
      "InPlanePhaseEncodingDirection": "COL",
      "MRAcquisitionType": "2D",
      "MagneticFieldStrength": 3.0,
      "Manufacturer": "SIEMENS",
      "ManufacturerModelName": "Prisma",
      "Modality": "MR",
      "NumberOfAverages": 1.0,
      "NumberOfPhaseEncodingSteps": 96,
      "PercentPhaseFieldOfView": 100.0,
      "PercentSampling": 100.0,
      "PerformedProcedureStepStartTime": "160145.008000",
      "PhotometricInterpretation": "MONOCHROME2",
      "PixelBandwidth": 2265.0,
      "PixelRepresentation": 0,
      "PixelSpacing": [2.5, 2.5],
      "PositionReferenceIndicator": "",
      "ProtocolName": "func_run-09_task-fam1back",
      "RepetitionTime": 1250.0,
      "Rows": 768,
      "SAR": 0.05586939788993,
      "SamplesPerPixel": 1,
      "ScanOptions": "FS",
      "ScanningSequence": "EP",
      "SequenceName": "*epfid2d1_96",
      "SequenceVariant": "SK",
      "SeriesDescription": "func_run-09_task-fam1back",
      "SeriesNumber": 64,
      "SeriesTime": "170859.830000",
      "SliceLocation": -78.93937051997,
      "SliceThickness": 2.5,
      "SmallestImagePixelValue": 0,
      "SoftwareVersions": "syngo MR E11",
      "SpacingBetweenSlices": 2.4999999678755,
      "SpecificCharacterSet": "ISO_IR 100",
      "StudyID": "1",
      "StudyTime": "160144.944000",
      "TransmitCoilName": "Body",
      "VariableFlipAngleFlag": "N",
      "WindowCenterWidthExplanation": "Algo1",
      "dBdt": 0.0},
    "slices": {}
  },
  "time": {
    "samples": {
      "AcquisitionNumber": [1, 2, 3, 4, 5, 6, 7, 8, 9, 10, 11, 12, 13, 14, 15, 16, 17, 18, 19, 20, 21, 22, 23, 24, 25, 26, 27, 28, 29, 30, 31, 32, 33, 34, 35, 36, 37, 38, 39, 40, 41, 42, 43, 44, 45, 46, 47, 48, 49, 50, 51, 52, 53, 54, 55, 56, 57, 58, 59, 60, 61, 62, 63, 64, 65, 66, 67, 68, 69, 70, 71, 72, 73, 74, 75, 76, 77, 78, 79, 80, 81, 82, 83, 84, 85, 86, 87, 88, 89, 90, 91, 92, 93, 94, 95, 96, 97, 98, 99, 100, 101, 102, 103, 104, 105, 106, 107, 108, 109, 110, 111, 112, 113, 114, 115, 116, 117, 118, 119, 120, 121, 122, 123, 124, 125, 126, 127, 128, 129, 130, 131, 132, 133, 134, 135, 136, 137, 138, 139, 140, 141, 142, 143, 144, 145, 146, 147, 148, 149, 150, 151, 152, 153, 154, 155, 156, 157, 158, 159, 160, 161, 162, 163, 164, 165, 166, 167, 168, 169, 170, 171, 172, 173, 174, 175, 176, 177, 178, 179, 180, 181, 182, 183, 184, 185, 186, 187, 188, 189, 190, 191, 192, 193, 194, 195, 196, 197, 198, 199, 200, 201, 202, 203, 204, 205, 206, 207, 208, 209, 210, 211, 212, 213, 214, 215, 216, 217, 218, 219, 220, 221, 222, 223, 224, 225, 226, 227, 228, 229, 230, 231, 232, 233, 234, 235, 236, 237, 238, 239, 240, 241, 242, 243, 244, 245, 246, 247, 248, 249, 250, 251, 252, 253, 254, 255, 256, 257, 258, 259, 260, 261, 262, 263, 264, 265, 266, 267, 268, 269, 270, 271, 272, 273, 274, 275, 276, 277, 278, 279, 280],
      "AcquisitionTime": ["170858.300000", "170859.550000", "170900.800000", "170902.050000", "170903.300000", "170904.550000", "170905.800000", "170907.050000", "170908.300000", "170909.550000", "170910.800000", "170912.050000", "170913.300000", "170914.550000", "170915.800000", "170917.050000", "170918.300000", "170919.550000", "170920.800000", "170922.050000", "170923.300000", "170924.550000", "170925.800000", "170927.050000", "170928.300000", "170929.550000", "170930.800000", "170932.050000", "170933.300000", "170934.550000", "170935.800000", "170937.050000", "170938.300000", "170939.550000", "170940.800000", "170942.050000", "170943.300000", "170944.550000", "170945.800000", "170947.050000", "170948.300000", "170949.550000", "170950.800000", "170952.050000", "170953.300000", "170954.550000", "170955.800000", "170957.050000", "170958.300000", "170959.550000", "171000.800000", "171002.050000", "171003.300000", "171004.550000", "171005.800000", "171007.050000", "171008.300000", "171009.550000", "171010.800000", "171012.050000", "171013.300000", "171014.550000", "171015.800000", "171017.050000", "171018.300000", "171019.550000", "171020.800000", "171022.050000", "171023.300000", "171024.550000", "171025.800000", "171027.050000", "171028.300000", "171029.550000", "171030.800000", "171032.050000", "171033.300000", "171034.550000", "171035.800000", "171037.050000", "171038.300000", "171039.550000", "171040.800000", "171042.050000", "171043.300000", "171044.550000", "171045.800000", "171047.050000", "171048.300000", "171049.550000", "171050.800000", "171052.050000", "171053.300000", "171054.550000", "171055.800000", "171057.050000", "171058.300000", "171059.550000", "171100.800000", "171102.050000", "171103.300000", "171104.550000", "171105.800000", "171107.050000", "171108.300000", "171109.550000", "171110.800000", "171112.050000", "171113.300000", "171114.550000", "171115.800000", "171117.050000", "171118.300000", "171119.550000", "171120.800000", "171122.050000", "171123.300000", "171124.550000", "171125.800000", "171127.050000", "171128.300000", "171129.550000", "171130.800000", "171132.050000", "171133.300000", "171134.550000", "171135.800000", "171137.050000", "171138.300000", "171139.550000", "171140.800000", "171142.050000", "171143.300000", "171144.550000", "171145.800000", "171147.050000", "171148.300000", "171149.550000", "171150.800000", "171152.050000", "171153.300000", "171154.550000", "171155.800000", "171157.050000", "171158.300000", "171159.550000", "171200.800000", "171202.050000", "171203.300000", "171204.550000", "171205.800000", "171207.050000", "171208.300000", "171209.550000", "171210.800000", "171212.050000", "171213.300000", "171214.550000", "171215.800000", "171217.050000", "171218.300000", "171219.550000", "171220.800000", "171222.050000", "171223.300000", "171224.550000", "171225.800000", "171227.050000", "171228.300000", "171229.550000", "171230.800000", "171232.050000", "171233.300000", "171234.550000", "171235.800000", "171237.050000", "171238.300000", "171239.550000", "171240.800000", "171242.050000", "171243.300000", "171244.550000", "171245.800000", "171247.050000", "171248.300000", "171249.550000", "171250.800000", "171252.050000", "171253.300000", "171254.550000", "171255.800000", "171257.050000", "171258.300000", "171259.550000", "171300.800000", "171302.050000", "171303.300000", "171304.550000", "171305.800000", "171307.050000", "171308.300000", "171309.550000", "171310.800000", "171312.050000", "171313.300000", "171314.550000", "171315.800000", "171317.050000", "171318.300000", "171319.550000", "171320.800000", "171322.050000", "171323.300000", "171324.550000", "171325.800000", "171327.050000", "171328.300000", "171329.550000", "171330.800000", "171332.050000", "171333.300000", "171334.550000", "171335.800000", "171337.050000", "171338.300000", "171339.550000", "171340.800000", "171342.050000", "171343.300000", "171344.550000", "171345.800000", "171347.050000", "171348.300000", "171349.550000", "171350.800000", "171352.050000", "171353.300000", "171354.550000", "171355.800000", "171357.050000", "171358.300000", "171359.550000", "171400.800000", "171402.050000", "171403.300000", "171404.550000", "171405.800000", "171407.050000", "171408.300000", "171409.550000", "171410.800000", "171412.050000", "171413.300000", "171414.550000", "171415.800000", "171417.050000", "171418.300000", "171419.550000", "171420.800000", "171422.050000", "171423.300000", "171424.550000", "171425.800000", "171427.050000", "171428.300000", "171429.550000", "171430.800000", "171432.050000", "171433.300000", "171434.550000", "171435.800000", "171437.050000", "171438.300000", "171439.550000", "171440.800000", "171442.050000", "171443.300000", "171444.550000", "171445.800000", "171447.050000"],
      "ContentTime": ["170859.834000", "170900.924000", "170902.140000", "170903.422000", "170904.698000", "170905.891000", "170907.199000", "170908.433000", "170909.629000", "170910.924000", "170912.165000", "170913.426000", "170914.648000", "170915.889000", "170917.136000", "170918.405000", "170919.649000", "170920.874000", "170922.178000", "170923.402000", "170924.657000", "170925.958000", "170927.164000", "170928.466000", "170929.689000", "170930.898000", "170932.129000", "170933.402000", "170934.669000", "170935.904000", "170937.158000", "170938.387000", "170939.670000", "170940.923000", "170942.139000", "170943.378000", "170944.636000", "170945.883000", "170947.149000", "170948.444000", "170949.696000", "170950.940000", "170952.147000", "170953.420000", "170954.654000", "170955.890000", "170957.144000", "170958.376000", "170959.624000", "171000.930000", "171002.158000", "171003.440000", "171004.618000", "171005.942000", "171007.149000", "171008.389000", "171009.700000", "171010.903000", "171012.202000", "171013.379000", "171014.646000", "171015.877000", "171017.166000", "171018.378000", "171019.700000", "171020.900000", "171022.144000", "171023.436000", "171024.662000", "171025.937000", "171027.167000", "171028.447000", "171029.664000", "171030.904000", "171032.157000", "171033.393000", "171034.674000", "171035.908000", "171037.139000", "171038.418000", "171039.637000", "171040.890000", "171042.140000", "171043.384000", "171044.645000", "171045.911000", "171047.194000", "171048.407000", "171049.639000", "171050.936000", "171052.194000", "171053.387000", "171054.674000", "171055.930000", "171057.166000", "171058.390000", "171059.641000", "171100.921000", "171102.177000", "171103.418000", "171104.708000", "171105.912000", "171107.172000", "171108.430000", "171109.667000", "171110.925000", "171112.235000", "171113.490000", "171114.689000", "171115.923000", "171117.194000", "171118.433000", "171119.680000", "171120.947000", "171122.150000", "171123.448000", "171124.677000", "171125.917000", "171127.162000", "171128.393000", "171129.664000", "171130.904000", "171132.179000", "171133.461000", "171134.667000", "171135.902000", "171137.193000", "171138.401000", "171139.687000", "171140.944000", "171142.161000", "171143.427000", "171144.668000", "171145.962000", "171147.140000", "171148.411000", "171149.644000", "171150.929000", "171152.230000", "171153.387000", "171154.667000", "171155.907000", "171157.174000", "171158.394000", "171159.686000", "171200.907000", "171202.174000", "171203.377000", "171204.682000", "171205.910000", "171207.194000", "171208.479000", "171209.624000", "171210.932000", "171212.148000", "171213.443000", "171214.714000", "171215.949000", "171217.174000", "171218.418000", "171219.654000", "171220.929000", "171222.214000", "171223.398000", "171224.640000", "171225.865000", "171227.206000", "171228.407000", "171229.686000", "171230.907000", "171232.176000", "171233.398000", "171234.667000", "171235.931000", "171237.207000", "171238.451000", "171239.672000", "171240.910000", "171242.170000", "171243.404000", "171244.651000", "171245.914000", "171247.135000", "171248.412000", "171249.661000", "171250.935000", "171252.175000", "171253.476000", "171254.680000", "171255.902000", "171257.157000", "171258.416000", "171259.667000", "171300.920000", "171302.151000", "171303.359000", "171304.652000", "171305.887000", "171307.188000", "171308.425000", "171309.636000", "171310.897000", "171312.157000", "171313.395000", "171314.662000", "171315.943000", "171317.164000", "171318.386000", "171319.640000", "171320.924000", "171322.156000", "171323.376000", "171324.668000", "171325.907000", "171327.195000", "171328.393000", "171329.692000", "171330.913000", "171332.175000", "171333.415000", "171334.651000", "171335.944000", "171337.145000", "171338.403000", "171339.655000", "171340.931000", "171342.148000", "171343.408000", "171344.683000", "171345.924000", "171347.179000", "171348.435000", "171349.662000", "171350.912000", "171352.181000", "171353.442000", "171354.676000", "171355.925000", "171357.219000", "171358.412000", "171359.660000", "171400.916000", "171402.148000", "171403.460000", "171404.637000", "171405.924000", "171407.200000", "171408.425000", "171409.663000", "171410.890000", "171412.158000", "171413.392000", "171414.653000", "171415.885000", "171417.170000", "171418.390000", "171419.678000", "171420.906000", "171422.206000", "171423.409000", "171424.643000", "171425.929000", "171427.173000", "171428.407000", "171429.658000", "171430.927000", "171432.149000", "171433.437000", "171434.655000", "171435.911000", "171437.187000", "171438.409000", "171439.678000", "171440.919000", "171442.182000", "171443.395000", "171444.645000", "171445.872000", "171447.184000", "171448.439000"],
      "InstanceCreationTime": ["170859.834000", "170900.924000", "170902.140000", "170903.422000", "170904.698000", "170905.891000", "170907.199000", "170908.433000", "170909.629000", "170910.924000", "170912.165000", "170913.426000", "170914.648000", "170915.889000", "170917.136000", "170918.405000", "170919.649000", "170920.874000", "170922.178000", "170923.402000", "170924.657000", "170925.958000", "170927.164000", "170928.466000", "170929.689000", "170930.898000", "170932.129000", "170933.402000", "170934.669000", "170935.904000", "170937.158000", "170938.387000", "170939.670000", "170940.923000", "170942.139000", "170943.378000", "170944.636000", "170945.883000", "170947.149000", "170948.444000", "170949.696000", "170950.940000", "170952.147000", "170953.420000", "170954.654000", "170955.890000", "170957.144000", "170958.376000", "170959.624000", "171000.930000", "171002.158000", "171003.440000", "171004.618000", "171005.942000", "171007.149000", "171008.389000", "171009.700000", "171010.903000", "171012.202000", "171013.379000", "171014.646000", "171015.877000", "171017.166000", "171018.378000", "171019.700000", "171020.900000", "171022.144000", "171023.436000", "171024.662000", "171025.937000", "171027.167000", "171028.447000", "171029.664000", "171030.904000", "171032.157000", "171033.393000", "171034.674000", "171035.908000", "171037.139000", "171038.418000", "171039.637000", "171040.890000", "171042.140000", "171043.384000", "171044.645000", "171045.911000", "171047.194000", "171048.407000", "171049.639000", "171050.936000", "171052.194000", "171053.387000", "171054.674000", "171055.930000", "171057.166000", "171058.390000", "171059.641000", "171100.921000", "171102.177000", "171103.418000", "171104.708000", "171105.912000", "171107.172000", "171108.430000", "171109.667000", "171110.925000", "171112.235000", "171113.490000", "171114.689000", "171115.923000", "171117.194000", "171118.433000", "171119.680000", "171120.947000", "171122.150000", "171123.448000", "171124.677000", "171125.917000", "171127.162000", "171128.393000", "171129.664000", "171130.904000", "171132.179000", "171133.461000", "171134.667000", "171135.902000", "171137.193000", "171138.401000", "171139.687000", "171140.944000", "171142.161000", "171143.427000", "171144.668000", "171145.962000", "171147.140000", "171148.411000", "171149.644000", "171150.929000", "171152.230000", "171153.387000", "171154.667000", "171155.907000", "171157.174000", "171158.394000", "171159.686000", "171200.907000", "171202.174000", "171203.377000", "171204.682000", "171205.910000", "171207.194000", "171208.479000", "171209.624000", "171210.932000", "171212.148000", "171213.443000", "171214.714000", "171215.949000", "171217.174000", "171218.418000", "171219.654000", "171220.929000", "171222.214000", "171223.398000", "171224.640000", "171225.865000", "171227.206000", "171228.407000", "171229.686000", "171230.907000", "171232.176000", "171233.398000", "171234.667000", "171235.931000", "171237.207000", "171238.451000", "171239.672000", "171240.910000", "171242.170000", "171243.404000", "171244.651000", "171245.914000", "171247.135000", "171248.412000", "171249.661000", "171250.935000", "171252.175000", "171253.476000", "171254.680000", "171255.902000", "171257.157000", "171258.416000", "171259.667000", "171300.920000", "171302.151000", "171303.359000", "171304.652000", "171305.887000", "171307.188000", "171308.425000", "171309.636000", "171310.897000", "171312.157000", "171313.395000", "171314.662000", "171315.943000", "171317.164000", "171318.386000", "171319.640000", "171320.924000", "171322.156000", "171323.376000", "171324.668000", "171325.907000", "171327.195000", "171328.393000", "171329.692000", "171330.913000", "171332.175000", "171333.415000", "171334.651000", "171335.944000", "171337.145000", "171338.403000", "171339.655000", "171340.931000", "171342.148000", "171343.408000", "171344.683000", "171345.924000", "171347.179000", "171348.435000", "171349.662000", "171350.912000", "171352.181000", "171353.442000", "171354.676000", "171355.925000", "171357.219000", "171358.412000", "171359.660000", "171400.916000", "171402.148000", "171403.460000", "171404.637000", "171405.924000", "171407.200000", "171408.425000", "171409.663000", "171410.890000", "171412.158000", "171413.392000", "171414.653000", "171415.885000", "171417.170000", "171418.390000", "171419.678000", "171420.906000", "171422.206000", "171423.409000", "171424.643000", "171425.929000", "171427.173000", "171428.407000", "171429.658000", "171430.927000", "171432.149000", "171433.437000", "171434.655000", "171435.911000", "171437.187000", "171438.409000", "171439.678000", "171440.919000", "171442.182000", "171443.395000", "171444.645000", "171445.872000", "171447.184000", "171448.439000"],
      "InstanceNumber": [1, 2, 3, 4, 5, 6, 7, 8, 9, 10, 11, 12, 13, 14, 15, 16, 17, 18, 19, 20, 21, 22, 23, 24, 25, 26, 27, 28, 29, 30, 31, 32, 33, 34, 35, 36, 37, 38, 39, 40, 41, 42, 43, 44, 45, 46, 47, 48, 49, 50, 51, 52, 53, 54, 55, 56, 57, 58, 59, 60, 61, 62, 63, 64, 65, 66, 67, 68, 69, 70, 71, 72, 73, 74, 75, 76, 77, 78, 79, 80, 81, 82, 83, 84, 85, 86, 87, 88, 89, 90, 91, 92, 93, 94, 95, 96, 97, 98, 99, 100, 101, 102, 103, 104, 105, 106, 107, 108, 109, 110, 111, 112, 113, 114, 115, 116, 117, 118, 119, 120, 121, 122, 123, 124, 125, 126, 127, 128, 129, 130, 131, 132, 133, 134, 135, 136, 137, 138, 139, 140, 141, 142, 143, 144, 145, 146, 147, 148, 149, 150, 151, 152, 153, 154, 155, 156, 157, 158, 159, 160, 161, 162, 163, 164, 165, 166, 167, 168, 169, 170, 171, 172, 173, 174, 175, 176, 177, 178, 179, 180, 181, 182, 183, 184, 185, 186, 187, 188, 189, 190, 191, 192, 193, 194, 195, 196, 197, 198, 199, 200, 201, 202, 203, 204, 205, 206, 207, 208, 209, 210, 211, 212, 213, 214, 215, 216, 217, 218, 219, 220, 221, 222, 223, 224, 225, 226, 227, 228, 229, 230, 231, 232, 233, 234, 235, 236, 237, 238, 239, 240, 241, 242, 243, 244, 245, 246, 247, 248, 249, 250, 251, 252, 253, 254, 255, 256, 257, 258, 259, 260, 261, 262, 263, 264, 265, 266, 267, 268, 269, 270, 271, 272, 273, 274, 275, 276, 277, 278, 279, 280],
      "LargestImagePixelValue": [1140, 1226, 995, 896, 955, 909, 864, 1012, 1031, 884, 1333, 922, 909, 1380, 938, 949, 899, 912, 1313, 867, 1353, 1305, 1098, 1001, 1100, 888, 994, 1255, 892, 909, 921, 896, 976, 889, 839, 919, 894, 922, 860, 1034, 911, 1304, 1146, 928, 1037, 879, 962, 959, 838, 895, 849, 963, 1164, 813, 973, 1197, 845, 954, 1312, 933, 976, 1035, 934, 916, 932, 867, 926, 924, 1140, 1234, 979, 967, 1175, 936, 852, 971, 815, 941, 927, 1372, 1089, 931, 807, 833, 863, 818, 1225, 885, 1001, 1186, 972, 1278, 906, 990, 1061, 893, 887, 1385, 885, 892, 807, 876, 1068, 904, 858, 926, 887, 970, 957, 994, 1494, 875, 828, 850, 984, 1322, 959, 1245, 1007, 961, 859, 843, 1278, 956, 957, 1154, 878, 912, 913, 954, 845, 883, 862, 941, 891, 821, 884, 876, 888, 1196, 872, 964, 1316, 873, 996, 912, 841, 933, 883, 1065, 1247, 883, 897, 973, 870, 848, 936, 878, 927, 1146, 855, 967, 1337, 1000, 1038, 1357, 944, 1040, 1224, 909, 1384, 919, 974, 1259, 919, 995, 1132, 878, 812, 920, 869, 1163, 909, 1001, 1203, 882, 983, 1192, 860, 888, 857, 943, 879, 856, 875, 1201, 1122, 1012, 1258, 1124, 884, 869, 900, 867, 907, 907, 865, 938, 851, 846, 1002, 821, 893, 1094, 1114, 959, 1010, 1230, 904, 1286, 975, 924, 1045, 855, 906, 933, 922, 993, 1089, 975, 1336, 1019, 1002, 1163, 869, 1023, 1383, 938, 943, 940, 886, 1070, 979, 988, 1335, 1054, 979, 1124, 895, 1046, 932, 882, 1067, 1164, 879, 922, 881, 989, 1130, 864, 947, 1156, 1007, 925, 878, 931, 1245, 958, 933, 1191, 918, 1069, 956, 991, 1042, 929, 1152, 998, 1019, 1218],
      "WindowCenter": [380.0, 379.0, 376.0, 375.0, 376.0, 376.0, 376.0, 378.0, 378.0, 376.0, 380.0, 376.0, 376.0, 378.0, 375.0, 376.0, 376.0, 377.0, 380.0, 376.0, 379.0, 379.0, 376.0, 376.0, 376.0, 375.0, 376.0, 378.0, 375.0, 375.0, 374.0, 374.0, 375.0, 374.0, 374.0, 375.0, 375.0, 376.0, 375.0, 376.0, 375.0, 378.0, 377.0, 375.0, 375.0, 374.0, 375.0, 376.0, 374.0, 375.0, 375.0, 376.0, 378.0, 374.0, 375.0, 378.0, 375.0, 376.0, 379.0, 376.0, 376.0, 376.0, 375.0, 376.0, 376.0, 375.0, 376.0, 376.0, 377.0, 378.0, 376.0, 375.0, 377.0, 375.0, 374.0, 375.0, 374.0, 376.0, 375.0, 377.0, 375.0, 374.0, 373.0, 374.0, 374.0, 374.0, 377.0, 374.0, 376.0, 377.0, 376.0, 378.0, 375.0, 376.0, 377.0, 375.0, 375.0, 378.0, 374.0, 375.0, 374.0, 375.0, 377.0, 376.0, 375.0, 376.0, 376.0, 377.0, 376.0, 376.0, 379.0, 375.0, 375.0, 376.0, 377.0, 378.0, 376.0, 377.0, 375.0, 375.0, 374.0, 374.0, 377.0, 375.0, 375.0, 376.0, 374.0, 375.0, 375.0, 375.0, 375.0, 374.0, 374.0, 375.0, 375.0, 374.0, 375.0, 376.0, 376.0, 378.0, 375.0, 376.0, 378.0, 374.0, 376.0, 376.0, 375.0, 376.0, 375.0, 377.0, 378.0, 374.0, 375.0, 376.0, 374.0, 375.0, 376.0, 376.0, 377.0, 378.0, 376.0, 377.0, 379.0, 376.0, 377.0, 378.0, 376.0, 377.0, 378.0, 375.0, 378.0, 375.0, 376.0, 378.0, 375.0, 376.0, 377.0, 375.0, 374.0, 376.0, 375.0, 377.0, 375.0, 376.0, 377.0, 375.0, 375.0, 377.0, 374.0, 375.0, 374.0, 376.0, 374.0, 374.0, 375.0, 378.0, 377.0, 376.0, 377.0, 376.0, 374.0, 374.0, 374.0, 374.0, 375.0, 374.0, 374.0, 375.0, 374.0, 374.0, 377.0, 375.0, 376.0, 377.0, 377.0, 376.0, 377.0, 377.0, 375.0, 378.0, 376.0, 375.0, 376.0, 374.0, 375.0, 376.0, 376.0, 378.0, 377.0, 376.0, 378.0, 376.0, 376.0, 377.0, 374.0, 376.0, 379.0, 376.0, 376.0, 375.0, 375.0, 377.0, 376.0, 376.0, 378.0, 376.0, 375.0, 376.0, 375.0, 376.0, 376.0, 375.0, 377.0, 377.0, 374.0, 375.0, 375.0, 376.0, 377.0, 374.0, 375.0, 377.0, 375.0, 374.0, 374.0, 376.0, 378.0, 376.0, 376.0, 377.0, 375.0, 376.0, 375.0, 376.0, 377.0, 376.0, 377.0, 376.0, 377.0, 378.0],
      "WindowWidth": [807.0, 804.0, 799.0, 798.0, 800.0, 799.0, 800.0, 802.0, 802.0, 800.0, 805.0, 801.0, 800.0, 802.0, 798.0, 799.0, 801.0, 802.0, 806.0, 800.0, 804.0, 803.0, 800.0, 799.0, 799.0, 797.0, 800.0, 801.0, 798.0, 797.0, 797.0, 797.0, 798.0, 796.0, 796.0, 798.0, 798.0, 799.0, 798.0, 800.0, 798.0, 802.0, 800.0, 798.0, 798.0, 797.0, 799.0, 799.0, 797.0, 799.0, 798.0, 800.0, 802.0, 797.0, 799.0, 802.0, 798.0, 800.0, 804.0, 799.0, 800.0, 799.0, 799.0, 799.0, 800.0, 798.0, 800.0, 799.0, 801.0, 802.0, 799.0, 798.0, 800.0, 798.0, 797.0, 798.0, 796.0, 799.0, 798.0, 801.0, 798.0, 796.0, 795.0, 796.0, 797.0, 797.0, 801.0, 797.0, 799.0, 801.0, 799.0, 801.0, 798.0, 799.0, 800.0, 798.0, 798.0, 802.0, 797.0, 798.0, 797.0, 799.0, 802.0, 799.0, 798.0, 800.0, 800.0, 801.0, 799.0, 800.0, 804.0, 798.0, 799.0, 800.0, 801.0, 803.0, 799.0, 800.0, 798.0, 798.0, 797.0, 797.0, 801.0, 798.0, 799.0, 800.0, 796.0, 797.0, 797.0, 798.0, 797.0, 797.0, 797.0, 798.0, 798.0, 796.0, 798.0, 799.0, 800.0, 802.0, 798.0, 799.0, 801.0, 797.0, 799.0, 799.0, 798.0, 800.0, 799.0, 801.0, 802.0, 797.0, 798.0, 800.0, 797.0, 798.0, 801.0, 800.0, 801.0, 803.0, 800.0, 802.0, 804.0, 800.0, 801.0, 803.0, 799.0, 801.0, 802.0, 798.0, 802.0, 798.0, 799.0, 802.0, 798.0, 800.0, 801.0, 798.0, 798.0, 799.0, 798.0, 801.0, 798.0, 800.0, 801.0, 797.0, 798.0, 801.0, 797.0, 798.0, 797.0, 799.0, 797.0, 796.0, 798.0, 802.0, 801.0, 799.0, 801.0, 799.0, 797.0, 797.0, 797.0, 797.0, 798.0, 797.0, 796.0, 797.0, 796.0, 797.0, 801.0, 799.0, 801.0, 802.0, 801.0, 799.0, 800.0, 801.0, 798.0, 802.0, 799.0, 798.0, 799.0, 797.0, 798.0, 800.0, 800.0, 802.0, 802.0, 801.0, 803.0, 799.0, 799.0, 800.0, 797.0, 799.0, 803.0, 800.0, 799.0, 799.0, 798.0, 801.0, 800.0, 800.0, 802.0, 799.0, 798.0, 798.0, 798.0, 800.0, 799.0, 798.0, 800.0, 800.0, 797.0, 798.0, 798.0, 799.0, 801.0, 797.0, 798.0, 800.0, 798.0, 796.0, 797.0, 799.0, 802.0, 800.0, 799.0, 801.0, 798.0, 799.0, 798.0, 800.0, 800.0, 799.0, 801.0, 800.0, 801.0, 803.0]
    },
    "slices": {}
  }
}