{
  "AcquisitionMatrixPE": 96,
  "AcquisitionNumber": 1,
  "AcquisitionTime": "16:15:52.590000",
  "BandwidthPerPixelPhaseEncode": 18.939,
  "BaseResolution": 96,
  "BodyPartExamined": "BRAIN",
  "ConsistencyInfo": "N4_VE11C_LATEST_20160120",
  "ConversionSoftware": "dcm2niix",
  "ConversionSoftwareVersion": "v1.0.20170923 (OpenJPEG build) GCC6.3.0",
  "DerivedVendorReportedEchoSpacing": 0.000550011,
  "DeviceSerialNumber": "66112",
  "DwellTime": 2.3e-06,
  "EchoTime": 0.033,
  "EchoTrainLength": 96,
  "EffectiveEchoSpacing": 0.000550011,
  "FlipAngle": 64,
  "ImageType": [
    "ORIGINAL",
    "PRIMARY",
    "FMRI",
    "NONE",
    "ND",
    "NORM",
    "MOSAIC"
],
  "InstitutionAddress": "Maynard_3_Hanover_NH_US_03755",
  "InstitutionName": "Dartmouth_College_-_PBS",
  "MagneticFieldStrength": 3,
  "Manufacturer": "Siemens",
  "ManufacturersModelName": "Prisma",
  "Modality": "MR",
  "MultibandAccelerationFactor": 4,
  "PartialFourier": 1,
  "PercentPhaseFOV": 100,
  "PhaseEncodingDirection": "j-",
  "PhaseEncodingSteps": 96,
  "PhaseResolution": 1,
  "ProcedureStepDescription": "Gobbini_Matteo_1017_famface-angles",
  "ProtocolName": "func_run-01_task-str1back",
  "PulseSequenceDetails": "%SiemensSeq%_ep2d_bold",
  "ReceiveCoilActiveElements": "HEA;HEP",
  "ReceiveCoilName": "Head_32",
  "ReconMatrixPE": 96,
  "RepetitionTime": 1.25,
  "ScanOptions": "FS",
  "ScanningSequence": "EP",
  "SequenceName": "_epfid2d1_96",
  "SequenceVariant": "SK",
  "SeriesDescription": "func_run-01_task-str1back",
  "SliceTiming": [0.88, 0, 0.615, 0.0875, 0.7025, 0.175, 0.79, 0.3525, 0.9675, 0.44, 1.055, 0.5275, 1.1425, 0.265, 0.88, 0, 0.615, 0.0875, 0.7025, 0.175, 0.79, 0.3525, 0.9675, 0.44, 1.055, 0.5275, 1.1425, 0.265, 0.88, 0, 0.615, 0.0875, 0.7025, 0.175, 0.79, 0.3525, 0.9675, 0.44, 1.055, 0.5275, 1.1425, 0.265, 0.88, 0, 0.615, 0.0875, 0.7025, 0.175, 0.79, 0.3525, 0.9675, 0.44, 1.055, 0.5275, 1.1425, 0.265],
  "SoftwareVersions": "syngo_MR_E11",
  "StationName": "AWP66112",
  "TaskName": "str1back",
  "TotalReadoutTime": 0.0522511,
  "dcmmeta_affine": [
    [-2.4968180656433105, -0.09504520893096924, 0.08286155015230179, 126.8009033203125],
    [-0.09264481067657471, 2.4972221851348877, 0.0727931410074234, -110.70008087158203],
    [0.08553693443536758, -0.06962981820106506, 2.497565746307373, -79.99674224853516],
    [0.0, 0.0, 0.0, 1.0]
],
  "dcmmeta_reorient_transform": [
    [0.0, -1.0, 0.0, 95.0],
    [1.0, 0.0, 0.0, 0.0],
    [0.0, 0.0, 1.0, 0.0],
    [0.0, 0.0, 0.0, 1.0]
],
  "dcmmeta_shape": [96, 96, 56, 280],
  "dcmmeta_slice_dim": 2,
  "dcmmeta_version": 0.6,
  "global": {
    "const": {
      "AccessionNumber": "A000239",
      "AcquisitionMatrix": [96, 0, 0, 96],
      "AngioFlag": "N",
      "BitsAllocated": 16,
      "BitsStored": 12,
      "BodyPartExamined": "BRAIN",
      "Columns": 768,
      "EchoNumbers": 1,
      "EchoTime": 33.0,
      "EchoTrainLength": 96,
      "FlipAngle": 64.0,
      "HighBit": 11,
      "ImageOrientationPatient": [0.99872721977866, 0.03705792414142, 0.03421477358565, -0.0380180825564, 0.9988888304209, 0.02785192738566],
      "ImagePositionPatient": [-924.76728725537, -996.73128933664, -138.74760715121],
      "ImageType": [
        "ORIGINAL",
        "PRIMARY",
        "FMRI",
        "NONE",
        "ND",
        "NORM",
        "MOSAIC"
],
      "ImagedNucleus": "1H",
      "ImagingFrequency": 123.252387,
      "InPlanePhaseEncodingDirection": "COL",
      "MRAcquisitionType": "2D",
      "MagneticFieldStrength": 3.0,
      "Manufacturer": "SIEMENS",
      "ManufacturerModelName": "Prisma",
      "Modality": "MR",
      "NumberOfAverages": 1.0,
      "NumberOfPhaseEncodingSteps": 96,
      "PercentPhaseFieldOfView": 100.0,
      "PercentSampling": 100.0,
      "PerformedProcedureStepStartTime": "160145.008000",
      "PhotometricInterpretation": "MONOCHROME2",
      "PixelBandwidth": 2265.0,
      "PixelRepresentation": 0,
      "PixelSpacing": [2.5, 2.5],
      "PositionReferenceIndicator": "",
      "ProtocolName": "func_run-01_task-str1back",
      "RepetitionTime": 1250.0,
      "Rows": 768,
      "SAR": 0.05586939788993,
      "SamplesPerPixel": 1,
      "ScanOptions": "FS",
      "ScanningSequence": "EP",
      "SequenceName": "*epfid2d1_96",
      "SequenceVariant": "SK",
      "SeriesDescription": "func_run-01_task-str1back",
      "SeriesNumber": 8,
      "SeriesTime": "161554.524000",
      "SliceLocation": -78.93937051997,
      "SliceThickness": 2.5,
      "SmallestImagePixelValue": 0,
      "SoftwareVersions": "syngo MR E11",
      "SpacingBetweenSlices": 2.4999999678755,
      "SpecificCharacterSet": "ISO_IR 100",
      "StudyID": "1",
      "StudyTime": "160144.944000",
      "TransmitCoilName": "Body",
      "VariableFlipAngleFlag": "N",
      "WindowCenterWidthExplanation": "Algo1",
      "dBdt": 0.0},
    "slices": {}
  },
  "time": {
    "samples": {
      "AcquisitionNumber": [1, 2, 3, 4, 5, 6, 7, 8, 9, 10, 11, 12, 13, 14, 15, 16, 17, 18, 19, 20, 21, 22, 23, 24, 25, 26, 27, 28, 29, 30, 31, 32, 33, 34, 35, 36, 37, 38, 39, 40, 41, 42, 43, 44, 45, 46, 47, 48, 49, 50, 51, 52, 53, 54, 55, 56, 57, 58, 59, 60, 61, 62, 63, 64, 65, 66, 67, 68, 69, 70, 71, 72, 73, 74, 75, 76, 77, 78, 79, 80, 81, 82, 83, 84, 85, 86, 87, 88, 89, 90, 91, 92, 93, 94, 95, 96, 97, 98, 99, 100, 101, 102, 103, 104, 105, 106, 107, 108, 109, 110, 111, 112, 113, 114, 115, 116, 117, 118, 119, 120, 121, 122, 123, 124, 125, 126, 127, 128, 129, 130, 131, 132, 133, 134, 135, 136, 137, 138, 139, 140, 141, 142, 143, 144, 145, 146, 147, 148, 149, 150, 151, 152, 153, 154, 155, 156, 157, 158, 159, 160, 161, 162, 163, 164, 165, 166, 167, 168, 169, 170, 171, 172, 173, 174, 175, 176, 177, 178, 179, 180, 181, 182, 183, 184, 185, 186, 187, 188, 189, 190, 191, 192, 193, 194, 195, 196, 197, 198, 199, 200, 201, 202, 203, 204, 205, 206, 207, 208, 209, 210, 211, 212, 213, 214, 215, 216, 217, 218, 219, 220, 221, 222, 223, 224, 225, 226, 227, 228, 229, 230, 231, 232, 233, 234, 235, 236, 237, 238, 239, 240, 241, 242, 243, 244, 245, 246, 247, 248, 249, 250, 251, 252, 253, 254, 255, 256, 257, 258, 259, 260, 261, 262, 263, 264, 265, 266, 267, 268, 269, 270, 271, 272, 273, 274, 275, 276, 277, 278, 279, 280],
      "AcquisitionTime": ["161552.590000", "161553.840000", "161555.090000", "161556.340000", "161557.590000", "161558.840000", "161600.090000", "161601.340000", "161602.590000", "161603.840000", "161605.090000", "161606.340000", "161607.590000", "161608.840000", "161610.090000", "161611.340000", "161612.590000", "161613.840000", "161615.090000", "161616.340000", "161617.590000", "161618.840000", "161620.090000", "161621.340000", "161622.590000", "161623.840000", "161625.090000", "161626.340000", "161627.590000", "161628.840000", "161630.090000", "161631.340000", "161632.590000", "161633.840000", "161635.090000", "161636.340000", "161637.590000", "161638.840000", "161640.090000", "161641.340000", "161642.590000", "161643.840000", "161645.090000", "161646.340000", "161647.590000", "161648.840000", "161650.090000", "161651.340000", "161652.590000", "161653.840000", "161655.090000", "161656.340000", "161657.590000", "161658.840000", "161700.090000", "161701.340000", "161702.590000", "161703.840000", "161705.090000", "161706.340000", "161707.590000", "161708.840000", "161710.090000", "161711.340000", "161712.590000", "161713.840000", "161715.090000", "161716.340000", "161717.590000", "161718.840000", "161720.090000", "161721.340000", "161722.590000", "161723.840000", "161725.090000", "161726.340000", "161727.590000", "161728.840000", "161730.090000", "161731.340000", "161732.590000", "161733.840000", "161735.090000", "161736.340000", "161737.590000", "161738.840000", "161740.090000", "161741.340000", "161742.590000", "161743.840000", "161745.090000", "161746.340000", "161747.590000", "161748.840000", "161750.090000", "161751.340000", "161752.590000", "161753.840000", "161755.090000", "161756.340000", "161757.590000", "161758.840000", "161800.090000", "161801.340000", "161802.590000", "161803.840000", "161805.090000", "161806.340000", "161807.590000", "161808.840000", "161810.090000", "161811.340000", "161812.590000", "161813.840000", "161815.090000", "161816.340000", "161817.590000", "161818.840000", "161820.090000", "161821.340000", "161822.590000", "161823.840000", "161825.090000", "161826.340000", "161827.590000", "161828.840000", "161830.090000", "161831.340000", "161832.590000", "161833.840000", "161835.090000", "161836.340000", "161837.590000", "161838.840000", "161840.090000", "161841.340000", "161842.590000", "161843.840000", "161845.090000", "161846.340000", "161847.590000", "161848.840000", "161850.090000", "161851.340000", "161852.590000", "161853.840000", "161855.090000", "161856.340000", "161857.590000", "161858.840000", "161900.090000", "161901.340000", "161902.590000", "161903.840000", "161905.090000", "161906.340000", "161907.590000", "161908.840000", "161910.090000", "161911.340000", "161912.590000", "161913.840000", "161915.090000", "161916.340000", "161917.590000", "161918.840000", "161920.090000", "161921.340000", "161922.590000", "161923.840000", "161925.090000", "161926.340000", "161927.590000", "161928.840000", "161930.090000", "161931.340000", "161932.590000", "161933.840000", "161935.090000", "161936.340000", "161937.590000", "161938.840000", "161940.090000", "161941.340000", "161942.590000", "161943.840000", "161945.090000", "161946.340000", "161947.590000", "161948.840000", "161950.090000", "161951.340000", "161952.590000", "161953.840000", "161955.090000", "161956.340000", "161957.590000", "161958.840000", "162000.090000", "162001.340000", "162002.590000", "162003.840000", "162005.090000", "162006.340000", "162007.590000", "162008.840000", "162010.090000", "162011.340000", "162012.590000", "162013.840000", "162015.090000", "162016.340000", "162017.590000", "162018.840000", "162020.090000", "162021.340000", "162022.590000", "162023.840000", "162025.090000", "162026.340000", "162027.590000", "162028.840000", "162030.090000", "162031.340000", "162032.590000", "162033.840000", "162035.090000", "162036.340000", "162037.590000", "162038.840000", "162040.090000", "162041.340000", "162042.590000", "162043.840000", "162045.090000", "162046.340000", "162047.590000", "162048.840000", "162050.090000", "162051.340000", "162052.590000", "162053.840000", "162055.090000", "162056.340000", "162057.590000", "162058.840000", "162100.090000", "162101.340000", "162102.590000", "162103.840000", "162105.090000", "162106.340000", "162107.590000", "162108.840000", "162110.090000", "162111.340000", "162112.590000", "162113.840000", "162115.090000", "162116.340000", "162117.590000", "162118.840000", "162120.090000", "162121.340000", "162122.590000", "162123.840000", "162125.090000", "162126.340000", "162127.590000", "162128.840000", "162130.090000", "162131.340000", "162132.590000", "162133.840000", "162135.090000", "162136.340000", "162137.590000", "162138.840000", "162140.090000", "162141.340000"],
      "ContentTime": ["161554.527000", "161555.591000", "161556.833000", "161558.137000", "161559.381000", "161600.590000", "161601.875000", "161603.128000", "161604.338000", "161605.589000", "161606.858000", "161608.148000", "161609.320000", "161610.603000", "161611.869000", "161613.125000", "161614.358000", "161615.607000", "161616.860000", "161618.089000", "161619.384000", "161620.598000", "161621.837000", "161623.081000", "161624.338000", "161625.623000", "161626.848000", "161628.099000", "161629.410000", "161630.584000", "161631.861000", "161633.129000", "161634.334000", "161635.599000", "161636.919000", "161638.114000", "161639.351000", "161640.605000", "161641.825000", "161643.094000", "161644.330000", "161645.573000", "161646.839000", "161648.088000", "161649.364000", "161650.588000", "161651.851000", "161653.130000", "161654.362000", "161655.601000", "161656.876000", "161658.083000", "161659.393000", "161700.644000", "161701.862000", "161703.112000", "161704.357000", "161705.634000", "161706.821000", "161708.084000", "161709.366000", "161710.636000", "161711.854000", "161713.118000", "161714.369000", "161715.654000", "161716.854000", "161718.113000", "161719.358000", "161720.591000", "161721.811000", "161723.127000", "161724.331000", "161725.582000", "161726.870000", "161728.086000", "161729.342000", "161730.582000", "161731.885000", "161733.061000", "161734.345000", "161735.594000", "161736.845000", "161738.099000", "161739.361000", "161740.570000", "161741.868000", "161743.097000", "161744.336000", "161745.600000", "161746.845000", "161748.118000", "161749.359000", "161750.662000", "161751.868000", "161753.075000", "161754.373000", "161755.604000", "161756.842000", "161758.139000", "161759.370000", "161800.589000", "161801.923000", "161803.098000", "161804.372000", "161805.597000", "161806.881000", "161808.122000", "161809.358000", "161810.636000", "161811.887000", "161813.101000", "161814.343000", "161815.603000", "161816.855000", "161818.100000", "161819.358000", "161820.613000", "161821.881000", "161823.138000", "161824.399000", "161825.675000", "161826.884000", "161828.098000", "161829.380000", "161830.614000", "161831.862000", "161833.067000", "161834.360000", "161835.650000", "161836.847000", "161838.097000", "161839.380000", "161840.608000", "161841.864000", "161843.106000", "161844.399000", "161845.623000", "161846.904000", "161848.105000", "161849.406000", "161850.605000", "161851.859000", "161853.139000", "161854.327000", "161855.602000", "161856.869000", "161858.089000", "161859.354000", "161900.615000", "161901.877000", "161903.063000", "161904.346000", "161905.606000", "161906.855000", "161908.170000", "161909.385000", "161910.627000", "161911.854000", "161913.107000", "161914.313000", "161915.547000", "161916.864000", "161918.121000", "161919.338000", "161920.588000", "161921.867000", "161923.180000", "161924.381000", "161925.605000", "161926.867000", "161928.100000", "161929.341000", "161930.643000", "161931.880000", "161933.108000", "161934.354000", "161935.638000", "161936.892000", "161938.127000", "161939.359000", "161940.620000", "161941.857000", "161943.095000", "161944.354000", "161945.603000", "161946.889000", "161948.120000", "161949.409000", "161950.595000", "161951.848000", "161953.114000", "161954.388000", "161955.645000", "161956.835000", "161958.167000", "161959.341000", "162000.627000", "162001.929000", "162003.110000", "162004.347000", "162005.593000", "162006.837000", "162008.097000", "162009.369000", "162010.613000", "162011.925000", "162013.117000", "162014.358000", "162015.612000", "162016.852000", "162018.160000", "162019.369000", "162020.640000", "162021.950000", "162023.084000", "162024.355000", "162025.605000", "162026.877000", "162028.101000", "162029.360000", "162030.623000", "162031.828000", "162033.110000", "162034.396000", "162035.614000", "162036.838000", "162038.100000", "162039.340000", "162040.633000", "162041.880000", "162043.113000", "162044.347000", "162045.611000", "162046.850000", "162048.114000", "162049.352000", "162050.586000", "162051.877000", "162053.109000", "162054.399000", "162055.682000", "162056.874000", "162058.087000", "162059.365000", "162100.607000", "162101.886000", "162103.117000", "162104.367000", "162105.649000", "162106.891000", "162108.087000", "162109.362000", "162110.596000", "162111.858000", "162113.125000", "162114.370000", "162115.612000", "162116.899000", "162118.142000", "162119.353000", "162120.588000", "162121.853000", "162123.128000", "162124.358000", "162125.633000", "162126.823000", "162128.116000", "162129.374000", "162130.618000", "162131.892000", "162133.107000", "162134.374000", "162135.607000", "162136.852000", "162138.095000", "162139.348000", "162140.607000", "162141.857000", "162143.146000"],
      "InstanceCreationTime": ["161554.527000", "161555.591000", "161556.833000", "161558.137000", "161559.381000", "161600.590000", "161601.875000", "161603.128000", "161604.338000", "161605.589000", "161606.858000", "161608.148000", "161609.320000", "161610.603000", "161611.869000", "161613.125000", "161614.358000", "161615.607000", "161616.860000", "161618.089000", "161619.384000", "161620.598000", "161621.837000", "161623.081000", "161624.338000", "161625.623000", "161626.848000", "161628.099000", "161629.410000", "161630.584000", "161631.861000", "161633.129000", "161634.334000", "161635.599000", "161636.919000", "161638.114000", "161639.351000", "161640.605000", "161641.825000", "161643.094000", "161644.330000", "161645.573000", "161646.839000", "161648.088000", "161649.364000", "161650.588000", "161651.851000", "161653.130000", "161654.362000", "161655.601000", "161656.876000", "161658.083000", "161659.393000", "161700.644000", "161701.862000", "161703.112000", "161704.357000", "161705.634000", "161706.821000", "161708.084000", "161709.366000", "161710.636000", "161711.854000", "161713.118000", "161714.369000", "161715.654000", "161716.854000", "161718.113000", "161719.358000", "161720.591000", "161721.811000", "161723.127000", "161724.331000", "161725.582000", "161726.870000", "161728.086000", "161729.342000", "161730.582000", "161731.885000", "161733.061000", "161734.345000", "161735.594000", "161736.845000", "161738.099000", "161739.361000", "161740.570000", "161741.868000", "161743.097000", "161744.336000", "161745.600000", "161746.845000", "161748.118000", "161749.359000", "161750.662000", "161751.868000", "161753.075000", "161754.373000", "161755.604000", "161756.842000", "161758.139000", "161759.370000", "161800.589000", "161801.923000", "161803.098000", "161804.372000", "161805.597000", "161806.881000", "161808.122000", "161809.358000", "161810.636000", "161811.887000", "161813.101000", "161814.343000", "161815.603000", "161816.855000", "161818.100000", "161819.358000", "161820.613000", "161821.881000", "161823.138000", "161824.399000", "161825.675000", "161826.884000", "161828.098000", "161829.380000", "161830.614000", "161831.862000", "161833.067000", "161834.360000", "161835.650000", "161836.847000", "161838.097000", "161839.380000", "161840.608000", "161841.864000", "161843.106000", "161844.399000", "161845.623000", "161846.904000", "161848.105000", "161849.406000", "161850.605000", "161851.859000", "161853.139000", "161854.327000", "161855.602000", "161856.869000", "161858.089000", "161859.354000", "161900.615000", "161901.877000", "161903.063000", "161904.346000", "161905.606000", "161906.855000", "161908.170000", "161909.385000", "161910.627000", "161911.854000", "161913.107000", "161914.313000", "161915.547000", "161916.864000", "161918.121000", "161919.338000", "161920.588000", "161921.867000", "161923.180000", "161924.381000", "161925.605000", "161926.867000", "161928.100000", "161929.341000", "161930.643000", "161931.880000", "161933.108000", "161934.354000", "161935.638000", "161936.892000", "161938.127000", "161939.359000", "161940.620000", "161941.857000", "161943.095000", "161944.354000", "161945.603000", "161946.889000", "161948.120000", "161949.409000", "161950.595000", "161951.848000", "161953.114000", "161954.388000", "161955.645000", "161956.835000", "161958.167000", "161959.341000", "162000.627000", "162001.929000", "162003.110000", "162004.347000", "162005.593000", "162006.837000", "162008.097000", "162009.369000", "162010.613000", "162011.925000", "162013.117000", "162014.358000", "162015.612000", "162016.852000", "162018.160000", "162019.369000", "162020.640000", "162021.950000", "162023.084000", "162024.355000", "162025.605000", "162026.877000", "162028.101000", "162029.360000", "162030.623000", "162031.828000", "162033.110000", "162034.396000", "162035.614000", "162036.838000", "162038.100000", "162039.340000", "162040.633000", "162041.880000", "162043.113000", "162044.347000", "162045.611000", "162046.850000", "162048.114000", "162049.352000", "162050.586000", "162051.877000", "162053.109000", "162054.399000", "162055.682000", "162056.874000", "162058.087000", "162059.365000", "162100.607000", "162101.886000", "162103.117000", "162104.367000", "162105.649000", "162106.891000", "162108.087000", "162109.362000", "162110.596000", "162111.858000", "162113.125000", "162114.370000", "162115.612000", "162116.899000", "162118.142000", "162119.353000", "162120.588000", "162121.853000", "162123.128000", "162124.358000", "162125.633000", "162126.823000", "162128.116000", "162129.374000", "162130.618000", "162131.892000", "162133.107000", "162134.374000", "162135.607000", "162136.852000", "162138.095000", "162139.348000", "162140.607000", "162141.857000", "162143.146000"],
      "InstanceNumber": [1, 2, 3, 4, 5, 6, 7, 8, 9, 10, 11, 12, 13, 14, 15, 16, 17, 18, 19, 20, 21, 22, 23, 24, 25, 26, 27, 28, 29, 30, 31, 32, 33, 34, 35, 36, 37, 38, 39, 40, 41, 42, 43, 44, 45, 46, 47, 48, 49, 50, 51, 52, 53, 54, 55, 56, 57, 58, 59, 60, 61, 62, 63, 64, 65, 66, 67, 68, 69, 70, 71, 72, 73, 74, 75, 76, 77, 78, 79, 80, 81, 82, 83, 84, 85, 86, 87, 88, 89, 90, 91, 92, 93, 94, 95, 96, 97, 98, 99, 100, 101, 102, 103, 104, 105, 106, 107, 108, 109, 110, 111, 112, 113, 114, 115, 116, 117, 118, 119, 120, 121, 122, 123, 124, 125, 126, 127, 128, 129, 130, 131, 132, 133, 134, 135, 136, 137, 138, 139, 140, 141, 142, 143, 144, 145, 146, 147, 148, 149, 150, 151, 152, 153, 154, 155, 156, 157, 158, 159, 160, 161, 162, 163, 164, 165, 166, 167, 168, 169, 170, 171, 172, 173, 174, 175, 176, 177, 178, 179, 180, 181, 182, 183, 184, 185, 186, 187, 188, 189, 190, 191, 192, 193, 194, 195, 196, 197, 198, 199, 200, 201, 202, 203, 204, 205, 206, 207, 208, 209, 210, 211, 212, 213, 214, 215, 216, 217, 218, 219, 220, 221, 222, 223, 224, 225, 226, 227, 228, 229, 230, 231, 232, 233, 234, 235, 236, 237, 238, 239, 240, 241, 242, 243, 244, 245, 246, 247, 248, 249, 250, 251, 252, 253, 254, 255, 256, 257, 258, 259, 260, 261, 262, 263, 264, 265, 266, 267, 268, 269, 270, 271, 272, 273, 274, 275, 276, 277, 278, 279, 280],
      "LargestImagePixelValue": [1149, 1074, 1072, 1063, 1071, 1016, 1080, 1077, 1083, 1054, 1067, 1236, 1115, 1032, 1057, 1042, 1119, 1205, 1022, 1050, 983, 943, 1039, 977, 978, 1039, 1013, 1138, 1026, 1017, 1194, 1079, 1296, 1182, 1192, 1139, 1050, 1123, 1005, 1037, 1115, 981, 1072, 1047, 1022, 1046, 1063, 1058, 1101, 1086, 1171, 1049, 1151, 1157, 1158, 1144, 1051, 1116, 1002, 1006, 1073, 1001, 1010, 903, 1017, 910, 1009, 981, 1028, 1203, 1111, 1216, 1071, 1062, 975, 946, 1060, 1013, 1189, 1139, 1014, 1126, 1003, 1017, 1030, 1101, 1098, 1056, 1033, 970, 980, 1127, 1135, 1033, 1034, 936, 1068, 986, 1038, 1083, 1030, 1159, 1092, 1011, 1031, 1050, 941, 966, 1061, 1014, 1160, 1036, 1028, 1132, 981, 1058, 1039, 1128, 1124, 1066, 1244, 1121, 1040, 1291, 1031, 1031, 1018, 1016, 988, 944, 1063, 1095, 951, 1021, 1007, 1014, 1308, 1099, 1104, 1099, 1035, 1063, 1100, 1097, 1135, 1106, 1317, 1049, 1034, 1004, 962, 1009, 954, 1049, 1022, 998, 1031, 1095, 1207, 1152, 1142, 1194, 1034, 1017, 997, 1011, 1156, 997, 1054, 1024, 1007, 999, 1019, 1054, 1094, 1123, 1164, 1084, 1017, 1026, 1006, 1068, 957, 1073, 992, 1015, 1078, 1095, 1163, 1138, 1040, 1058, 987, 1081, 981, 1073, 1138, 1058, 1082, 1035, 1036, 1013, 1221, 1158, 999, 1032, 1052, 981, 1139, 1054, 1013, 1003, 1066, 1040, 1026, 1112, 1153, 1102, 1012, 1040, 1090, 1000, 1059, 1042, 1102, 1173, 1182, 1134, 1098, 994, 1011, 989, 1094, 1046, 1078, 1172, 1009, 1155, 1005, 1081, 1068, 1146, 1158, 1018, 1052, 995, 972, 1012, 1023, 1082, 1053, 1096, 1231, 1152, 1158, 1098, 1066, 995, 981, 1035, 1014, 1108, 1147, 1094, 1039, 1000, 1018, 1007, 1086, 1036, 1019, 1039, 1031, 1028, 1251, 1033, 1055, 1064, 1088, 1120],
      "WindowCenter": [378.0, 376.0, 376.0, 376.0, 376.0, 376.0, 376.0, 377.0, 377.0, 377.0, 377.0, 377.0, 376.0, 375.0, 375.0, 375.0, 376.0, 376.0, 375.0, 376.0, 375.0, 375.0, 375.0, 374.0, 374.0, 374.0, 375.0, 377.0, 377.0, 377.0, 377.0, 376.0, 377.0, 376.0, 376.0, 376.0, 376.0, 376.0, 374.0, 376.0, 376.0, 375.0, 376.0, 375.0, 375.0, 375.0, 376.0, 376.0, 376.0, 376.0, 376.0, 375.0, 376.0, 376.0, 376.0, 376.0, 376.0, 376.0, 374.0, 374.0, 374.0, 374.0, 375.0, 374.0, 375.0, 375.0, 375.0, 375.0, 375.0, 376.0, 375.0, 376.0, 375.0, 375.0, 374.0, 374.0, 376.0, 375.0, 376.0, 376.0, 375.0, 375.0, 375.0, 375.0, 375.0, 376.0, 376.0, 375.0, 375.0, 374.0, 374.0, 375.0, 376.0, 374.0, 374.0, 374.0, 375.0, 375.0, 376.0, 376.0, 376.0, 376.0, 376.0, 375.0, 375.0, 375.0, 373.0, 374.0, 375.0, 376.0, 376.0, 376.0, 376.0, 376.0, 375.0, 375.0, 375.0, 376.0, 375.0, 375.0, 376.0, 376.0, 376.0, 377.0, 375.0, 375.0, 375.0, 375.0, 375.0, 375.0, 375.0, 376.0, 375.0, 377.0, 377.0, 377.0, 377.0, 375.0, 375.0, 375.0, 375.0, 375.0, 376.0, 376.0, 376.0, 376.0, 377.0, 375.0, 375.0, 375.0, 375.0, 375.0, 375.0, 375.0, 375.0, 375.0, 376.0, 376.0, 376.0, 376.0, 376.0, 376.0, 375.0, 375.0, 375.0, 375.0, 375.0, 375.0, 375.0, 375.0, 375.0, 375.0, 375.0, 375.0, 376.0, 376.0, 376.0, 376.0, 375.0, 375.0, 375.0, 375.0, 375.0, 375.0, 374.0, 375.0, 375.0, 375.0, 376.0, 376.0, 376.0, 375.0, 375.0, 375.0, 375.0, 376.0, 376.0, 375.0, 375.0, 376.0, 376.0, 375.0, 376.0, 375.0, 373.0, 374.0, 375.0, 375.0, 376.0, 375.0, 375.0, 374.0, 375.0, 375.0, 375.0, 376.0, 376.0, 376.0, 375.0, 376.0, 376.0, 375.0, 375.0, 375.0, 375.0, 375.0, 375.0, 376.0, 376.0, 375.0, 376.0, 375.0, 376.0, 375.0, 375.0, 375.0, 376.0, 377.0, 375.0, 375.0, 374.0, 375.0, 375.0, 374.0, 375.0, 375.0, 375.0, 375.0, 375.0, 376.0, 375.0, 376.0, 376.0, 376.0, 376.0, 375.0, 375.0, 375.0, 375.0, 375.0, 375.0, 376.0, 376.0, 376.0, 375.0, 375.0, 375.0, 375.0, 376.0, 375.0, 375.0, 376.0, 377.0, 377.0, 378.0, 375.0, 375.0, 375.0, 375.0, 376.0],
      "WindowWidth": [803.0, 799.0, 799.0, 798.0, 799.0, 799.0, 799.0, 800.0, 801.0, 800.0, 800.0, 800.0, 798.0, 797.0, 797.0, 797.0, 798.0, 799.0, 798.0, 798.0, 798.0, 797.0, 798.0, 795.0, 795.0, 796.0, 797.0, 800.0, 800.0, 800.0, 801.0, 799.0, 800.0, 799.0, 799.0, 799.0, 799.0, 798.0, 797.0, 798.0, 798.0, 797.0, 798.0, 797.0, 798.0, 798.0, 798.0, 799.0, 799.0, 798.0, 799.0, 798.0, 799.0, 799.0, 799.0, 800.0, 799.0, 798.0, 796.0, 795.0, 796.0, 796.0, 796.0, 796.0, 797.0, 797.0, 798.0, 797.0, 798.0, 798.0, 797.0, 799.0, 797.0, 797.0, 796.0, 796.0, 798.0, 798.0, 799.0, 798.0, 797.0, 797.0, 797.0, 798.0, 798.0, 799.0, 798.0, 797.0, 797.0, 795.0, 796.0, 797.0, 798.0, 796.0, 796.0, 795.0, 798.0, 798.0, 799.0, 799.0, 799.0, 800.0, 799.0, 798.0, 798.0, 798.0, 795.0, 795.0, 797.0, 799.0, 800.0, 799.0, 799.0, 798.0, 797.0, 797.0, 798.0, 799.0, 798.0, 797.0, 799.0, 798.0, 799.0, 800.0, 798.0, 798.0, 798.0, 797.0, 797.0, 797.0, 797.0, 798.0, 798.0, 800.0, 800.0, 800.0, 800.0, 798.0, 797.0, 797.0, 798.0, 798.0, 799.0, 798.0, 798.0, 798.0, 800.0, 797.0, 797.0, 797.0, 797.0, 798.0, 797.0, 798.0, 798.0, 798.0, 799.0, 800.0, 800.0, 800.0, 800.0, 798.0, 797.0, 797.0, 797.0, 797.0, 797.0, 797.0, 798.0, 797.0, 798.0, 798.0, 798.0, 798.0, 798.0, 798.0, 799.0, 798.0, 798.0, 797.0, 797.0, 798.0, 797.0, 797.0, 796.0, 797.0, 797.0, 797.0, 799.0, 799.0, 799.0, 798.0, 797.0, 797.0, 797.0, 798.0, 798.0, 797.0, 798.0, 799.0, 799.0, 798.0, 799.0, 797.0, 794.0, 795.0, 797.0, 798.0, 799.0, 798.0, 797.0, 795.0, 797.0, 797.0, 798.0, 800.0, 799.0, 799.0, 798.0, 799.0, 800.0, 798.0, 798.0, 797.0, 797.0, 797.0, 797.0, 798.0, 798.0, 798.0, 799.0, 798.0, 799.0, 797.0, 797.0, 797.0, 799.0, 801.0, 798.0, 798.0, 796.0, 797.0, 797.0, 796.0, 797.0, 798.0, 798.0, 798.0, 798.0, 799.0, 798.0, 798.0, 799.0, 798.0, 798.0, 797.0, 797.0, 796.0, 797.0, 797.0, 797.0, 798.0, 798.0, 798.0, 798.0, 797.0, 797.0, 796.0, 798.0, 798.0, 797.0, 799.0, 800.0, 801.0, 802.0, 798.0, 797.0, 796.0, 797.0, 798.0]
    },
    "slices": {}
  }
}