{
  "AcquisitionMatrixPE": 96,
  "AcquisitionNumber": 1,
  "AcquisitionTime": "18:09:15.830000",
  "BandwidthPerPixelPhaseEncode": 18.939,
  "BaseResolution": 96,
  "BodyPartExamined": "BRAIN",
  "ConsistencyInfo": "N4_VE11C_LATEST_20160120",
  "ConversionSoftware": "dcm2niix",
  "ConversionSoftwareVersion": "v1.0.20170923 (OpenJPEG build) GCC6.3.0",
  "DerivedVendorReportedEchoSpacing": 0.000550011,
  "DeviceSerialNumber": "66112",
  "DwellTime": 2.3e-06,
  "EchoTime": 0.033,
  "EchoTrainLength": 96,
  "EffectiveEchoSpacing": 0.000550011,
  "FlipAngle": 64,
  "ImageType": [
    "ORIGINAL",
    "PRIMARY",
    "FMRI",
    "NONE",
    "ND",
    "NORM",
    "MOSAIC"
],
  "InstitutionAddress": "Maynard_3_Hanover_NH_US_03755",
  "InstitutionName": "Dartmouth_College_-_PBS",
  "MagneticFieldStrength": 3,
  "Manufacturer": "Siemens",
  "ManufacturersModelName": "Prisma",
  "Modality": "MR",
  "MultibandAccelerationFactor": 4,
  "PartialFourier": 1,
  "PercentPhaseFOV": 100,
  "PhaseEncodingDirection": "j-",
  "PhaseEncodingSteps": 96,
  "PhaseResolution": 1,
  "ProcedureStepDescription": "Gobbini_Matteo_1017_famface-angles",
  "ProtocolName": "func_run-10_task-str1back",
  "PulseSequenceDetails": "%SiemensSeq%_ep2d_bold",
  "ReceiveCoilActiveElements": "HEA;HEP",
  "ReceiveCoilName": "Head_32",
  "ReconMatrixPE": 96,
  "RepetitionTime": 1.25,
  "ScanOptions": "FS",
  "ScanningSequence": "EP",
  "SequenceName": "_epfid2d1_96",
  "SequenceVariant": "SK",
  "SeriesDescription": "func_run-10_task-str1back",
  "SliceTiming": [0.88, 0, 0.615, 0.0875, 0.7025, 0.1775, 0.7925, 0.3525, 0.9675, 0.44, 1.055, 0.5275, 1.1425, 0.265, 0.88, 0, 0.615, 0.0875, 0.7025, 0.1775, 0.7925, 0.3525, 0.9675, 0.44, 1.055, 0.5275, 1.1425, 0.265, 0.88, 0, 0.615, 0.0875, 0.7025, 0.1775, 0.7925, 0.3525, 0.9675, 0.44, 1.055, 0.5275, 1.1425, 0.265, 0.88, 0, 0.615, 0.0875, 0.7025, 0.1775, 0.7925, 0.3525, 0.9675, 0.44, 1.055, 0.5275, 1.1425, 0.265],
  "SoftwareVersions": "syngo_MR_E11",
  "StationName": "AWP66112",
  "TaskName": "str1back",
  "TotalReadoutTime": 0.0522511,
  "dcmmeta_affine": [
    [-2.491222858428955, 0.05435854196548462, 0.20212185382843018, 113.9228286743164],
    [0.06993772089481354, 2.4916422367095947, 0.19190609455108643, -118.22844696044922],
    [0.19727344810962677, -0.19688673317432404, 2.484415054321289, -90.62456512451172],
    [0.0, 0.0, 0.0, 1.0]
],
  "dcmmeta_reorient_transform": [
    [0.0, -1.0, 0.0, 95.0],
    [1.0, 0.0, 0.0, 0.0],
    [0.0, 0.0, 1.0, 0.0],
    [0.0, 0.0, 0.0, 1.0]
],
  "dcmmeta_shape": [96, 96, 56, 280],
  "dcmmeta_slice_dim": 2,
  "dcmmeta_version": 0.6,
  "global": {
    "const": {
      "AccessionNumber": "A000263",
      "AcquisitionMatrix": [96, 0, 0, 96],
      "AngioFlag": "N",
      "BitsAllocated": 16,
      "BitsStored": 12,
      "BodyPartExamined": "BRAIN",
      "Columns": 768,
      "EchoNumbers": 1,
      "EchoTime": 33.0,
      "EchoTrainLength": 96,
      "FlipAngle": 64.0,
      "HighBit": 11,
      "ImageOrientationPatient": [0.99648918930872, -0.0279750873712, 0.07890937889391, 0.02174341642298, 0.99665687304814, 0.07875469032488],
      "ImagePositionPatient": [-974.40227925893, -932.17025991825, -241.76662510238],
      "ImageType": [
        "ORIGINAL",
        "PRIMARY",
        "FMRI",
        "NONE",
        "ND",
        "NORM",
        "MOSAIC"
],
      "ImagedNucleus": "1H",
      "ImagingFrequency": 123.252404,
      "InPlanePhaseEncodingDirection": "COL",
      "MRAcquisitionType": "2D",
      "MagneticFieldStrength": 3.0,
      "Manufacturer": "SIEMENS",
      "ManufacturerModelName": "Prisma",
      "Modality": "MR",
      "NumberOfAverages": 1.0,
      "NumberOfPhaseEncodingSteps": 96,
      "PercentPhaseFieldOfView": 100.0,
      "PercentSampling": 100.0,
      "PerformedProcedureStepStartTime": "165538.599000",
      "PhotometricInterpretation": "MONOCHROME2",
      "PixelBandwidth": 2265.0,
      "PixelRepresentation": 0,
      "PixelSpacing": [2.5, 2.5],
      "PositionReferenceIndicator": "",
      "ProtocolName": "func_run-10_task-str1back",
      "RepetitionTime": 1250.0,
      "Rows": 768,
      "SAR": 0.05526268273521,
      "SamplesPerPixel": 1,
      "ScanOptions": "FS",
      "ScanningSequence": "EP",
      "SequenceName": "*epfid2d1_96",
      "SequenceVariant": "SK",
      "SeriesDescription": "func_run-10_task-str1back",
      "SeriesNumber": 71,
      "SeriesTime": "180917.252000",
      "SliceLocation": -89.924607309912,
      "SliceThickness": 2.5,
      "SmallestImagePixelValue": 0,
      "SoftwareVersions": "syngo MR E11",
      "SpacingBetweenSlices": 2.4999999737792,
      "SpecificCharacterSet": "ISO_IR 100",
      "StudyID": "2",
      "StudyTime": "165538.561000",
      "TransmitCoilName": "Body",
      "VariableFlipAngleFlag": "N",
      "WindowCenterWidthExplanation": "Algo1",
      "dBdt": 0.0},
    "slices": {}
  },
  "time": {
    "samples": {
      "AcquisitionNumber": [1, 2, 3, 4, 5, 6, 7, 8, 9, 10, 11, 12, 13, 14, 15, 16, 17, 18, 19, 20, 21, 22, 23, 24, 25, 26, 27, 28, 29, 30, 31, 32, 33, 34, 35, 36, 37, 38, 39, 40, 41, 42, 43, 44, 45, 46, 47, 48, 49, 50, 51, 52, 53, 54, 55, 56, 57, 58, 59, 60, 61, 62, 63, 64, 65, 66, 67, 68, 69, 70, 71, 72, 73, 74, 75, 76, 77, 78, 79, 80, 81, 82, 83, 84, 85, 86, 87, 88, 89, 90, 91, 92, 93, 94, 95, 96, 97, 98, 99, 100, 101, 102, 103, 104, 105, 106, 107, 108, 109, 110, 111, 112, 113, 114, 115, 116, 117, 118, 119, 120, 121, 122, 123, 124, 125, 126, 127, 128, 129, 130, 131, 132, 133, 134, 135, 136, 137, 138, 139, 140, 141, 142, 143, 144, 145, 146, 147, 148, 149, 150, 151, 152, 153, 154, 155, 156, 157, 158, 159, 160, 161, 162, 163, 164, 165, 166, 167, 168, 169, 170, 171, 172, 173, 174, 175, 176, 177, 178, 179, 180, 181, 182, 183, 184, 185, 186, 187, 188, 189, 190, 191, 192, 193, 194, 195, 196, 197, 198, 199, 200, 201, 202, 203, 204, 205, 206, 207, 208, 209, 210, 211, 212, 213, 214, 215, 216, 217, 218, 219, 220, 221, 222, 223, 224, 225, 226, 227, 228, 229, 230, 231, 232, 233, 234, 235, 236, 237, 238, 239, 240, 241, 242, 243, 244, 245, 246, 247, 248, 249, 250, 251, 252, 253, 254, 255, 256, 257, 258, 259, 260, 261, 262, 263, 264, 265, 266, 267, 268, 269, 270, 271, 272, 273, 274, 275, 276, 277, 278, 279, 280],
      "AcquisitionTime": ["180915.830000", "180917.080000", "180918.330000", "180919.580000", "180920.830000", "180922.080000", "180923.330000", "180924.580000", "180925.830000", "180927.080000", "180928.330000", "180929.580000", "180930.830000", "180932.080000", "180933.330000", "180934.580000", "180935.830000", "180937.080000", "180938.330000", "180939.580000", "180940.830000", "180942.080000", "180943.330000", "180944.580000", "180945.830000", "180947.080000", "180948.330000", "180949.580000", "180950.830000", "180952.080000", "180953.330000", "180954.580000", "180955.830000", "180957.080000", "180958.330000", "180959.580000", "181000.830000", "181002.080000", "181003.330000", "181004.580000", "181005.830000", "181007.080000", "181008.330000", "181009.580000", "181010.830000", "181012.080000", "181013.330000", "181014.580000", "181015.830000", "181017.080000", "181018.330000", "181019.580000", "181020.830000", "181022.080000", "181023.330000", "181024.580000", "181025.830000", "181027.080000", "181028.330000", "181029.580000", "181030.830000", "181032.080000", "181033.330000", "181034.580000", "181035.830000", "181037.080000", "181038.330000", "181039.580000", "181040.830000", "181042.080000", "181043.330000", "181044.580000", "181045.830000", "181047.080000", "181048.330000", "181049.580000", "181050.830000", "181052.080000", "181053.330000", "181054.580000", "181055.830000", "181057.080000", "181058.330000", "181059.580000", "181100.830000", "181102.080000", "181103.330000", "181104.580000", "181105.830000", "181107.080000", "181108.330000", "181109.580000", "181110.830000", "181112.080000", "181113.330000", "181114.580000", "181115.830000", "181117.080000", "181118.330000", "181119.580000", "181120.830000", "181122.080000", "181123.330000", "181124.580000", "181125.830000", "181127.080000", "181128.330000", "181129.580000", "181130.830000", "181132.080000", "181133.330000", "181134.580000", "181135.830000", "181137.080000", "181138.330000", "181139.580000", "181140.830000", "181142.080000", "181143.330000", "181144.580000", "181145.830000", "181147.080000", "181148.330000", "181149.580000", "181150.830000", "181152.080000", "181153.330000", "181154.580000", "181155.830000", "181157.080000", "181158.330000", "181159.580000", "181200.830000", "181202.080000", "181203.330000", "181204.580000", "181205.830000", "181207.080000", "181208.330000", "181209.580000", "181210.830000", "181212.080000", "181213.330000", "181214.580000", "181215.830000", "181217.080000", "181218.330000", "181219.580000", "181220.830000", "181222.080000", "181223.330000", "181224.580000", "181225.830000", "181227.080000", "181228.330000", "181229.580000", "181230.830000", "181232.080000", "181233.330000", "181234.580000", "181235.830000", "181237.080000", "181238.330000", "181239.580000", "181240.830000", "181242.080000", "181243.330000", "181244.580000", "181245.830000", "181247.080000", "181248.330000", "181249.580000", "181250.830000", "181252.080000", "181253.330000", "181254.580000", "181255.830000", "181257.080000", "181258.330000", "181259.580000", "181300.830000", "181302.080000", "181303.330000", "181304.580000", "181305.830000", "181307.080000", "181308.330000", "181309.580000", "181310.830000", "181312.080000", "181313.330000", "181314.580000", "181315.830000", "181317.080000", "181318.330000", "181319.580000", "181320.830000", "181322.080000", "181323.330000", "181324.580000", "181325.830000", "181327.080000", "181328.330000", "181329.580000", "181330.830000", "181332.080000", "181333.330000", "181334.580000", "181335.830000", "181337.080000", "181338.330000", "181339.580000", "181340.830000", "181342.080000", "181343.330000", "181344.580000", "181345.830000", "181347.080000", "181348.330000", "181349.580000", "181350.830000", "181352.080000", "181353.330000", "181354.580000", "181355.830000", "181357.080000", "181358.330000", "181359.580000", "181400.830000", "181402.080000", "181403.330000", "181404.580000", "181405.830000", "181407.080000", "181408.330000", "181409.580000", "181410.830000", "181412.080000", "181413.330000", "181414.580000", "181415.830000", "181417.080000", "181418.330000", "181419.580000", "181420.830000", "181422.080000", "181423.330000", "181424.580000", "181425.830000", "181427.080000", "181428.330000", "181429.580000", "181430.830000", "181432.080000", "181433.330000", "181434.580000", "181435.830000", "181437.080000", "181438.330000", "181439.580000", "181440.830000", "181442.080000", "181443.330000", "181444.580000", "181445.830000", "181447.080000", "181448.330000", "181449.580000", "181450.830000", "181452.080000", "181453.330000", "181454.580000", "181455.830000", "181457.080000", "181458.330000", "181459.580000", "181500.830000", "181502.080000", "181503.330000", "181504.580000"],
      "ContentTime": ["180917.256000", "180918.363000", "180919.572000", "180920.850000", "180922.084000", "180923.373000", "180924.587000", "180925.867000", "180927.074000", "180928.386000", "180929.553000", "180930.826000", "180932.088000", "180933.328000", "180934.611000", "180935.809000", "180937.080000", "180938.304000", "180939.581000", "180940.808000", "180942.092000", "180943.353000", "180944.571000", "180945.857000", "180947.087000", "180948.313000", "180949.579000", "180950.839000", "180952.101000", "180953.332000", "180954.585000", "180955.812000", "180957.054000", "180958.308000", "180959.566000", "181000.836000", "181002.072000", "181003.303000", "181004.579000", "181005.822000", "181007.101000", "181008.327000", "181009.573000", "181010.799000", "181012.098000", "181013.337000", "181014.578000", "181015.850000", "181017.077000", "181018.339000", "181019.603000", "181020.826000", "181022.111000", "181023.341000", "181024.559000", "181025.846000", "181027.085000", "181028.309000", "181029.587000", "181030.852000", "181032.091000", "181033.336000", "181034.564000", "181035.821000", "181037.137000", "181038.313000", "181039.601000", "181040.824000", "181042.064000", "181043.319000", "181044.534000", "181045.805000", "181047.074000", "181048.319000", "181049.599000", "181050.813000", "181052.078000", "181053.321000", "181054.569000", "181055.845000", "181057.102000", "181058.330000", "181059.586000", "181100.827000", "181102.080000", "181103.329000", "181104.609000", "181105.802000", "181107.065000", "181108.306000", "181109.583000", "181110.867000", "181112.044000", "181113.343000", "181114.566000", "181115.801000", "181117.071000", "181118.307000", "181119.562000", "181120.807000", "181122.082000", "181123.307000", "181124.580000", "181125.845000", "181127.079000", "181128.335000", "181129.595000", "181130.852000", "181132.079000", "181133.372000", "181134.591000", "181135.817000", "181137.076000", "181138.355000", "181139.580000", "181140.846000", "181142.073000", "181143.341000", "181144.590000", "181145.881000", "181147.103000", "181148.325000", "181149.588000", "181150.847000", "181152.094000", "181153.379000", "181154.617000", "181155.881000", "181157.083000", "181158.377000", "181159.562000", "181200.821000", "181202.078000", "181203.322000", "181204.604000", "181205.828000", "181207.083000", "181208.356000", "181209.584000", "181210.796000", "181212.115000", "181213.348000", "181214.587000", "181215.876000", "181217.083000", "181218.343000", "181219.567000", "181220.842000", "181222.085000", "181223.332000", "181224.600000", "181225.843000", "181227.080000", "181228.340000", "181229.589000", "181230.840000", "181232.060000", "181233.329000", "181234.594000", "181235.854000", "181237.081000", "181238.331000", "181239.539000", "181240.846000", "181242.129000", "181243.363000", "181244.561000", "181245.903000", "181247.134000", "181248.347000", "181249.596000", "181250.821000", "181252.091000", "181253.349000", "181254.576000", "181255.834000", "181257.082000", "181258.346000", "181259.580000", "181300.837000", "181302.089000", "181303.349000", "181304.581000", "181305.853000", "181307.100000", "181308.331000", "181309.582000", "181310.842000", "181312.085000", "181313.348000", "181314.589000", "181315.825000", "181317.065000", "181318.338000", "181319.603000", "181320.860000", "181322.115000", "181323.342000", "181324.575000", "181325.829000", "181327.082000", "181328.315000", "181329.572000", "181330.810000", "181332.077000", "181333.309000", "181334.571000", "181335.856000", "181337.102000", "181338.353000", "181339.625000", "181340.856000", "181342.053000", "181343.340000", "181344.592000", "181345.848000", "181347.078000", "181348.338000", "181349.569000", "181350.814000", "181352.144000", "181353.331000", "181354.595000", "181355.821000", "181357.076000", "181358.357000", "181359.585000", "181400.825000", "181402.076000", "181403.322000", "181404.557000", "181405.812000", "181407.053000", "181408.319000", "181409.570000", "181410.848000", "181412.116000", "181413.328000", "181414.612000", "181415.812000", "181417.083000", "181418.363000", "181419.614000", "181420.794000", "181422.082000", "181423.340000", "181424.584000", "181425.833000", "181427.127000", "181428.311000", "181429.585000", "181430.833000", "181432.084000", "181433.325000", "181434.575000", "181435.834000", "181437.133000", "181438.376000", "181439.584000", "181440.804000", "181442.082000", "181443.342000", "181444.592000", "181445.814000", "181447.087000", "181448.312000", "181449.631000", "181450.856000", "181452.077000", "181453.322000", "181454.568000", "181455.843000", "181457.089000", "181458.345000", "181459.578000", "181500.819000", "181502.082000", "181503.302000", "181504.607000", "181505.884000"],
      "InstanceCreationTime": ["180917.256000", "180918.363000", "180919.572000", "180920.850000", "180922.084000", "180923.373000", "180924.587000", "180925.867000", "180927.074000", "180928.386000", "180929.553000", "180930.826000", "180932.088000", "180933.328000", "180934.611000", "180935.809000", "180937.080000", "180938.304000", "180939.581000", "180940.808000", "180942.092000", "180943.353000", "180944.571000", "180945.857000", "180947.087000", "180948.313000", "180949.579000", "180950.839000", "180952.101000", "180953.332000", "180954.585000", "180955.812000", "180957.054000", "180958.308000", "180959.566000", "181000.836000", "181002.072000", "181003.303000", "181004.579000", "181005.822000", "181007.101000", "181008.327000", "181009.573000", "181010.799000", "181012.098000", "181013.337000", "181014.578000", "181015.850000", "181017.077000", "181018.339000", "181019.603000", "181020.826000", "181022.111000", "181023.341000", "181024.559000", "181025.846000", "181027.085000", "181028.309000", "181029.587000", "181030.852000", "181032.091000", "181033.336000", "181034.564000", "181035.821000", "181037.137000", "181038.313000", "181039.601000", "181040.824000", "181042.064000", "181043.319000", "181044.534000", "181045.805000", "181047.074000", "181048.319000", "181049.599000", "181050.813000", "181052.078000", "181053.321000", "181054.569000", "181055.845000", "181057.102000", "181058.330000", "181059.586000", "181100.827000", "181102.080000", "181103.329000", "181104.609000", "181105.802000", "181107.065000", "181108.306000", "181109.583000", "181110.867000", "181112.044000", "181113.343000", "181114.566000", "181115.801000", "181117.071000", "181118.307000", "181119.562000", "181120.807000", "181122.082000", "181123.307000", "181124.580000", "181125.845000", "181127.079000", "181128.335000", "181129.595000", "181130.852000", "181132.079000", "181133.372000", "181134.591000", "181135.817000", "181137.076000", "181138.355000", "181139.580000", "181140.846000", "181142.073000", "181143.341000", "181144.590000", "181145.881000", "181147.103000", "181148.325000", "181149.588000", "181150.847000", "181152.094000", "181153.379000", "181154.617000", "181155.881000", "181157.083000", "181158.377000", "181159.562000", "181200.821000", "181202.078000", "181203.322000", "181204.604000", "181205.828000", "181207.083000", "181208.356000", "181209.584000", "181210.796000", "181212.115000", "181213.348000", "181214.587000", "181215.876000", "181217.083000", "181218.343000", "181219.567000", "181220.842000", "181222.085000", "181223.332000", "181224.600000", "181225.843000", "181227.080000", "181228.340000", "181229.589000", "181230.840000", "181232.060000", "181233.329000", "181234.594000", "181235.854000", "181237.081000", "181238.331000", "181239.539000", "181240.846000", "181242.129000", "181243.363000", "181244.561000", "181245.903000", "181247.134000", "181248.347000", "181249.596000", "181250.821000", "181252.091000", "181253.349000", "181254.576000", "181255.834000", "181257.082000", "181258.346000", "181259.580000", "181300.837000", "181302.089000", "181303.349000", "181304.581000", "181305.853000", "181307.100000", "181308.331000", "181309.582000", "181310.842000", "181312.085000", "181313.348000", "181314.589000", "181315.825000", "181317.065000", "181318.338000", "181319.603000", "181320.860000", "181322.115000", "181323.342000", "181324.575000", "181325.829000", "181327.082000", "181328.315000", "181329.572000", "181330.810000", "181332.077000", "181333.309000", "181334.571000", "181335.856000", "181337.102000", "181338.353000", "181339.625000", "181340.856000", "181342.053000", "181343.340000", "181344.592000", "181345.848000", "181347.078000", "181348.338000", "181349.569000", "181350.814000", "181352.144000", "181353.331000", "181354.595000", "181355.821000", "181357.076000", "181358.357000", "181359.585000", "181400.825000", "181402.076000", "181403.322000", "181404.557000", "181405.812000", "181407.053000", "181408.319000", "181409.570000", "181410.848000", "181412.116000", "181413.328000", "181414.612000", "181415.812000", "181417.083000", "181418.363000", "181419.614000", "181420.794000", "181422.082000", "181423.340000", "181424.584000", "181425.833000", "181427.127000", "181428.311000", "181429.585000", "181430.833000", "181432.084000", "181433.325000", "181434.575000", "181435.834000", "181437.133000", "181438.376000", "181439.584000", "181440.804000", "181442.082000", "181443.342000", "181444.592000", "181445.814000", "181447.087000", "181448.312000", "181449.631000", "181450.856000", "181452.077000", "181453.322000", "181454.568000", "181455.843000", "181457.089000", "181458.345000", "181459.578000", "181500.819000", "181502.082000", "181503.302000", "181504.607000", "181505.884000"],
      "InstanceNumber": [1, 2, 3, 4, 5, 6, 7, 8, 9, 10, 11, 12, 13, 14, 15, 16, 17, 18, 19, 20, 21, 22, 23, 24, 25, 26, 27, 28, 29, 30, 31, 32, 33, 34, 35, 36, 37, 38, 39, 40, 41, 42, 43, 44, 45, 46, 47, 48, 49, 50, 51, 52, 53, 54, 55, 56, 57, 58, 59, 60, 61, 62, 63, 64, 65, 66, 67, 68, 69, 70, 71, 72, 73, 74, 75, 76, 77, 78, 79, 80, 81, 82, 83, 84, 85, 86, 87, 88, 89, 90, 91, 92, 93, 94, 95, 96, 97, 98, 99, 100, 101, 102, 103, 104, 105, 106, 107, 108, 109, 110, 111, 112, 113, 114, 115, 116, 117, 118, 119, 120, 121, 122, 123, 124, 125, 126, 127, 128, 129, 130, 131, 132, 133, 134, 135, 136, 137, 138, 139, 140, 141, 142, 143, 144, 145, 146, 147, 148, 149, 150, 151, 152, 153, 154, 155, 156, 157, 158, 159, 160, 161, 162, 163, 164, 165, 166, 167, 168, 169, 170, 171, 172, 173, 174, 175, 176, 177, 178, 179, 180, 181, 182, 183, 184, 185, 186, 187, 188, 189, 190, 191, 192, 193, 194, 195, 196, 197, 198, 199, 200, 201, 202, 203, 204, 205, 206, 207, 208, 209, 210, 211, 212, 213, 214, 215, 216, 217, 218, 219, 220, 221, 222, 223, 224, 225, 226, 227, 228, 229, 230, 231, 232, 233, 234, 235, 236, 237, 238, 239, 240, 241, 242, 243, 244, 245, 246, 247, 248, 249, 250, 251, 252, 253, 254, 255, 256, 257, 258, 259, 260, 261, 262, 263, 264, 265, 266, 267, 268, 269, 270, 271, 272, 273, 274, 275, 276, 277, 278, 279, 280],
      "LargestImagePixelValue": [1042, 1076, 1726, 1262, 1009, 1615, 1819, 1443, 1233, 977, 975, 1005, 1114, 1067, 1660, 1606, 1605, 1240, 991, 1569, 1266, 1225, 1000, 979, 973, 1029, 1562, 953, 1567, 1602, 1300, 1176, 1137, 1242, 1287, 1130, 1092, 1204, 1050, 1453, 1059, 1083, 1090, 1067, 1458, 1046, 1127, 1111, 1485, 1137, 1069, 1148, 1221, 1016, 1529, 1413, 1535, 1087, 1075, 905, 1019, 1348, 1147, 1546, 1052, 1645, 1601, 963, 1117, 1422, 1171, 1650, 1109, 1093, 1254, 1115, 1368, 1059, 1131, 1139, 1045, 1202, 1239, 1252, 1231, 1112, 1179, 1275, 1204, 1224, 1106, 1176, 1329, 1236, 1108, 1105, 985, 1102, 1284, 1247, 1659, 1543, 1015, 999, 927, 939, 998, 1316, 1590, 1547, 1521, 1133, 1335, 1164, 1259, 1309, 1157, 1407, 1206, 1194, 1124, 987, 933, 1258, 1700, 1637, 1376, 1289, 996, 996, 953, 961, 1430, 1458, 1685, 1304, 1257, 1261, 970, 1070, 1128, 981, 1103, 1554, 1357, 1693, 1636, 1236, 1055, 1010, 1070, 1183, 1308, 1483, 1320, 1068, 1196, 1089, 1667, 1676, 1322, 1201, 1095, 1587, 1271, 1131, 960, 952, 1490, 1411, 1620, 1159, 1078, 1367, 1219, 1193, 1547, 1362, 1169, 1118, 956, 1172, 1018, 1083, 985, 1110, 1417, 1154, 1416, 1508, 953, 1338, 1258, 1506, 1139, 1131, 1400, 998, 1097, 1203, 1106, 1441, 1611, 1212, 1362, 951, 1025, 1206, 1046, 1229, 1367, 1225, 1374, 1471, 1162, 1396, 1292, 1209, 1461, 1375, 1321, 1120, 1168, 1111, 1129, 1300, 1470, 1454, 1269, 1041, 1127, 1215, 1015, 1196, 1191, 1113, 1196, 1134, 1544, 1414, 1196, 1271, 1080, 967, 1599, 1383, 1248, 1356, 1199, 953, 1672, 1485, 1536, 1218, 1110, 1053, 1069, 1589, 1537, 1182, 1063, 911, 1033, 1104, 1294, 1553, 1484, 1103, 1062, 946, 1249, 1034, 1422, 1512, 1200, 1583, 1620, 1442, 1209, 1098],
      "WindowCenter": [403.0, 403.0, 406.0, 403.0, 401.0, 405.0, 405.0, 403.0, 402.0, 400.0, 401.0, 402.0, 403.0, 402.0, 405.0, 405.0, 405.0, 403.0, 402.0, 406.0, 405.0, 403.0, 401.0, 402.0, 402.0, 402.0, 406.0, 402.0, 407.0, 406.0, 404.0, 404.0, 404.0, 404.0, 404.0, 403.0, 402.0, 402.0, 401.0, 404.0, 402.0, 403.0, 404.0, 403.0, 405.0, 402.0, 403.0, 403.0, 405.0, 403.0, 403.0, 405.0, 404.0, 402.0, 406.0, 405.0, 405.0, 402.0, 402.0, 402.0, 404.0, 406.0, 404.0, 406.0, 403.0, 406.0, 405.0, 402.0, 402.0, 405.0, 403.0, 406.0, 403.0, 402.0, 404.0, 402.0, 405.0, 402.0, 403.0, 403.0, 402.0, 403.0, 404.0, 403.0, 403.0, 403.0, 403.0, 404.0, 403.0, 404.0, 403.0, 405.0, 405.0, 404.0, 403.0, 403.0, 403.0, 405.0, 405.0, 405.0, 407.0, 405.0, 402.0, 402.0, 402.0, 401.0, 402.0, 406.0, 407.0, 405.0, 403.0, 401.0, 404.0, 403.0, 404.0, 404.0, 403.0, 405.0, 403.0, 404.0, 403.0, 402.0, 401.0, 403.0, 406.0, 405.0, 404.0, 403.0, 401.0, 401.0, 402.0, 403.0, 405.0, 405.0, 405.0, 403.0, 403.0, 403.0, 401.0, 402.0, 405.0, 403.0, 404.0, 407.0, 405.0, 406.0, 405.0, 403.0, 402.0, 402.0, 403.0, 404.0, 404.0, 404.0, 404.0, 402.0, 403.0, 402.0, 406.0, 406.0, 403.0, 403.0, 403.0, 405.0, 403.0, 403.0, 402.0, 402.0, 406.0, 404.0, 405.0, 403.0, 403.0, 406.0, 404.0, 403.0, 406.0, 404.0, 403.0, 402.0, 402.0, 403.0, 403.0, 403.0, 402.0, 403.0, 405.0, 403.0, 405.0, 405.0, 402.0, 405.0, 404.0, 406.0, 403.0, 402.0, 404.0, 403.0, 403.0, 405.0, 404.0, 407.0, 406.0, 403.0, 404.0, 402.0, 403.0, 405.0, 404.0, 405.0, 406.0, 405.0, 406.0, 405.0, 404.0, 406.0, 405.0, 404.0, 406.0, 405.0, 405.0, 403.0, 404.0, 403.0, 404.0, 405.0, 406.0, 405.0, 403.0, 402.0, 403.0, 404.0, 403.0, 404.0, 404.0, 403.0, 405.0, 404.0, 406.0, 405.0, 404.0, 404.0, 404.0, 403.0, 407.0, 405.0, 405.0, 405.0, 404.0, 401.0, 407.0, 405.0, 404.0, 402.0, 402.0, 403.0, 402.0, 405.0, 404.0, 402.0, 402.0, 401.0, 402.0, 404.0, 405.0, 405.0, 405.0, 402.0, 402.0, 401.0, 404.0, 403.0, 405.0, 405.0, 404.0, 405.0, 405.0, 404.0, 403.0, 403.0],
      "WindowWidth": [856.0, 854.0, 858.0, 854.0, 851.0, 856.0, 857.0, 853.0, 852.0, 849.0, 850.0, 852.0, 855.0, 852.0, 856.0, 856.0, 856.0, 853.0, 852.0, 859.0, 857.0, 854.0, 851.0, 852.0, 852.0, 852.0, 858.0, 852.0, 860.0, 858.0, 856.0, 855.0, 855.0, 856.0, 856.0, 854.0, 852.0, 852.0, 851.0, 855.0, 852.0, 854.0, 855.0, 854.0, 857.0, 852.0, 853.0, 854.0, 857.0, 854.0, 855.0, 857.0, 856.0, 853.0, 858.0, 856.0, 856.0, 852.0, 853.0, 853.0, 856.0, 858.0, 855.0, 858.0, 854.0, 858.0, 857.0, 852.0, 853.0, 857.0, 854.0, 857.0, 853.0, 852.0, 855.0, 852.0, 856.0, 852.0, 854.0, 854.0, 852.0, 854.0, 855.0, 854.0, 853.0, 854.0, 853.0, 856.0, 854.0, 855.0, 855.0, 856.0, 857.0, 855.0, 854.0, 855.0, 855.0, 858.0, 858.0, 857.0, 859.0, 857.0, 852.0, 853.0, 852.0, 852.0, 853.0, 859.0, 861.0, 857.0, 854.0, 851.0, 855.0, 853.0, 854.0, 855.0, 854.0, 856.0, 854.0, 855.0, 854.0, 852.0, 850.0, 854.0, 858.0, 857.0, 854.0, 853.0, 851.0, 851.0, 852.0, 853.0, 857.0, 857.0, 857.0, 854.0, 853.0, 853.0, 850.0, 853.0, 857.0, 855.0, 856.0, 860.0, 856.0, 859.0, 857.0, 854.0, 852.0, 852.0, 853.0, 855.0, 855.0, 856.0, 854.0, 851.0, 854.0, 853.0, 858.0, 858.0, 854.0, 853.0, 853.0, 857.0, 854.0, 854.0, 853.0, 853.0, 858.0, 856.0, 856.0, 853.0, 854.0, 858.0, 856.0, 854.0, 858.0, 854.0, 853.0, 853.0, 852.0, 854.0, 854.0, 854.0, 853.0, 854.0, 856.0, 853.0, 856.0, 857.0, 852.0, 857.0, 855.0, 858.0, 853.0, 852.0, 856.0, 854.0, 854.0, 857.0, 856.0, 860.0, 858.0, 854.0, 855.0, 852.0, 853.0, 857.0, 856.0, 858.0, 859.0, 857.0, 858.0, 858.0, 856.0, 858.0, 858.0, 855.0, 859.0, 856.0, 857.0, 854.0, 855.0, 854.0, 855.0, 857.0, 858.0, 857.0, 853.0, 852.0, 854.0, 856.0, 854.0, 856.0, 855.0, 854.0, 856.0, 855.0, 859.0, 857.0, 855.0, 856.0, 855.0, 854.0, 861.0, 857.0, 856.0, 856.0, 855.0, 851.0, 860.0, 857.0, 855.0, 852.0, 852.0, 853.0, 852.0, 857.0, 855.0, 852.0, 852.0, 851.0, 853.0, 855.0, 857.0, 856.0, 856.0, 851.0, 852.0, 851.0, 855.0, 854.0, 857.0, 857.0, 855.0, 857.0, 857.0, 854.0, 853.0, 854.0]
    },
    "slices": {}
  }
}