{
  "AcquisitionMatrixPE": 96,
  "AcquisitionNumber": 1,
  "AcquisitionTime": "17:49:48.267500",
  "BandwidthPerPixelPhaseEncode": 18.939,
  "BaseResolution": 96,
  "BodyPartExamined": "BRAIN",
  "ConsistencyInfo": "N4_VE11C_LATEST_20160120",
  "ConversionSoftware": "dcm2niix",
  "ConversionSoftwareVersion": "v1.0.20170923 (OpenJPEG build) GCC6.3.0",
  "DerivedVendorReportedEchoSpacing": 0.000550011,
  "DeviceSerialNumber": "66112",
  "DwellTime": 2.3e-06,
  "EchoTime": 0.033,
  "EchoTrainLength": 96,
  "EffectiveEchoSpacing": 0.000550011,
  "FlipAngle": 64,
  "ImageType": [
    "ORIGINAL",
    "PRIMARY",
    "FMRI",
    "NONE",
    "ND",
    "NORM",
    "MOSAIC"
],
  "InstitutionAddress": "Maynard_3_Hanover_NH_US_03755",
  "InstitutionName": "Dartmouth_College_-_PBS",
  "MagneticFieldStrength": 3,
  "Manufacturer": "Siemens",
  "ManufacturersModelName": "Prisma",
  "Modality": "MR",
  "MultibandAccelerationFactor": 4,
  "PartialFourier": 1,
  "PercentPhaseFOV": 100,
  "PhaseEncodingDirection": "j-",
  "PhaseEncodingSteps": 96,
  "PhaseResolution": 1,
  "ProcedureStepDescription": "Gobbini_Matteo_1017_famface-angles",
  "ProtocolName": "func_run-07_task-fam1back",
  "PulseSequenceDetails": "%SiemensSeq%_ep2d_bold",
  "ReceiveCoilActiveElements": "HEA;HEP",
  "ReceiveCoilName": "Head_32",
  "ReconMatrixPE": 96,
  "RepetitionTime": 1.25,
  "ScanOptions": "FS",
  "ScanningSequence": "EP",
  "SequenceName": "_epfid2d1_96",
  "SequenceVariant": "SK",
  "SeriesDescription": "func_run-07_task-fam1back",
  "SliceTiming": [0.88, 0, 0.615, 0.09, 0.7025, 0.1775, 0.7925, 0.3525, 0.9675, 0.44, 1.055, 0.5275, 1.1425, 0.265, 0.88, 0, 0.615, 0.09, 0.7025, 0.1775, 0.7925, 0.3525, 0.9675, 0.44, 1.055, 0.5275, 1.1425, 0.265, 0.88, 0, 0.615, 0.09, 0.7025, 0.1775, 0.7925, 0.3525, 0.9675, 0.44, 1.055, 0.5275, 1.1425, 0.265, 0.88, 0, 0.615, 0.09, 0.7025, 0.1775, 0.7925, 0.3525, 0.9675, 0.44, 1.055, 0.5275, 1.1425, 0.265],
  "SoftwareVersions": "syngo_MR_E11",
  "StationName": "AWP66112",
  "TaskName": "fam1back",
  "TotalReadoutTime": 0.0522511,
  "dcmmeta_affine": [
    [-2.491222858428955, 0.05435854196548462, 0.20212185382843018, 113.9228286743164],
    [0.06993772089481354, 2.4916422367095947, 0.19190609455108643, -118.22844696044922],
    [0.19727344810962677, -0.19688673317432404, 2.484415054321289, -90.62456512451172],
    [0.0, 0.0, 0.0, 1.0]
],
  "dcmmeta_reorient_transform": [
    [0.0, -1.0, 0.0, 95.0],
    [1.0, 0.0, 0.0, 0.0],
    [0.0, 0.0, 1.0, 0.0],
    [0.0, 0.0, 0.0, 1.0]
],
  "dcmmeta_shape": [96, 96, 56, 280],
  "dcmmeta_slice_dim": 2,
  "dcmmeta_version": 0.6,
  "global": {
    "const": {
      "AccessionNumber": "A000263",
      "AcquisitionMatrix": [96, 0, 0, 96],
      "AngioFlag": "N",
      "BitsAllocated": 16,
      "BitsStored": 12,
      "BodyPartExamined": "BRAIN",
      "Columns": 768,
      "EchoNumbers": 1,
      "EchoTime": 33.0,
      "EchoTrainLength": 96,
      "FlipAngle": 64.0,
      "HighBit": 11,
      "ImageOrientationPatient": [0.99648918930872, -0.0279750873712, 0.07890937889391, 0.02174341642298, 0.99665687304814, 0.07875469032488],
      "ImagePositionPatient": [-974.40227925893, -932.17025991825, -241.76662510238],
      "ImageType": [
        "ORIGINAL",
        "PRIMARY",
        "FMRI",
        "NONE",
        "ND",
        "NORM",
        "MOSAIC"
],
      "ImagedNucleus": "1H",
      "ImagingFrequency": 123.252402,
      "InPlanePhaseEncodingDirection": "COL",
      "MRAcquisitionType": "2D",
      "MagneticFieldStrength": 3.0,
      "Manufacturer": "SIEMENS",
      "ManufacturerModelName": "Prisma",
      "Modality": "MR",
      "NumberOfAverages": 1.0,
      "NumberOfPhaseEncodingSteps": 96,
      "PercentPhaseFieldOfView": 100.0,
      "PercentSampling": 100.0,
      "PerformedProcedureStepStartTime": "165538.599000",
      "PhotometricInterpretation": "MONOCHROME2",
      "PixelBandwidth": 2265.0,
      "PixelRepresentation": 0,
      "PixelSpacing": [2.5, 2.5],
      "PositionReferenceIndicator": "",
      "ProtocolName": "func_run-07_task-fam1back",
      "RepetitionTime": 1250.0,
      "Rows": 768,
      "SAR": 0.05526268273521,
      "SamplesPerPixel": 1,
      "ScanOptions": "FS",
      "ScanningSequence": "EP",
      "SequenceName": "*epfid2d1_96",
      "SequenceVariant": "SK",
      "SeriesDescription": "func_run-07_task-fam1back",
      "SeriesNumber": 50,
      "SeriesTime": "174949.291000",
      "SliceLocation": -89.924607309912,
      "SliceThickness": 2.5,
      "SmallestImagePixelValue": 0,
      "SoftwareVersions": "syngo MR E11",
      "SpacingBetweenSlices": 2.4999999737792,
      "SpecificCharacterSet": "ISO_IR 100",
      "StudyID": "2",
      "StudyTime": "165538.561000",
      "TransmitCoilName": "Body",
      "VariableFlipAngleFlag": "N",
      "WindowCenterWidthExplanation": "Algo1",
      "dBdt": 0.0},
    "slices": {}
  },
  "time": {
    "samples": {
      "AcquisitionNumber": [1, 2, 3, 4, 5, 6, 7, 8, 9, 10, 11, 12, 13, 14, 15, 16, 17, 18, 19, 20, 21, 22, 23, 24, 25, 26, 27, 28, 29, 30, 31, 32, 33, 34, 35, 36, 37, 38, 39, 40, 41, 42, 43, 44, 45, 46, 47, 48, 49, 50, 51, 52, 53, 54, 55, 56, 57, 58, 59, 60, 61, 62, 63, 64, 65, 66, 67, 68, 69, 70, 71, 72, 73, 74, 75, 76, 77, 78, 79, 80, 81, 82, 83, 84, 85, 86, 87, 88, 89, 90, 91, 92, 93, 94, 95, 96, 97, 98, 99, 100, 101, 102, 103, 104, 105, 106, 107, 108, 109, 110, 111, 112, 113, 114, 115, 116, 117, 118, 119, 120, 121, 122, 123, 124, 125, 126, 127, 128, 129, 130, 131, 132, 133, 134, 135, 136, 137, 138, 139, 140, 141, 142, 143, 144, 145, 146, 147, 148, 149, 150, 151, 152, 153, 154, 155, 156, 157, 158, 159, 160, 161, 162, 163, 164, 165, 166, 167, 168, 169, 170, 171, 172, 173, 174, 175, 176, 177, 178, 179, 180, 181, 182, 183, 184, 185, 186, 187, 188, 189, 190, 191, 192, 193, 194, 195, 196, 197, 198, 199, 200, 201, 202, 203, 204, 205, 206, 207, 208, 209, 210, 211, 212, 213, 214, 215, 216, 217, 218, 219, 220, 221, 222, 223, 224, 225, 226, 227, 228, 229, 230, 231, 232, 233, 234, 235, 236, 237, 238, 239, 240, 241, 242, 243, 244, 245, 246, 247, 248, 249, 250, 251, 252, 253, 254, 255, 256, 257, 258, 259, 260, 261, 262, 263, 264, 265, 266, 267, 268, 269, 270, 271, 272, 273, 274, 275, 276, 277, 278, 279, 280],
      "AcquisitionTime": ["174948.267500", "174949.517500", "174950.767500", "174952.017500", "174953.267500", "174954.517500", "174955.767500", "174957.017500", "174958.267500", "174959.517500", "175000.767500", "175002.017500", "175003.267500", "175004.517500", "175005.767500", "175007.017500", "175008.267500", "175009.517500", "175010.767500", "175012.017500", "175013.267500", "175014.517500", "175015.767500", "175017.017500", "175018.267500", "175019.517500", "175020.767500", "175022.017500", "175023.267500", "175024.517500", "175025.767500", "175027.017500", "175028.267500", "175029.517500", "175030.767500", "175032.017500", "175033.267500", "175034.517500", "175035.767500", "175037.017500", "175038.267500", "175039.517500", "175040.767500", "175042.017500", "175043.267500", "175044.517500", "175045.767500", "175047.017500", "175048.267500", "175049.517500", "175050.767500", "175052.017500", "175053.267500", "175054.517500", "175055.767500", "175057.017500", "175058.267500", "175059.517500", "175100.767500", "175102.017500", "175103.267500", "175104.517500", "175105.767500", "175107.017500", "175108.267500", "175109.517500", "175110.767500", "175112.017500", "175113.267500", "175114.517500", "175115.767500", "175117.017500", "175118.267500", "175119.517500", "175120.767500", "175122.017500", "175123.267500", "175124.517500", "175125.767500", "175127.017500", "175128.267500", "175129.517500", "175130.767500", "175132.017500", "175133.267500", "175134.517500", "175135.767500", "175137.017500", "175138.267500", "175139.517500", "175140.767500", "175142.017500", "175143.267500", "175144.517500", "175145.767500", "175147.017500", "175148.267500", "175149.517500", "175150.767500", "175152.017500", "175153.267500", "175154.517500", "175155.767500", "175157.017500", "175158.267500", "175159.517500", "175200.767500", "175202.017500", "175203.267500", "175204.517500", "175205.767500", "175207.017500", "175208.267500", "175209.517500", "175210.767500", "175212.017500", "175213.267500", "175214.517500", "175215.767500", "175217.017500", "175218.267500", "175219.517500", "175220.767500", "175222.017500", "175223.267500", "175224.517500", "175225.767500", "175227.017500", "175228.267500", "175229.517500", "175230.767500", "175232.017500", "175233.267500", "175234.517500", "175235.767500", "175237.017500", "175238.267500", "175239.517500", "175240.767500", "175242.017500", "175243.267500", "175244.517500", "175245.767500", "175247.017500", "175248.267500", "175249.517500", "175250.767500", "175252.017500", "175253.267500", "175254.517500", "175255.767500", "175257.017500", "175258.267500", "175259.517500", "175300.767500", "175302.017500", "175303.267500", "175304.517500", "175305.767500", "175307.017500", "175308.267500", "175309.517500", "175310.767500", "175312.017500", "175313.267500", "175314.517500", "175315.767500", "175317.017500", "175318.267500", "175319.517500", "175320.767500", "175322.017500", "175323.267500", "175324.517500", "175325.767500", "175327.017500", "175328.267500", "175329.517500", "175330.767500", "175332.017500", "175333.267500", "175334.517500", "175335.767500", "175337.017500", "175338.267500", "175339.517500", "175340.767500", "175342.017500", "175343.267500", "175344.517500", "175345.767500", "175347.017500", "175348.267500", "175349.517500", "175350.767500", "175352.017500", "175353.267500", "175354.517500", "175355.767500", "175357.017500", "175358.267500", "175359.517500", "175400.767500", "175402.017500", "175403.267500", "175404.517500", "175405.767500", "175407.017500", "175408.267500", "175409.517500", "175410.767500", "175412.017500", "175413.267500", "175414.517500", "175415.767500", "175417.017500", "175418.267500", "175419.517500", "175420.767500", "175422.017500", "175423.267500", "175424.517500", "175425.767500", "175427.017500", "175428.267500", "175429.517500", "175430.767500", "175432.017500", "175433.267500", "175434.517500", "175435.767500", "175437.017500", "175438.267500", "175439.517500", "175440.767500", "175442.017500", "175443.267500", "175444.517500", "175445.767500", "175447.017500", "175448.267500", "175449.517500", "175450.767500", "175452.017500", "175453.267500", "175454.517500", "175455.767500", "175457.017500", "175458.267500", "175459.517500", "175500.767500", "175502.017500", "175503.267500", "175504.517500", "175505.767500", "175507.017500", "175508.267500", "175509.517500", "175510.767500", "175512.017500", "175513.267500", "175514.517500", "175515.767500", "175517.017500", "175518.267500", "175519.517500", "175520.767500", "175522.017500", "175523.267500", "175524.517500", "175525.767500", "175527.017500", "175528.267500", "175529.517500", "175530.767500", "175532.017500", "175533.267500", "175534.517500", "175535.767500", "175537.017500"],
      "ContentTime": ["174949.295000", "174950.359000", "174951.591000", "174952.855000", "174954.116000", "174955.362000", "174956.618000", "174957.858000", "174959.145000", "175000.335000", "175001.588000", "175002.834000", "175004.122000", "175005.390000", "175006.612000", "175007.846000", "175009.137000", "175010.347000", "175011.625000", "175012.855000", "175014.098000", "175015.366000", "175016.598000", "175017.877000", "175019.110000", "175020.350000", "175021.617000", "175022.888000", "175024.105000", "175025.359000", "175026.680000", "175027.878000", "175029.111000", "175030.415000", "175031.628000", "175032.863000", "175034.140000", "175035.361000", "175036.606000", "175037.801000", "175039.105000", "175040.360000", "175041.587000", "175042.855000", "175044.125000", "175045.363000", "175046.605000", "175047.855000", "175049.099000", "175050.371000", "175051.626000", "175052.853000", "175054.115000", "175055.352000", "175056.590000", "175057.847000", "175059.094000", "175100.375000", "175101.596000", "175102.844000", "175104.111000", "175105.368000", "175106.616000", "175107.835000", "175109.106000", "175110.307000", "175111.604000", "175112.838000", "175114.104000", "175115.350000", "175116.586000", "175117.906000", "175119.113000", "175120.359000", "175121.595000", "175122.839000", "175124.080000", "175125.382000", "175126.636000", "175127.844000", "175129.088000", "175130.352000", "175131.562000", "175132.871000", "175134.112000", "175135.343000", "175136.605000", "175137.867000", "175139.094000", "175140.322000", "175141.589000", "175142.824000", "175144.111000", "175145.346000", "175146.586000", "175147.857000", "175149.097000", "175150.364000", "175151.576000", "175152.845000", "175154.108000", "175155.334000", "175156.617000", "175157.865000", "175159.099000", "175200.367000", "175201.593000", "175202.856000", "175204.112000", "175205.355000", "175206.611000", "175207.874000", "175209.117000", "175210.355000", "175211.618000", "175212.859000", "175214.141000", "175215.358000", "175216.599000", "175217.841000", "175219.103000", "175220.352000", "175221.564000", "175222.871000", "175224.118000", "175225.370000", "175226.661000", "175227.870000", "175229.094000", "175230.370000", "175231.597000", "175232.863000", "175234.109000", "175235.391000", "175236.595000", "175237.861000", "175239.112000", "175240.359000", "175241.616000", "175242.855000", "175244.111000", "175245.363000", "175246.609000", "175247.874000", "175249.099000", "175250.326000", "175251.606000", "175252.856000", "175254.115000", "175255.359000", "175256.603000", "175257.848000", "175259.095000", "175300.359000", "175301.605000", "175302.846000", "175304.206000", "175305.376000", "175306.586000", "175307.857000", "175309.095000", "175310.355000", "175311.617000", "175312.865000", "175314.107000", "175315.353000", "175316.605000", "175317.872000", "175319.122000", "175320.354000", "175321.646000", "175322.866000", "175324.071000", "175325.353000", "175326.617000", "175327.857000", "175329.094000", "175330.328000", "175331.602000", "175332.866000", "175334.135000", "175335.365000", "175336.587000", "175337.830000", "175339.107000", "175340.339000", "175341.615000", "175342.885000", "175344.126000", "175345.366000", "175346.598000", "175347.881000", "175349.097000", "175350.358000", "175351.617000", "175352.818000", "175354.134000", "175355.371000", "175356.630000", "175357.853000", "175359.108000", "175400.349000", "175401.589000", "175402.868000", "175404.108000", "175405.338000", "175406.598000", "175407.843000", "175409.083000", "175410.383000", "175411.614000", "175412.892000", "175414.112000", "175415.360000", "175416.605000", "175417.847000", "175419.159000", "175420.347000", "175421.619000", "175422.877000", "175424.094000", "175425.367000", "175426.607000", "175427.862000", "175429.183000", "175430.374000", "175431.594000", "175432.865000", "175434.121000", "175435.347000", "175436.612000", "175437.852000", "175439.112000", "175440.370000", "175441.618000", "175442.858000", "175444.098000", "175445.374000", "175446.605000", "175447.814000", "175449.137000", "175450.380000", "175451.619000", "175452.876000", "175454.112000", "175455.342000", "175456.635000", "175457.896000", "175459.107000", "175500.386000", "175501.633000", "175502.877000", "175504.118000", "175505.340000", "175506.597000", "175507.937000", "175509.113000", "175510.371000", "175511.604000", "175512.903000", "175514.103000", "175515.350000", "175516.618000", "175517.847000", "175519.118000", "175520.389000", "175521.624000", "175522.841000", "175524.113000", "175525.362000", "175526.607000", "175527.867000", "175529.120000", "175530.354000", "175531.619000", "175532.839000", "175534.118000", "175535.372000", "175536.604000", "175537.925000"],
      "InstanceCreationTime": ["174949.295000", "174950.359000", "174951.591000", "174952.855000", "174954.116000", "174955.362000", "174956.618000", "174957.858000", "174959.145000", "175000.335000", "175001.588000", "175002.834000", "175004.122000", "175005.390000", "175006.612000", "175007.846000", "175009.137000", "175010.347000", "175011.625000", "175012.855000", "175014.098000", "175015.366000", "175016.598000", "175017.877000", "175019.110000", "175020.350000", "175021.617000", "175022.888000", "175024.105000", "175025.359000", "175026.680000", "175027.878000", "175029.111000", "175030.415000", "175031.628000", "175032.863000", "175034.140000", "175035.361000", "175036.606000", "175037.801000", "175039.105000", "175040.360000", "175041.587000", "175042.855000", "175044.125000", "175045.363000", "175046.605000", "175047.855000", "175049.099000", "175050.371000", "175051.626000", "175052.853000", "175054.115000", "175055.352000", "175056.590000", "175057.847000", "175059.094000", "175100.375000", "175101.596000", "175102.844000", "175104.111000", "175105.368000", "175106.616000", "175107.835000", "175109.106000", "175110.307000", "175111.604000", "175112.838000", "175114.104000", "175115.350000", "175116.586000", "175117.906000", "175119.113000", "175120.359000", "175121.595000", "175122.839000", "175124.080000", "175125.382000", "175126.636000", "175127.844000", "175129.088000", "175130.352000", "175131.562000", "175132.871000", "175134.112000", "175135.343000", "175136.605000", "175137.867000", "175139.094000", "175140.322000", "175141.589000", "175142.824000", "175144.111000", "175145.346000", "175146.586000", "175147.857000", "175149.097000", "175150.364000", "175151.576000", "175152.845000", "175154.108000", "175155.334000", "175156.617000", "175157.865000", "175159.099000", "175200.367000", "175201.593000", "175202.856000", "175204.112000", "175205.355000", "175206.611000", "175207.874000", "175209.117000", "175210.355000", "175211.618000", "175212.859000", "175214.141000", "175215.358000", "175216.599000", "175217.841000", "175219.103000", "175220.352000", "175221.564000", "175222.871000", "175224.118000", "175225.370000", "175226.661000", "175227.870000", "175229.094000", "175230.370000", "175231.597000", "175232.863000", "175234.109000", "175235.391000", "175236.595000", "175237.861000", "175239.112000", "175240.359000", "175241.616000", "175242.855000", "175244.111000", "175245.363000", "175246.609000", "175247.874000", "175249.099000", "175250.326000", "175251.606000", "175252.856000", "175254.115000", "175255.359000", "175256.603000", "175257.848000", "175259.095000", "175300.359000", "175301.605000", "175302.846000", "175304.206000", "175305.376000", "175306.586000", "175307.857000", "175309.095000", "175310.355000", "175311.617000", "175312.865000", "175314.107000", "175315.353000", "175316.605000", "175317.872000", "175319.122000", "175320.354000", "175321.646000", "175322.866000", "175324.071000", "175325.353000", "175326.617000", "175327.857000", "175329.094000", "175330.328000", "175331.602000", "175332.866000", "175334.135000", "175335.365000", "175336.587000", "175337.830000", "175339.107000", "175340.339000", "175341.615000", "175342.885000", "175344.126000", "175345.366000", "175346.598000", "175347.881000", "175349.097000", "175350.358000", "175351.617000", "175352.818000", "175354.134000", "175355.371000", "175356.630000", "175357.853000", "175359.108000", "175400.349000", "175401.589000", "175402.868000", "175404.108000", "175405.338000", "175406.598000", "175407.843000", "175409.083000", "175410.383000", "175411.614000", "175412.892000", "175414.112000", "175415.360000", "175416.605000", "175417.847000", "175419.159000", "175420.347000", "175421.619000", "175422.877000", "175424.094000", "175425.367000", "175426.607000", "175427.862000", "175429.183000", "175430.374000", "175431.594000", "175432.865000", "175434.121000", "175435.347000", "175436.612000", "175437.852000", "175439.112000", "175440.370000", "175441.618000", "175442.858000", "175444.098000", "175445.374000", "175446.605000", "175447.814000", "175449.137000", "175450.380000", "175451.619000", "175452.876000", "175454.112000", "175455.342000", "175456.635000", "175457.896000", "175459.107000", "175500.386000", "175501.633000", "175502.877000", "175504.118000", "175505.340000", "175506.597000", "175507.937000", "175509.113000", "175510.371000", "175511.604000", "175512.903000", "175514.103000", "175515.350000", "175516.618000", "175517.847000", "175519.118000", "175520.389000", "175521.624000", "175522.841000", "175524.113000", "175525.362000", "175526.607000", "175527.867000", "175529.120000", "175530.354000", "175531.619000", "175532.839000", "175534.118000", "175535.372000", "175536.604000", "175537.925000"],
      "InstanceNumber": [1, 2, 3, 4, 5, 6, 7, 8, 9, 10, 11, 12, 13, 14, 15, 16, 17, 18, 19, 20, 21, 22, 23, 24, 25, 26, 27, 28, 29, 30, 31, 32, 33, 34, 35, 36, 37, 38, 39, 40, 41, 42, 43, 44, 45, 46, 47, 48, 49, 50, 51, 52, 53, 54, 55, 56, 57, 58, 59, 60, 61, 62, 63, 64, 65, 66, 67, 68, 69, 70, 71, 72, 73, 74, 75, 76, 77, 78, 79, 80, 81, 82, 83, 84, 85, 86, 87, 88, 89, 90, 91, 92, 93, 94, 95, 96, 97, 98, 99, 100, 101, 102, 103, 104, 105, 106, 107, 108, 109, 110, 111, 112, 113, 114, 115, 116, 117, 118, 119, 120, 121, 122, 123, 124, 125, 126, 127, 128, 129, 130, 131, 132, 133, 134, 135, 136, 137, 138, 139, 140, 141, 142, 143, 144, 145, 146, 147, 148, 149, 150, 151, 152, 153, 154, 155, 156, 157, 158, 159, 160, 161, 162, 163, 164, 165, 166, 167, 168, 169, 170, 171, 172, 173, 174, 175, 176, 177, 178, 179, 180, 181, 182, 183, 184, 185, 186, 187, 188, 189, 190, 191, 192, 193, 194, 195, 196, 197, 198, 199, 200, 201, 202, 203, 204, 205, 206, 207, 208, 209, 210, 211, 212, 213, 214, 215, 216, 217, 218, 219, 220, 221, 222, 223, 224, 225, 226, 227, 228, 229, 230, 231, 232, 233, 234, 235, 236, 237, 238, 239, 240, 241, 242, 243, 244, 245, 246, 247, 248, 249, 250, 251, 252, 253, 254, 255, 256, 257, 258, 259, 260, 261, 262, 263, 264, 265, 266, 267, 268, 269, 270, 271, 272, 273, 274, 275, 276, 277, 278, 279, 280],
      "LargestImagePixelValue": [1056, 1404, 1332, 1468, 1521, 1137, 1063, 1074, 997, 1347, 1409, 1506, 1211, 1033, 872, 1281, 1516, 1239, 1086, 1104, 1024, 1457, 1540, 1253, 1295, 1026, 1637, 1707, 1243, 1241, 1073, 970, 1006, 968, 855, 1093, 1242, 1396, 1549, 1329, 1407, 1124, 1064, 1167, 1154, 1093, 993, 1344, 1519, 1102, 1113, 1036, 1209, 1486, 1467, 1185, 1140, 1047, 880, 928, 1005, 949, 1081, 991, 1581, 1670, 1240, 1151, 1164, 999, 1452, 1107, 1120, 1136, 927, 902, 1672, 1686, 1538, 1445, 1110, 983, 940, 904, 959, 1169, 1352, 1201, 1115, 1672, 1309, 1185, 1179, 1002, 1526, 1022, 1440, 1250, 1133, 1136, 1003, 1578, 1631, 1190, 1127, 1178, 1129, 1022, 1066, 1062, 994, 953, 1174, 1625, 1454, 1613, 1299, 912, 1237, 1264, 1552, 1191, 1114, 1000, 993, 1076, 1142, 1549, 1257, 1182, 1432, 1368, 1127, 1135, 1025, 951, 1019, 1051, 1677, 1424, 1687, 1202, 1167, 1145, 1054, 1487, 1315, 1096, 1622, 1212, 1481, 1144, 1512, 1181, 1069, 1087, 991, 1095, 999, 996, 994, 1500, 1232, 1194, 1495, 1083, 1268, 1032, 939, 954, 1071, 1465, 1118, 1618, 1243, 1170, 1183, 1163, 1125, 973, 1054, 1639, 1146, 1108, 1527, 1135, 1093, 1377, 1577, 1221, 1047, 1016, 1010, 1120, 988, 1418, 1517, 1038, 1518, 1054, 1479, 1482, 1298, 1067, 978, 1050, 1456, 1326, 1659, 1724, 1306, 1212, 1249, 1071, 1148, 1218, 1147, 1235, 1102, 1019, 1126, 995, 1067, 1317, 978, 1625, 1360, 1173, 1001, 933, 888, 1249, 881, 1534, 1275, 1184, 1463, 1651, 1583, 1646, 1116, 1179, 1171, 1541, 1232, 1180, 1040, 975, 1066, 1269, 1282, 983, 1000, 1293, 1376, 1512, 1465, 1362, 1389, 1119, 950, 1045, 1098, 1184, 1222, 1196, 1129, 1151, 1176, 1100, 1134, 1194, 1027, 1012, 1100, 1239, 1157, 1147, 1103, 1000],
      "WindowCenter": [404.0, 405.0, 404.0, 406.0, 405.0, 402.0, 401.0, 401.0, 401.0, 403.0, 403.0, 404.0, 403.0, 402.0, 400.0, 404.0, 405.0, 404.0, 403.0, 403.0, 403.0, 406.0, 406.0, 404.0, 404.0, 402.0, 406.0, 407.0, 404.0, 403.0, 402.0, 401.0, 402.0, 403.0, 401.0, 404.0, 404.0, 406.0, 406.0, 404.0, 403.0, 401.0, 401.0, 403.0, 404.0, 404.0, 401.0, 403.0, 404.0, 401.0, 402.0, 402.0, 403.0, 405.0, 404.0, 403.0, 402.0, 402.0, 400.0, 401.0, 402.0, 402.0, 404.0, 403.0, 407.0, 406.0, 404.0, 402.0, 402.0, 402.0, 406.0, 403.0, 403.0, 403.0, 401.0, 401.0, 406.0, 406.0, 405.0, 404.0, 402.0, 401.0, 400.0, 400.0, 401.0, 403.0, 404.0, 403.0, 402.0, 406.0, 403.0, 403.0, 402.0, 400.0, 404.0, 402.0, 403.0, 403.0, 402.0, 402.0, 401.0, 405.0, 405.0, 402.0, 402.0, 403.0, 402.0, 401.0, 402.0, 403.0, 402.0, 402.0, 404.0, 406.0, 404.0, 405.0, 403.0, 401.0, 403.0, 403.0, 405.0, 404.0, 402.0, 402.0, 402.0, 403.0, 403.0, 405.0, 403.0, 402.0, 404.0, 405.0, 403.0, 403.0, 403.0, 403.0, 402.0, 403.0, 407.0, 405.0, 406.0, 403.0, 404.0, 403.0, 402.0, 404.0, 403.0, 402.0, 406.0, 403.0, 405.0, 403.0, 406.0, 403.0, 403.0, 402.0, 402.0, 404.0, 403.0, 403.0, 402.0, 405.0, 404.0, 404.0, 405.0, 402.0, 404.0, 402.0, 401.0, 402.0, 404.0, 406.0, 403.0, 406.0, 404.0, 403.0, 403.0, 402.0, 402.0, 401.0, 403.0, 406.0, 402.0, 402.0, 404.0, 402.0, 402.0, 405.0, 405.0, 403.0, 402.0, 403.0, 403.0, 404.0, 402.0, 406.0, 405.0, 402.0, 405.0, 403.0, 405.0, 405.0, 405.0, 403.0, 404.0, 405.0, 407.0, 405.0, 406.0, 406.0, 404.0, 403.0, 403.0, 402.0, 402.0, 403.0, 402.0, 403.0, 402.0, 401.0, 403.0, 401.0, 402.0, 404.0, 402.0, 406.0, 405.0, 404.0, 403.0, 402.0, 401.0, 404.0, 402.0, 408.0, 406.0, 405.0, 406.0, 406.0, 405.0, 406.0, 402.0, 403.0, 403.0, 406.0, 404.0, 403.0, 402.0, 402.0, 403.0, 405.0, 404.0, 401.0, 402.0, 404.0, 405.0, 405.0, 404.0, 403.0, 402.0, 402.0, 401.0, 402.0, 403.0, 402.0, 403.0, 403.0, 403.0, 403.0, 404.0, 403.0, 404.0, 404.0, 402.0, 403.0, 404.0, 407.0, 405.0, 404.0, 404.0, 403.0],
      "WindowWidth": [857.0, 856.0, 856.0, 859.0, 856.0, 852.0, 850.0, 851.0, 850.0, 853.0, 853.0, 855.0, 854.0, 852.0, 850.0, 855.0, 857.0, 856.0, 854.0, 854.0, 854.0, 859.0, 858.0, 855.0, 856.0, 852.0, 857.0, 861.0, 855.0, 854.0, 851.0, 851.0, 852.0, 854.0, 851.0, 855.0, 856.0, 859.0, 858.0, 854.0, 853.0, 850.0, 850.0, 854.0, 855.0, 855.0, 851.0, 854.0, 854.0, 850.0, 852.0, 852.0, 854.0, 857.0, 856.0, 854.0, 852.0, 852.0, 850.0, 850.0, 852.0, 853.0, 855.0, 855.0, 860.0, 859.0, 855.0, 852.0, 853.0, 852.0, 858.0, 854.0, 854.0, 854.0, 851.0, 851.0, 858.0, 857.0, 856.0, 855.0, 853.0, 850.0, 849.0, 849.0, 852.0, 854.0, 855.0, 854.0, 853.0, 858.0, 854.0, 853.0, 852.0, 849.0, 855.0, 852.0, 854.0, 853.0, 851.0, 853.0, 851.0, 857.0, 856.0, 852.0, 851.0, 853.0, 853.0, 851.0, 853.0, 854.0, 852.0, 853.0, 856.0, 858.0, 855.0, 856.0, 854.0, 850.0, 854.0, 854.0, 856.0, 855.0, 853.0, 852.0, 853.0, 855.0, 853.0, 856.0, 853.0, 852.0, 855.0, 857.0, 854.0, 854.0, 854.0, 854.0, 853.0, 854.0, 860.0, 857.0, 858.0, 854.0, 855.0, 854.0, 853.0, 855.0, 854.0, 852.0, 857.0, 853.0, 857.0, 854.0, 858.0, 854.0, 854.0, 852.0, 852.0, 855.0, 854.0, 854.0, 852.0, 857.0, 855.0, 855.0, 857.0, 853.0, 854.0, 852.0, 852.0, 852.0, 855.0, 858.0, 855.0, 859.0, 855.0, 854.0, 854.0, 852.0, 852.0, 851.0, 854.0, 859.0, 853.0, 851.0, 855.0, 852.0, 852.0, 856.0, 856.0, 854.0, 852.0, 854.0, 855.0, 856.0, 853.0, 858.0, 857.0, 852.0, 856.0, 853.0, 857.0, 857.0, 856.0, 855.0, 856.0, 857.0, 860.0, 858.0, 858.0, 858.0, 854.0, 853.0, 853.0, 852.0, 853.0, 854.0, 852.0, 853.0, 852.0, 851.0, 853.0, 851.0, 852.0, 856.0, 853.0, 859.0, 856.0, 856.0, 854.0, 852.0, 852.0, 856.0, 853.0, 862.0, 859.0, 858.0, 859.0, 859.0, 857.0, 857.0, 852.0, 854.0, 854.0, 858.0, 855.0, 854.0, 853.0, 853.0, 854.0, 858.0, 856.0, 851.0, 853.0, 856.0, 856.0, 857.0, 856.0, 853.0, 852.0, 851.0, 850.0, 852.0, 853.0, 852.0, 853.0, 854.0, 853.0, 854.0, 855.0, 854.0, 855.0, 855.0, 853.0, 854.0, 856.0, 860.0, 857.0, 855.0, 855.0, 854.0]
    },
    "slices": {}
  }
}