{
  "AcquisitionMatrixPE": 96,
  "AcquisitionNumber": 1,
  "AcquisitionTime": "17:42:3.717500",
  "BandwidthPerPixelPhaseEncode": 18.939,
  "BaseResolution": 96,
  "BodyPartExamined": "BRAIN",
  "ConsistencyInfo": "N4_VE11C_LATEST_20160120",
  "ConversionSoftware": "dcm2niix",
  "ConversionSoftwareVersion": "v1.0.20170923 (OpenJPEG build) GCC6.3.0",
  "DerivedVendorReportedEchoSpacing": 0.000550011,
  "DeviceSerialNumber": "66112",
  "DwellTime": 2.3e-06,
  "EchoTime": 0.033,
  "EchoTrainLength": 96,
  "EffectiveEchoSpacing": 0.000550011,
  "FlipAngle": 64,
  "ImageType": [
    "ORIGINAL",
    "PRIMARY",
    "FMRI",
    "NONE",
    "ND",
    "NORM",
    "MOSAIC"
],
  "InstitutionAddress": "Maynard_3_Hanover_NH_US_03755",
  "InstitutionName": "Dartmouth_College_-_PBS",
  "MagneticFieldStrength": 3,
  "Manufacturer": "Siemens",
  "ManufacturersModelName": "Prisma",
  "Modality": "MR",
  "MultibandAccelerationFactor": 4,
  "PartialFourier": 1,
  "PercentPhaseFOV": 100,
  "PhaseEncodingDirection": "j-",
  "PhaseEncodingSteps": 96,
  "PhaseResolution": 1,
  "ProcedureStepDescription": "Gobbini_Matteo_1017_famface-angles",
  "ProtocolName": "func_run-06_task-localizer",
  "PulseSequenceDetails": "%SiemensSeq%_ep2d_bold",
  "ReceiveCoilActiveElements": "HEA;HEP",
  "ReceiveCoilName": "Head_32",
  "ReconMatrixPE": 96,
  "RepetitionTime": 1.25,
  "ScanOptions": "FS",
  "ScanningSequence": "EP",
  "SequenceName": "_epfid2d1_96",
  "SequenceVariant": "SK",
  "SeriesDescription": "func_run-06_task-localizer",
  "SliceTiming": [0.8775, 0, 0.615, 0.0875, 0.7025, 0.175, 0.79, 0.35, 0.965, 0.4375, 1.0525, 0.525, 1.14, 0.2625, 0.8775, 0, 0.615, 0.0875, 0.7025, 0.175, 0.79, 0.35, 0.965, 0.4375, 1.0525, 0.525, 1.14, 0.2625, 0.8775, 0, 0.615, 0.0875, 0.7025, 0.175, 0.79, 0.35, 0.965, 0.4375, 1.0525, 0.525, 1.14, 0.2625, 0.8775, 0, 0.615, 0.0875, 0.7025, 0.175, 0.79, 0.35, 0.965, 0.4375, 1.0525, 0.525, 1.14, 0.2625],
  "SoftwareVersions": "syngo_MR_E11",
  "StationName": "AWP66112",
  "TaskName": "localizer",
  "TotalReadoutTime": 0.0522511,
  "dcmmeta_affine": [
    [-2.491222858428955, 0.05435854196548462, 0.20212185382843018, 113.9228286743164],
    [0.06993772089481354, 2.4916422367095947, 0.19190609455108643, -118.22844696044922],
    [0.19727344810962677, -0.19688673317432404, 2.484415054321289, -90.62456512451172],
    [0.0, 0.0, 0.0, 1.0]
],
  "dcmmeta_reorient_transform": [
    [0.0, -1.0, 0.0, 95.0],
    [1.0, 0.0, 0.0, 0.0],
    [0.0, 0.0, 1.0, 0.0],
    [0.0, 0.0, 0.0, 1.0]
],
  "dcmmeta_shape": [96, 96, 56, 325],
  "dcmmeta_slice_dim": 2,
  "dcmmeta_version": 0.6,
  "global": {
    "const": {
      "AccessionNumber": "A000263",
      "AcquisitionMatrix": [96, 0, 0, 96],
      "AngioFlag": "N",
      "BitsAllocated": 16,
      "BitsStored": 12,
      "BodyPartExamined": "BRAIN",
      "Columns": 768,
      "EchoNumbers": 1,
      "EchoTime": 33.0,
      "EchoTrainLength": 96,
      "FlipAngle": 64.0,
      "HighBit": 11,
      "ImageOrientationPatient": [0.99648918930872, -0.0279750873712, 0.07890937889391, 0.02174341642298, 0.99665687304814, 0.07875469032488],
      "ImagePositionPatient": [-974.40227925893, -932.17025991825, -241.76662510238],
      "ImageType": [
        "ORIGINAL",
        "PRIMARY",
        "FMRI",
        "NONE",
        "ND",
        "NORM",
        "MOSAIC"
],
      "ImagedNucleus": "1H",
      "ImagingFrequency": 123.252401,
      "InPlanePhaseEncodingDirection": "COL",
      "MRAcquisitionType": "2D",
      "MagneticFieldStrength": 3.0,
      "Manufacturer": "SIEMENS",
      "ManufacturerModelName": "Prisma",
      "Modality": "MR",
      "NumberOfAverages": 1.0,
      "NumberOfPhaseEncodingSteps": 96,
      "PercentPhaseFieldOfView": 100.0,
      "PercentSampling": 100.0,
      "PerformedProcedureStepStartTime": "165538.599000",
      "PhotometricInterpretation": "MONOCHROME2",
      "PixelBandwidth": 2265.0,
      "PixelRepresentation": 0,
      "PixelSpacing": [2.5, 2.5],
      "PositionReferenceIndicator": "",
      "ProtocolName": "func_run-06_task-localizer",
      "RepetitionTime": 1250.0,
      "Rows": 768,
      "SAR": 0.05533783897592,
      "SamplesPerPixel": 1,
      "ScanOptions": "FS",
      "ScanningSequence": "EP",
      "SequenceName": "*epfid2d1_96",
      "SequenceVariant": "SK",
      "SeriesDescription": "func_run-06_task-localizer",
      "SeriesNumber": 43,
      "SeriesTime": "174204.883000",
      "SliceLocation": -89.924607309912,
      "SliceThickness": 2.5,
      "SmallestImagePixelValue": 0,
      "SoftwareVersions": "syngo MR E11",
      "SpacingBetweenSlices": 2.4999999737792,
      "SpecificCharacterSet": "ISO_IR 100",
      "StudyID": "2",
      "StudyTime": "165538.561000",
      "TransmitCoilName": "Body",
      "VariableFlipAngleFlag": "N",
      "WindowCenterWidthExplanation": "Algo1",
      "dBdt": 0.0},
    "slices": {}
  },
  "time": {
    "samples": {
      "AcquisitionNumber": [1, 2, 3, 4, 5, 6, 7, 8, 9, 10, 11, 12, 13, 14, 15, 16, 17, 18, 19, 20, 21, 22, 23, 24, 25, 26, 27, 28, 29, 30, 31, 32, 33, 34, 35, 36, 37, 38, 39, 40, 41, 42, 43, 44, 45, 46, 47, 48, 49, 50, 51, 52, 53, 54, 55, 56, 57, 58, 59, 60, 61, 62, 63, 64, 65, 66, 67, 68, 69, 70, 71, 72, 73, 74, 75, 76, 77, 78, 79, 80, 81, 82, 83, 84, 85, 86, 87, 88, 89, 90, 91, 92, 93, 94, 95, 96, 97, 98, 99, 100, 101, 102, 103, 104, 105, 106, 107, 108, 109, 110, 111, 112, 113, 114, 115, 116, 117, 118, 119, 120, 121, 122, 123, 124, 125, 126, 127, 128, 129, 130, 131, 132, 133, 134, 135, 136, 137, 138, 139, 140, 141, 142, 143, 144, 145, 146, 147, 148, 149, 150, 151, 152, 153, 154, 155, 156, 157, 158, 159, 160, 161, 162, 163, 164, 165, 166, 167, 168, 169, 170, 171, 172, 173, 174, 175, 176, 177, 178, 179, 180, 181, 182, 183, 184, 185, 186, 187, 188, 189, 190, 191, 192, 193, 194, 195, 196, 197, 198, 199, 200, 201, 202, 203, 204, 205, 206, 207, 208, 209, 210, 211, 212, 213, 214, 215, 216, 217, 218, 219, 220, 221, 222, 223, 224, 225, 226, 227, 228, 229, 230, 231, 232, 233, 234, 235, 236, 237, 238, 239, 240, 241, 242, 243, 244, 245, 246, 247, 248, 249, 250, 251, 252, 253, 254, 255, 256, 257, 258, 259, 260, 261, 262, 263, 264, 265, 266, 267, 268, 269, 270, 271, 272, 273, 274, 275, 276, 277, 278, 279, 280, 281, 282, 283, 284, 285, 286, 287, 288, 289, 290, 291, 292, 293, 294, 295, 296, 297, 298, 299, 300, 301, 302, 303, 304, 305, 306, 307, 308, 309, 310, 311, 312, 313, 314, 315, 316, 317, 318, 319, 320, 321, 322, 323, 324, 325],
      "AcquisitionTime": ["174203.717500", "174204.967500", "174206.217500", "174207.467500", "174208.717500", "174209.967500", "174211.217500", "174212.467500", "174213.717500", "174214.967500", "174216.217500", "174217.467500", "174218.717500", "174219.967500", "174221.217500", "174222.467500", "174223.717500", "174224.967500", "174226.217500", "174227.467500", "174228.717500", "174229.967500", "174231.217500", "174232.467500", "174233.717500", "174234.967500", "174236.217500", "174237.467500", "174238.717500", "174239.967500", "174241.217500", "174242.467500", "174243.717500", "174244.967500", "174246.217500", "174247.467500", "174248.717500", "174249.967500", "174251.217500", "174252.467500", "174253.717500", "174254.967500", "174256.217500", "174257.467500", "174258.717500", "174259.967500", "174301.217500", "174302.467500", "174303.717500", "174304.967500", "174306.217500", "174307.467500", "174308.717500", "174309.967500", "174311.217500", "174312.467500", "174313.717500", "174314.967500", "174316.217500", "174317.467500", "174318.717500", "174319.967500", "174321.217500", "174322.467500", "174323.717500", "174324.967500", "174326.217500", "174327.467500", "174328.717500", "174329.967500", "174331.217500", "174332.467500", "174333.717500", "174334.967500", "174336.217500", "174337.467500", "174338.717500", "174339.967500", "174341.217500", "174342.467500", "174343.717500", "174344.967500", "174346.217500", "174347.467500", "174348.717500", "174349.967500", "174351.217500", "174352.467500", "174353.717500", "174354.967500", "174356.217500", "174357.467500", "174358.717500", "174359.967500", "174401.217500", "174402.467500", "174403.717500", "174404.967500", "174406.217500", "174407.467500", "174408.717500", "174409.967500", "174411.217500", "174412.467500", "174413.717500", "174414.967500", "174416.217500", "174417.467500", "174418.717500", "174419.967500", "174421.217500", "174422.467500", "174423.717500", "174424.967500", "174426.217500", "174427.467500", "174428.717500", "174429.967500", "174431.217500", "174432.467500", "174433.717500", "174434.967500", "174436.217500", "174437.467500", "174438.717500", "174439.967500", "174441.217500", "174442.467500", "174443.717500", "174444.967500", "174446.217500", "174447.467500", "174448.717500", "174449.967500", "174451.217500", "174452.467500", "174453.717500", "174454.967500", "174456.217500", "174457.467500", "174458.717500", "174459.967500", "174501.217500", "174502.467500", "174503.717500", "174504.967500", "174506.217500", "174507.467500", "174508.717500", "174509.967500", "174511.217500", "174512.467500", "174513.717500", "174514.967500", "174516.217500", "174517.467500", "174518.717500", "174519.967500", "174521.217500", "174522.467500", "174523.717500", "174524.967500", "174526.217500", "174527.467500", "174528.717500", "174529.967500", "174531.217500", "174532.467500", "174533.717500", "174534.967500", "174536.217500", "174537.467500", "174538.717500", "174539.967500", "174541.217500", "174542.467500", "174543.717500", "174544.967500", "174546.217500", "174547.467500", "174548.717500", "174549.967500", "174551.217500", "174552.467500", "174553.717500", "174554.967500", "174556.217500", "174557.467500", "174558.717500", "174559.967500", "174601.217500", "174602.467500", "174603.717500", "174604.967500", "174606.217500", "174607.467500", "174608.717500", "174609.967500", "174611.217500", "174612.467500", "174613.717500", "174614.967500", "174616.217500", "174617.467500", "174618.717500", "174619.967500", "174621.217500", "174622.467500", "174623.717500", "174624.967500", "174626.217500", "174627.467500", "174628.717500", "174629.967500", "174631.217500", "174632.467500", "174633.717500", "174634.967500", "174636.217500", "174637.467500", "174638.717500", "174639.967500", "174641.217500", "174642.467500", "174643.717500", "174644.967500", "174646.217500", "174647.467500", "174648.717500", "174649.967500", "174651.217500", "174652.467500", "174653.717500", "174654.967500", "174656.217500", "174657.467500", "174658.717500", "174659.967500", "174701.217500", "174702.467500", "174703.717500", "174704.967500", "174706.217500", "174707.467500", "174708.717500", "174709.967500", "174711.217500", "174712.467500", "174713.717500", "174714.967500", "174716.217500", "174717.467500", "174718.717500", "174719.967500", "174721.217500", "174722.467500", "174723.717500", "174724.967500", "174726.217500", "174727.467500", "174728.717500", "174729.967500", "174731.217500", "174732.467500", "174733.717500", "174734.967500", "174736.217500", "174737.467500", "174738.717500", "174739.967500", "174741.217500", "174742.467500", "174743.717500", "174744.967500", "174746.217500", "174747.467500", "174748.717500", "174749.967500", "174751.217500", "174752.467500", "174753.717500", "174754.967500", "174756.217500", "174757.467500", "174758.717500", "174759.967500", "174801.217500", "174802.467500", "174803.717500", "174804.967500", "174806.217500", "174807.467500", "174808.717500", "174809.967500", "174811.217500", "174812.467500", "174813.717500", "174814.967500", "174816.217500", "174817.467500", "174818.717500", "174819.967500", "174821.217500", "174822.467500", "174823.717500", "174824.967500", "174826.217500", "174827.467500", "174828.717500", "174829.967500", "174831.217500", "174832.467500", "174833.717500", "174834.967500", "174836.217500", "174837.467500", "174838.717500", "174839.967500", "174841.217500", "174842.467500", "174843.717500", "174844.967500", "174846.217500", "174847.467500", "174848.717500"],
      "ContentTime": ["174204.887000", "174205.839000", "174207.162000", "174208.396000", "174209.635000", "174210.881000", "174212.155000", "174213.391000", "174214.667000", "174215.871000", "174217.120000", "174218.359000", "174219.628000", "174220.883000", "174222.115000", "174223.375000", "174224.634000", "174225.860000", "174227.134000", "174228.362000", "174229.645000", "174230.871000", "174232.143000", "174233.370000", "174234.648000", "174235.938000", "174237.121000", "174238.387000", "174239.641000", "174240.872000", "174242.120000", "174243.370000", "174244.624000", "174245.917000", "174247.128000", "174248.391000", "174249.634000", "174250.879000", "174252.097000", "174253.404000", "174254.665000", "174255.935000", "174257.125000", "174258.504000", "174259.697000", "174300.910000", "174302.125000", "174303.392000", "174304.670000", "174305.877000", "174307.142000", "174308.360000", "174309.630000", "174310.848000", "174312.131000", "174313.382000", "174314.608000", "174315.882000", "174317.145000", "174318.378000", "174319.612000", "174320.807000", "174322.144000", "174323.374000", "174324.613000", "174325.869000", "174327.109000", "174328.415000", "174329.629000", "174330.873000", "174332.153000", "174333.358000", "174334.638000", "174335.893000", "174337.135000", "174338.385000", "174339.631000", "174340.876000", "174342.148000", "174343.375000", "174344.633000", "174345.875000", "174347.162000", "174348.383000", "174349.607000", "174350.891000", "174352.102000", "174353.368000", "174354.620000", "174355.891000", "174357.117000", "174358.376000", "174359.667000", "174400.959000", "174402.110000", "174403.369000", "174404.621000", "174405.858000", "174407.114000", "174408.347000", "174409.622000", "174410.881000", "174412.124000", "174413.376000", "174414.635000", "174415.899000", "174417.151000", "174418.396000", "174419.626000", "174420.910000", "174422.130000", "174423.386000", "174424.625000", "174425.888000", "174427.224000", "174428.416000", "174429.632000", "174430.876000", "174432.108000", "174433.405000", "174434.636000", "174435.887000", "174437.136000", "174438.370000", "174439.641000", "174440.882000", "174442.121000", "174443.392000", "174444.629000", "174445.894000", "174447.151000", "174448.398000", "174449.650000", "174450.887000", "174452.127000", "174453.391000", "174454.646000", "174455.893000", "174457.129000", "174458.384000", "174459.672000", "174500.903000", "174502.158000", "174503.388000", "174504.646000", "174505.888000", "174507.211000", "174508.420000", "174509.681000", "174510.896000", "174512.143000", "174513.382000", "174514.654000", "174515.874000", "174517.131000", "174518.381000", "174519.694000", "174520.880000", "174522.132000", "174523.405000", "174524.625000", "174525.914000", "174527.139000", "174528.385000", "174529.624000", "174530.881000", "174532.141000", "174533.390000", "174534.620000", "174535.879000", "174537.133000", "174538.379000", "174539.629000", "174540.877000", "174542.134000", "174543.387000", "174544.680000", "174545.901000", "174547.129000", "174548.334000", "174549.651000", "174550.874000", "174552.131000", "174553.381000", "174554.612000", "174555.895000", "174557.174000", "174558.385000", "174559.649000", "174600.879000", "174602.126000", "174603.393000", "174604.645000", "174605.910000", "174607.141000", "174608.368000", "174609.626000", "174610.876000", "174612.198000", "174613.393000", "174614.621000", "174615.897000", "174617.138000", "174618.376000", "174619.632000", "174620.910000", "174622.131000", "174623.373000", "174624.636000", "174625.869000", "174627.126000", "174628.410000", "174629.653000", "174630.893000", "174632.136000", "174633.392000", "174634.625000", "174635.878000", "174637.142000", "174638.404000", "174639.632000", "174640.859000", "174642.144000", "174643.405000", "174644.643000", "174645.885000", "174647.145000", "174648.399000", "174649.626000", "174650.884000", "174652.163000", "174653.378000", "174654.687000", "174655.900000", "174657.153000", "174658.381000", "174659.640000", "174700.895000", "174702.111000", "174703.397000", "174704.623000", "174705.958000", "174707.129000", "174708.400000", "174709.632000", "174710.899000", "174712.142000", "174713.397000", "174714.642000", "174715.895000", "174717.138000", "174718.401000", "174719.637000", "174720.842000", "174722.146000", "174723.386000", "174724.625000", "174725.856000", "174727.151000", "174728.386000", "174729.660000", "174730.868000", "174732.128000", "174733.387000", "174734.638000", "174735.883000", "174737.160000", "174738.373000", "174739.655000", "174740.875000", "174742.138000", "174743.410000", "174744.656000", "174745.908000", "174747.131000", "174748.384000", "174749.633000", "174750.923000", "174752.124000", "174753.394000", "174754.627000", "174755.925000", "174757.118000", "174758.417000", "174759.623000", "174800.883000", "174802.171000", "174803.395000", "174804.603000", "174805.883000", "174807.118000", "174808.378000", "174809.636000", "174810.914000", "174812.142000", "174813.392000", "174814.659000", "174815.869000", "174817.138000", "174818.412000", "174819.641000", "174820.896000", "174822.137000", "174823.382000", "174824.648000", "174825.865000", "174827.124000", "174828.385000", "174829.635000", "174830.896000", "174832.166000", "174833.356000", "174834.632000", "174835.915000", "174837.132000", "174838.388000", "174839.622000", "174840.876000", "174842.132000", "174843.374000", "174844.672000", "174845.904000", "174847.145000", "174848.361000", "174849.687000"],
      "InstanceCreationTime": ["174204.887000", "174205.839000", "174207.162000", "174208.396000", "174209.635000", "174210.881000", "174212.155000", "174213.391000", "174214.667000", "174215.871000", "174217.120000", "174218.359000", "174219.628000", "174220.883000", "174222.115000", "174223.375000", "174224.634000", "174225.860000", "174227.134000", "174228.362000", "174229.645000", "174230.871000", "174232.143000", "174233.370000", "174234.648000", "174235.938000", "174237.121000", "174238.387000", "174239.641000", "174240.872000", "174242.120000", "174243.370000", "174244.624000", "174245.917000", "174247.128000", "174248.391000", "174249.634000", "174250.879000", "174252.097000", "174253.404000", "174254.665000", "174255.935000", "174257.125000", "174258.504000", "174259.697000", "174300.910000", "174302.125000", "174303.392000", "174304.670000", "174305.877000", "174307.142000", "174308.360000", "174309.630000", "174310.848000", "174312.131000", "174313.382000", "174314.608000", "174315.882000", "174317.145000", "174318.378000", "174319.612000", "174320.807000", "174322.144000", "174323.374000", "174324.613000", "174325.869000", "174327.109000", "174328.415000", "174329.629000", "174330.873000", "174332.153000", "174333.358000", "174334.638000", "174335.893000", "174337.135000", "174338.385000", "174339.631000", "174340.876000", "174342.148000", "174343.375000", "174344.633000", "174345.875000", "174347.162000", "174348.383000", "174349.607000", "174350.891000", "174352.102000", "174353.368000", "174354.620000", "174355.891000", "174357.117000", "174358.376000", "174359.667000", "174400.959000", "174402.110000", "174403.369000", "174404.621000", "174405.858000", "174407.114000", "174408.347000", "174409.622000", "174410.881000", "174412.124000", "174413.376000", "174414.635000", "174415.899000", "174417.151000", "174418.396000", "174419.626000", "174420.910000", "174422.130000", "174423.386000", "174424.625000", "174425.888000", "174427.224000", "174428.416000", "174429.632000", "174430.876000", "174432.108000", "174433.405000", "174434.636000", "174435.887000", "174437.136000", "174438.370000", "174439.641000", "174440.882000", "174442.121000", "174443.392000", "174444.629000", "174445.894000", "174447.151000", "174448.398000", "174449.650000", "174450.887000", "174452.127000", "174453.391000", "174454.646000", "174455.893000", "174457.129000", "174458.384000", "174459.672000", "174500.903000", "174502.158000", "174503.388000", "174504.646000", "174505.888000", "174507.211000", "174508.420000", "174509.681000", "174510.896000", "174512.143000", "174513.382000", "174514.654000", "174515.874000", "174517.131000", "174518.381000", "174519.694000", "174520.880000", "174522.132000", "174523.405000", "174524.625000", "174525.914000", "174527.139000", "174528.385000", "174529.624000", "174530.881000", "174532.141000", "174533.390000", "174534.620000", "174535.879000", "174537.133000", "174538.379000", "174539.629000", "174540.877000", "174542.134000", "174543.387000", "174544.680000", "174545.901000", "174547.129000", "174548.334000", "174549.651000", "174550.874000", "174552.131000", "174553.381000", "174554.612000", "174555.895000", "174557.174000", "174558.385000", "174559.649000", "174600.879000", "174602.126000", "174603.393000", "174604.645000", "174605.910000", "174607.141000", "174608.368000", "174609.626000", "174610.876000", "174612.198000", "174613.393000", "174614.621000", "174615.897000", "174617.138000", "174618.376000", "174619.632000", "174620.910000", "174622.131000", "174623.373000", "174624.636000", "174625.869000", "174627.126000", "174628.410000", "174629.653000", "174630.893000", "174632.136000", "174633.392000", "174634.625000", "174635.878000", "174637.142000", "174638.404000", "174639.632000", "174640.859000", "174642.144000", "174643.405000", "174644.643000", "174645.885000", "174647.145000", "174648.399000", "174649.626000", "174650.884000", "174652.163000", "174653.378000", "174654.687000", "174655.900000", "174657.153000", "174658.381000", "174659.640000", "174700.895000", "174702.111000", "174703.397000", "174704.623000", "174705.958000", "174707.129000", "174708.400000", "174709.632000", "174710.899000", "174712.142000", "174713.397000", "174714.642000", "174715.895000", "174717.138000", "174718.401000", "174719.637000", "174720.842000", "174722.146000", "174723.386000", "174724.625000", "174725.856000", "174727.151000", "174728.386000", "174729.660000", "174730.868000", "174732.128000", "174733.387000", "174734.638000", "174735.883000", "174737.160000", "174738.373000", "174739.655000", "174740.875000", "174742.138000", "174743.410000", "174744.656000", "174745.908000", "174747.131000", "174748.384000", "174749.633000", "174750.923000", "174752.124000", "174753.394000", "174754.627000", "174755.925000", "174757.118000", "174758.417000", "174759.623000", "174800.883000", "174802.171000", "174803.395000", "174804.603000", "174805.883000", "174807.118000", "174808.378000", "174809.636000", "174810.914000", "174812.142000", "174813.392000", "174814.659000", "174815.869000", "174817.138000", "174818.412000", "174819.641000", "174820.896000", "174822.137000", "174823.382000", "174824.648000", "174825.865000", "174827.124000", "174828.385000", "174829.635000", "174830.896000", "174832.166000", "174833.356000", "174834.632000", "174835.915000", "174837.132000", "174838.388000", "174839.622000", "174840.876000", "174842.132000", "174843.374000", "174844.672000", "174845.904000", "174847.145000", "174848.361000", "174849.687000"],
      "InstanceNumber": [1, 2, 3, 4, 5, 6, 7, 8, 9, 10, 11, 12, 13, 14, 15, 16, 17, 18, 19, 20, 21, 22, 23, 24, 25, 26, 27, 28, 29, 30, 31, 32, 33, 34, 35, 36, 37, 38, 39, 40, 41, 42, 43, 44, 45, 46, 47, 48, 49, 50, 51, 52, 53, 54, 55, 56, 57, 58, 59, 60, 61, 62, 63, 64, 65, 66, 67, 68, 69, 70, 71, 72, 73, 74, 75, 76, 77, 78, 79, 80, 81, 82, 83, 84, 85, 86, 87, 88, 89, 90, 91, 92, 93, 94, 95, 96, 97, 98, 99, 100, 101, 102, 103, 104, 105, 106, 107, 108, 109, 110, 111, 112, 113, 114, 115, 116, 117, 118, 119, 120, 121, 122, 123, 124, 125, 126, 127, 128, 129, 130, 131, 132, 133, 134, 135, 136, 137, 138, 139, 140, 141, 142, 143, 144, 145, 146, 147, 148, 149, 150, 151, 152, 153, 154, 155, 156, 157, 158, 159, 160, 161, 162, 163, 164, 165, 166, 167, 168, 169, 170, 171, 172, 173, 174, 175, 176, 177, 178, 179, 180, 181, 182, 183, 184, 185, 186, 187, 188, 189, 190, 191, 192, 193, 194, 195, 196, 197, 198, 199, 200, 201, 202, 203, 204, 205, 206, 207, 208, 209, 210, 211, 212, 213, 214, 215, 216, 217, 218, 219, 220, 221, 222, 223, 224, 225, 226, 227, 228, 229, 230, 231, 232, 233, 234, 235, 236, 237, 238, 239, 240, 241, 242, 243, 244, 245, 246, 247, 248, 249, 250, 251, 252, 253, 254, 255, 256, 257, 258, 259, 260, 261, 262, 263, 264, 265, 266, 267, 268, 269, 270, 271, 272, 273, 274, 275, 276, 277, 278, 279, 280, 281, 282, 283, 284, 285, 286, 287, 288, 289, 290, 291, 292, 293, 294, 295, 296, 297, 298, 299, 300, 301, 302, 303, 304, 305, 306, 307, 308, 309, 310, 311, 312, 313, 314, 315, 316, 317, 318, 319, 320, 321, 322, 323, 324, 325],
      "LargestImagePixelValue": [1655, 1104, 1083, 1364, 1129, 1507, 1738, 1659, 1343, 1242, 1133, 933, 954, 1451, 1428, 1241, 1084, 1016, 908, 1293, 1221, 1680, 1368, 1241, 1037, 887, 1133, 1340, 1700, 1229, 1078, 981, 1009, 994, 1066, 944, 1669, 1564, 1381, 1192, 1316, 1014, 1066, 1021, 1028, 1011, 997, 836, 924, 893, 1483, 1314, 1715, 1628, 1311, 1196, 983, 1188, 1082, 1138, 996, 1234, 1164, 1049, 1012, 955, 876, 1092, 1513, 1127, 1525, 1089, 1054, 1467, 1219, 1192, 1108, 1078, 928, 1348, 1565, 1632, 1717, 1125, 1040, 1002, 1018, 983, 1049, 957, 1287, 1364, 1322, 1178, 846, 1317, 1402, 1554, 1403, 1165, 1073, 986, 1035, 1103, 1355, 1072, 1146, 1712, 1604, 1548, 1205, 1055, 951, 915, 920, 1084, 927, 1237, 1412, 1632, 1408, 1617, 1424, 1019, 1149, 1242, 989, 1114, 1068, 953, 1005, 970, 996, 1023, 970, 1016, 1042, 987, 1200, 1492, 1664, 1450, 1491, 1258, 1179, 1134, 913, 899, 1148, 1383, 1404, 1401, 1463, 1474, 1212, 1294, 1009, 1031, 1002, 1112, 1214, 1206, 1580, 1636, 1558, 1563, 1110, 1332, 1107, 1103, 930, 1109, 1376, 1163, 1445, 1200, 1027, 1032, 1303, 1305, 1351, 1512, 1133, 1249, 1001, 950, 990, 932, 978, 991, 1654, 1273, 1295, 1154, 1129, 1023, 935, 907, 944, 1039, 1451, 1176, 1098, 1181, 1205, 1443, 1171, 1471, 1090, 1043, 921, 952, 1380, 1637, 1284, 1295, 1428, 943, 948, 942, 1075, 1194, 1208, 1315, 1085, 1224, 1426, 1005, 1023, 951, 945, 948, 1045, 1026, 1143, 1583, 1601, 1460, 1101, 926, 1282, 1037, 1048, 982, 995, 987, 1227, 1373, 1360, 1565, 1165, 1152, 1111, 1051, 1120, 1012, 988, 1068, 967, 949, 925, 946, 1041, 1143, 1417, 1217, 1152, 1059, 1536, 1339, 1548, 1503, 1304, 1114, 1121, 946, 1070, 1228, 1039, 1295, 964, 1359, 1438, 1200, 1033, 912, 965, 1035, 1434, 1226, 1068, 1241, 965, 985, 1169, 1283, 1137, 978, 919, 932, 1116, 1073, 1846, 1573, 1457, 1581, 1157, 922, 1449, 1575, 1437, 1213, 1151, 1070, 1070, 1029, 960, 861, 883, 990, 1579, 1631, 1432, 1347, 1184],
      "WindowCenter": [408.0, 404.0, 403.0, 405.0, 403.0, 405.0, 406.0, 406.0, 404.0, 403.0, 402.0, 401.0, 402.0, 405.0, 404.0, 404.0, 403.0, 402.0, 402.0, 404.0, 403.0, 407.0, 403.0, 404.0, 402.0, 400.0, 402.0, 405.0, 406.0, 404.0, 403.0, 403.0, 403.0, 403.0, 402.0, 403.0, 407.0, 407.0, 405.0, 404.0, 403.0, 401.0, 401.0, 401.0, 402.0, 402.0, 403.0, 402.0, 402.0, 403.0, 407.0, 405.0, 406.0, 405.0, 403.0, 402.0, 400.0, 403.0, 403.0, 402.0, 402.0, 404.0, 403.0, 401.0, 402.0, 401.0, 401.0, 403.0, 405.0, 403.0, 406.0, 403.0, 404.0, 406.0, 405.0, 404.0, 404.0, 403.0, 403.0, 407.0, 406.0, 405.0, 405.0, 401.0, 401.0, 401.0, 401.0, 400.0, 402.0, 401.0, 405.0, 405.0, 404.0, 404.0, 402.0, 406.0, 405.0, 407.0, 404.0, 403.0, 402.0, 401.0, 402.0, 403.0, 404.0, 403.0, 403.0, 406.0, 405.0, 405.0, 402.0, 400.0, 400.0, 401.0, 402.0, 405.0, 403.0, 405.0, 406.0, 406.0, 404.0, 404.0, 403.0, 400.0, 401.0, 403.0, 400.0, 402.0, 401.0, 400.0, 400.0, 400.0, 402.0, 402.0, 401.0, 403.0, 402.0, 402.0, 404.0, 405.0, 406.0, 405.0, 406.0, 403.0, 403.0, 404.0, 401.0, 402.0, 404.0, 405.0, 406.0, 405.0, 406.0, 405.0, 404.0, 404.0, 403.0, 404.0, 404.0, 405.0, 405.0, 404.0, 406.0, 405.0, 404.0, 404.0, 402.0, 405.0, 403.0, 402.0, 401.0, 403.0, 404.0, 403.0, 404.0, 403.0, 403.0, 404.0, 406.0, 404.0, 404.0, 404.0, 401.0, 401.0, 399.0, 400.0, 400.0, 400.0, 400.0, 402.0, 406.0, 404.0, 403.0, 402.0, 402.0, 401.0, 400.0, 400.0, 401.0, 403.0, 405.0, 404.0, 403.0, 404.0, 405.0, 406.0, 403.0, 404.0, 402.0, 402.0, 401.0, 402.0, 405.0, 406.0, 404.0, 404.0, 405.0, 400.0, 400.0, 401.0, 402.0, 404.0, 404.0, 404.0, 402.0, 402.0, 403.0, 399.0, 400.0, 400.0, 401.0, 401.0, 403.0, 403.0, 403.0, 406.0, 406.0, 403.0, 401.0, 400.0, 405.0, 403.0, 403.0, 403.0, 403.0, 403.0, 405.0, 405.0, 405.0, 405.0, 401.0, 401.0, 402.0, 401.0, 402.0, 401.0, 401.0, 401.0, 400.0, 400.0, 402.0, 402.0, 402.0, 403.0, 406.0, 403.0, 403.0, 403.0, 406.0, 403.0, 405.0, 404.0, 403.0, 402.0, 402.0, 400.0, 402.0, 403.0, 401.0, 403.0, 400.0, 403.0, 404.0, 402.0, 401.0, 401.0, 402.0, 403.0, 405.0, 404.0, 403.0, 404.0, 402.0, 402.0, 404.0, 406.0, 404.0, 403.0, 403.0, 403.0, 405.0, 404.0, 407.0, 405.0, 404.0, 404.0, 402.0, 401.0, 404.0, 403.0, 403.0, 401.0, 402.0, 402.0, 402.0, 402.0, 402.0, 400.0, 401.0, 403.0, 406.0, 406.0, 404.0, 403.0, 402.0],
