{
  "AcquisitionMatrixPE": 96,
  "AcquisitionNumber": 1,
  "AcquisitionTime": "17:35:27.690000",
  "BandwidthPerPixelPhaseEncode": 18.939,
  "BaseResolution": 96,
  "BodyPartExamined": "BRAIN",
  "ConsistencyInfo": "N4_VE11C_LATEST_20160120",
  "ConversionSoftware": "dcm2niix",
  "ConversionSoftwareVersion": "v1.0.20170923 (OpenJPEG build) GCC6.3.0",
  "DerivedVendorReportedEchoSpacing": 0.000550011,
  "DeviceSerialNumber": "66112",
  "DwellTime": 2.3e-06,
  "EchoTime": 0.033,
  "EchoTrainLength": 96,
  "EffectiveEchoSpacing": 0.000550011,
  "FlipAngle": 64,
  "ImageType": [
    "ORIGINAL",
    "PRIMARY",
    "FMRI",
    "NONE",
    "ND",
    "NORM",
    "MOSAIC"
],
  "InstitutionAddress": "Maynard_3_Hanover_NH_US_03755",
  "InstitutionName": "Dartmouth_College_-_PBS",
  "MagneticFieldStrength": 3,
  "Manufacturer": "Siemens",
  "ManufacturersModelName": "Prisma",
  "Modality": "MR",
  "MultibandAccelerationFactor": 4,
  "PartialFourier": 1,
  "PercentPhaseFOV": 100,
  "PhaseEncodingDirection": "j-",
  "PhaseEncodingSteps": 96,
  "PhaseResolution": 1,
  "ProcedureStepDescription": "Gobbini_Matteo_1017_famface-angles",
  "ProtocolName": "func_run-05_task-str1back",
  "PulseSequenceDetails": "%SiemensSeq%_ep2d_bold",
  "ReceiveCoilActiveElements": "HEA;HEP",
  "ReceiveCoilName": "Head_32",
  "ReconMatrixPE": 96,
  "RepetitionTime": 1.25,
  "ScanOptions": "FS",
  "ScanningSequence": "EP",
  "SequenceName": "_epfid2d1_96",
  "SequenceVariant": "SK",
  "SeriesDescription": "func_run-05_task-str1back",
  "SliceTiming": [0.8775, 0, 0.615, 0.0875, 0.7025, 0.175, 0.79, 0.35, 0.965, 0.4375, 1.0525, 0.5275, 1.1425, 0.2625, 0.8775, 0, 0.615, 0.0875, 0.7025, 0.175, 0.79, 0.35, 0.965, 0.4375, 1.0525, 0.5275, 1.1425, 0.2625, 0.8775, 0, 0.615, 0.0875, 0.7025, 0.175, 0.79, 0.35, 0.965, 0.4375, 1.0525, 0.5275, 1.1425, 0.2625, 0.8775, 0, 0.615, 0.0875, 0.7025, 0.175, 0.79, 0.35, 0.965, 0.4375, 1.0525, 0.5275, 1.1425, 0.2625],
  "SoftwareVersions": "syngo_MR_E11",
  "StationName": "AWP66112",
  "TaskName": "str1back",
  "TotalReadoutTime": 0.0522511,
  "dcmmeta_affine": [
    [-2.491222858428955, 0.05435854196548462, 0.20212185382843018, 113.9228286743164],
    [0.06993772089481354, 2.4916422367095947, 0.19190609455108643, -118.22844696044922],
    [0.19727344810962677, -0.19688673317432404, 2.484415054321289, -90.62456512451172],
    [0.0, 0.0, 0.0, 1.0]
],
  "dcmmeta_reorient_transform": [
    [0.0, -1.0, 0.0, 95.0],
    [1.0, 0.0, 0.0, 0.0],
    [0.0, 0.0, 1.0, 0.0],
    [0.0, 0.0, 0.0, 1.0]
],
  "dcmmeta_shape": [96, 96, 56, 280],
  "dcmmeta_slice_dim": 2,
  "dcmmeta_version": 0.6,
  "global": {
    "const": {
      "AccessionNumber": "A000263",
      "AcquisitionMatrix": [96, 0, 0, 96],
      "AngioFlag": "N",
      "BitsAllocated": 16,
      "BitsStored": 12,
      "BodyPartExamined": "BRAIN",
      "Columns": 768,
      "EchoNumbers": 1,
      "EchoTime": 33.0,
      "EchoTrainLength": 96,
      "FlipAngle": 64.0,
      "HighBit": 11,
      "ImageOrientationPatient": [0.99648918930872, -0.0279750873712, 0.07890937889391, 0.02174341642298, 0.99665687304814, 0.07875469032488],
      "ImagePositionPatient": [-974.40227925893, -932.17025991825, -241.76662510238],
      "ImageType": [
        "ORIGINAL",
        "PRIMARY",
        "FMRI",
        "NONE",
        "ND",
        "NORM",
        "MOSAIC"
],
      "ImagedNucleus": "1H",
      "ImagingFrequency": 123.252399,
      "InPlanePhaseEncodingDirection": "COL",
      "MRAcquisitionType": "2D",
      "MagneticFieldStrength": 3.0,
      "Manufacturer": "SIEMENS",
      "ManufacturerModelName": "Prisma",
      "Modality": "MR",
      "NumberOfAverages": 1.0,
      "NumberOfPhaseEncodingSteps": 96,
      "PercentPhaseFieldOfView": 100.0,
      "PercentSampling": 100.0,
      "PerformedProcedureStepStartTime": "165538.599000",
      "PhotometricInterpretation": "MONOCHROME2",
      "PixelBandwidth": 2265.0,
      "PixelRepresentation": 0,
      "PixelSpacing": [2.5, 2.5],
      "PositionReferenceIndicator": "",
      "ProtocolName": "func_run-05_task-str1back",
      "RepetitionTime": 1250.0,
      "Rows": 768,
      "SAR": 0.05526268273521,
      "SamplesPerPixel": 1,
      "ScanOptions": "FS",
      "ScanningSequence": "EP",
      "SequenceName": "*epfid2d1_96",
      "SequenceVariant": "SK",
      "SeriesDescription": "func_run-05_task-str1back",
      "SeriesNumber": 36,
      "SeriesTime": "173529.131000",
      "SliceLocation": -89.924607309912,
      "SliceThickness": 2.5,
      "SmallestImagePixelValue": 0,
      "SoftwareVersions": "syngo MR E11",
      "SpacingBetweenSlices": 2.4999999737792,
      "SpecificCharacterSet": "ISO_IR 100",
      "StudyID": "2",
      "StudyTime": "165538.561000",
      "TransmitCoilName": "Body",
      "VariableFlipAngleFlag": "N",
      "WindowCenterWidthExplanation": "Algo1",
      "dBdt": 0.0},
    "slices": {}
  },
  "time": {
    "samples": {
      "AcquisitionNumber": [1, 2, 3, 4, 5, 6, 7, 8, 9, 10, 11, 12, 13, 14, 15, 16, 17, 18, 19, 20, 21, 22, 23, 24, 25, 26, 27, 28, 29, 30, 31, 32, 33, 34, 35, 36, 37, 38, 39, 40, 41, 42, 43, 44, 45, 46, 47, 48, 49, 50, 51, 52, 53, 54, 55, 56, 57, 58, 59, 60, 61, 62, 63, 64, 65, 66, 67, 68, 69, 70, 71, 72, 73, 74, 75, 76, 77, 78, 79, 80, 81, 82, 83, 84, 85, 86, 87, 88, 89, 90, 91, 92, 93, 94, 95, 96, 97, 98, 99, 100, 101, 102, 103, 104, 105, 106, 107, 108, 109, 110, 111, 112, 113, 114, 115, 116, 117, 118, 119, 120, 121, 122, 123, 124, 125, 126, 127, 128, 129, 130, 131, 132, 133, 134, 135, 136, 137, 138, 139, 140, 141, 142, 143, 144, 145, 146, 147, 148, 149, 150, 151, 152, 153, 154, 155, 156, 157, 158, 159, 160, 161, 162, 163, 164, 165, 166, 167, 168, 169, 170, 171, 172, 173, 174, 175, 176, 177, 178, 179, 180, 181, 182, 183, 184, 185, 186, 187, 188, 189, 190, 191, 192, 193, 194, 195, 196, 197, 198, 199, 200, 201, 202, 203, 204, 205, 206, 207, 208, 209, 210, 211, 212, 213, 214, 215, 216, 217, 218, 219, 220, 221, 222, 223, 224, 225, 226, 227, 228, 229, 230, 231, 232, 233, 234, 235, 236, 237, 238, 239, 240, 241, 242, 243, 244, 245, 246, 247, 248, 249, 250, 251, 252, 253, 254, 255, 256, 257, 258, 259, 260, 261, 262, 263, 264, 265, 266, 267, 268, 269, 270, 271, 272, 273, 274, 275, 276, 277, 278, 279, 280],
      "AcquisitionTime": ["173527.690000", "173528.940000", "173530.190000", "173531.440000", "173532.690000", "173533.940000", "173535.190000", "173536.440000", "173537.690000", "173538.940000", "173540.190000", "173541.440000", "173542.690000", "173543.940000", "173545.190000", "173546.440000", "173547.690000", "173548.940000", "173550.190000", "173551.440000", "173552.690000", "173553.940000", "173555.190000", "173556.440000", "173557.690000", "173558.940000", "173600.190000", "173601.440000", "173602.690000", "173603.940000", "173605.190000", "173606.440000", "173607.690000", "173608.940000", "173610.190000", "173611.440000", "173612.690000", "173613.940000", "173615.190000", "173616.440000", "173617.690000", "173618.940000", "173620.190000", "173621.440000", "173622.690000", "173623.940000", "173625.190000", "173626.440000", "173627.690000", "173628.940000", "173630.190000", "173631.440000", "173632.690000", "173633.940000", "173635.190000", "173636.440000", "173637.690000", "173638.940000", "173640.190000", "173641.440000", "173642.690000", "173643.940000", "173645.190000", "173646.440000", "173647.690000", "173648.940000", "173650.190000", "173651.440000", "173652.690000", "173653.940000", "173655.190000", "173656.440000", "173657.690000", "173658.940000", "173700.190000", "173701.440000", "173702.690000", "173703.940000", "173705.190000", "173706.440000", "173707.690000", "173708.940000", "173710.190000", "173711.440000", "173712.690000", "173713.940000", "173715.190000", "173716.440000", "173717.690000", "173718.940000", "173720.190000", "173721.440000", "173722.690000", "173723.940000", "173725.190000", "173726.440000", "173727.690000", "173728.940000", "173730.190000", "173731.440000", "173732.690000", "173733.940000", "173735.190000", "173736.440000", "173737.690000", "173738.940000", "173740.190000", "173741.440000", "173742.690000", "173743.940000", "173745.190000", "173746.440000", "173747.690000", "173748.940000", "173750.190000", "173751.440000", "173752.690000", "173753.940000", "173755.190000", "173756.440000", "173757.690000", "173758.940000", "173800.190000", "173801.440000", "173802.690000", "173803.940000", "173805.190000", "173806.440000", "173807.690000", "173808.940000", "173810.190000", "173811.440000", "173812.690000", "173813.940000", "173815.190000", "173816.440000", "173817.690000", "173818.940000", "173820.190000", "173821.440000", "173822.690000", "173823.940000", "173825.190000", "173826.440000", "173827.690000", "173828.940000", "173830.190000", "173831.440000", "173832.690000", "173833.940000", "173835.190000", "173836.440000", "173837.690000", "173838.940000", "173840.190000", "173841.440000", "173842.690000", "173843.940000", "173845.190000", "173846.440000", "173847.690000", "173848.940000", "173850.190000", "173851.440000", "173852.690000", "173853.940000", "173855.190000", "173856.440000", "173857.690000", "173858.940000", "173900.190000", "173901.440000", "173902.690000", "173903.940000", "173905.190000", "173906.440000", "173907.690000", "173908.940000", "173910.190000", "173911.440000", "173912.690000", "173913.940000", "173915.190000", "173916.440000", "173917.690000", "173918.940000", "173920.190000", "173921.440000", "173922.690000", "173923.940000", "173925.190000", "173926.440000", "173927.690000", "173928.940000", "173930.190000", "173931.440000", "173932.690000", "173933.940000", "173935.190000", "173936.440000", "173937.690000", "173938.940000", "173940.190000", "173941.440000", "173942.690000", "173943.940000", "173945.190000", "173946.440000", "173947.690000", "173948.940000", "173950.190000", "173951.440000", "173952.690000", "173953.940000", "173955.190000", "173956.440000", "173957.690000", "173958.940000", "174000.190000", "174001.440000", "174002.690000", "174003.940000", "174005.190000", "174006.440000", "174007.690000", "174008.940000", "174010.190000", "174011.440000", "174012.690000", "174013.940000", "174015.190000", "174016.440000", "174017.690000", "174018.940000", "174020.190000", "174021.440000", "174022.690000", "174023.940000", "174025.190000", "174026.440000", "174027.690000", "174028.940000", "174030.190000", "174031.440000", "174032.690000", "174033.940000", "174035.190000", "174036.440000", "174037.690000", "174038.940000", "174040.190000", "174041.440000", "174042.690000", "174043.940000", "174045.190000", "174046.440000", "174047.690000", "174048.940000", "174050.190000", "174051.440000", "174052.690000", "174053.940000", "174055.190000", "174056.440000", "174057.690000", "174058.940000", "174100.190000", "174101.440000", "174102.690000", "174103.940000", "174105.190000", "174106.440000", "174107.690000", "174108.940000", "174110.190000", "174111.440000", "174112.690000", "174113.940000", "174115.190000", "174116.440000"],
      "ContentTime": ["173529.135000", "173530.225000", "173531.456000", "173532.720000", "173533.951000", "173535.195000", "173536.456000", "173537.688000", "173538.972000", "173540.192000", "173541.453000", "173542.702000", "173543.946000", "173545.190000", "173546.462000", "173547.720000", "173548.952000", "173550.215000", "173551.454000", "173552.675000", "173553.942000", "173555.239000", "173556.442000", "173557.713000", "173558.944000", "173600.185000", "173601.456000", "173602.690000", "173603.924000", "173605.252000", "173606.444000", "173607.703000", "173608.969000", "173610.228000", "173611.433000", "173612.688000", "173613.966000", "173615.214000", "173616.435000", "173617.731000", "173618.947000", "173620.191000", "173621.455000", "173622.693000", "173623.986000", "173625.187000", "173626.455000", "173627.712000", "173628.941000", "173630.182000", "173631.428000", "173632.692000", "173634.000000", "173635.223000", "173636.478000", "173637.707000", "173638.945000", "173640.237000", "173641.426000", "173642.693000", "173643.963000", "173645.191000", "173646.454000", "173647.700000", "173648.949000", "173650.228000", "173651.447000", "173652.682000", "173653.940000", "173655.191000", "173656.444000", "173657.727000", "173658.962000", "173700.181000", "173701.448000", "173702.714000", "173703.944000", "173705.182000", "173706.466000", "173707.712000", "173708.933000", "173710.226000", "173711.451000", "173712.694000", "173713.963000", "173715.186000", "173716.452000", "173717.697000", "173718.996000", "173720.190000", "173721.436000", "173722.723000", "173723.973000", "173725.185000", "173726.453000", "173727.723000", "173728.950000", "173730.217000", "173731.456000", "173732.701000", "173733.974000", "173735.246000", "173736.449000", "173737.725000", "173738.955000", "173740.203000", "173741.458000", "173742.704000", "173744.003000", "173745.202000", "173746.452000", "173747.706000", "173748.949000", "173750.220000", "173751.477000", "173752.695000", "173753.974000", "173755.214000", "173756.463000", "173757.700000", "173758.950000", "173800.239000", "173801.466000", "173802.748000", "173804.003000", "173805.213000", "173806.463000", "173807.698000", "173808.977000", "173810.200000", "173811.457000", "173812.713000", "173813.942000", "173815.202000", "173816.456000", "173817.733000", "173818.959000", "173820.208000", "173821.469000", "173822.716000", "173823.995000", "173825.231000", "173826.462000", "173827.725000", "173828.949000", "173830.263000", "173831.455000", "173832.703000", "173833.970000", "173835.224000", "173836.517000", "173837.729000", "173838.986000", "173840.217000", "173841.455000", "173842.695000", "173843.949000", "173845.209000", "173846.447000", "173847.694000", "173848.952000", "173850.194000", "173851.461000", "173852.721000", "173853.949000", "173855.196000", "173856.465000", "173857.707000", "173858.997000", "173900.207000", "173901.485000", "173902.712000", "173903.940000", "173905.184000", "173906.451000", "173907.732000", "173908.952000", "173910.225000", "173911.462000", "173912.698000", "173913.959000", "173915.209000", "173916.452000", "173917.698000", "173918.961000", "173920.203000", "173921.453000", "173922.695000", "173923.939000", "173925.193000", "173926.479000", "173927.686000", "173928.937000", "173930.203000", "173931.460000", "173932.712000", "173933.953000", "173935.209000", "173936.439000", "173937.744000", "173938.985000", "173940.202000", "173941.455000", "173942.723000", "173943.942000", "173945.196000", "173946.468000", "173947.710000", "173948.960000", "173950.205000", "173951.437000", "173952.722000", "173953.957000", "173955.195000", "173956.456000", "173957.706000", "173958.984000", "174000.178000", "174001.461000", "174002.706000", "174003.955000", "174005.220000", "174006.504000", "174007.711000", "174008.970000", "174010.209000", "174011.455000", "174012.721000", "174013.964000", "174015.177000", "174016.478000", "174017.709000", "174018.949000", "174020.205000", "174021.456000", "174022.721000", "174023.981000", "174025.199000", "174026.437000", "174027.704000", "174028.959000", "174030.204000", "174031.463000", "174032.734000", "174034.012000", "174035.218000", "174036.448000", "174037.683000", "174038.965000", "174040.242000", "174041.454000", "174042.712000", "174043.960000", "174045.197000", "174046.427000", "174047.704000", "174048.967000", "174050.215000", "174051.456000", "174052.737000", "174053.967000", "174055.249000", "174056.439000", "174057.704000", "174058.961000", "174100.243000", "174101.427000", "174102.717000", "174103.962000", "174105.204000", "174106.455000", "174107.755000", "174108.954000", "174110.210000", "174111.443000", "174112.695000", "174113.948000", "174115.200000", "174116.458000", "174117.762000"],
      "InstanceCreationTime": ["173529.135000", "173530.225000", "173531.456000", "173532.720000", "173533.951000", "173535.195000", "173536.456000", "173537.688000", "173538.972000", "173540.192000", "173541.453000", "173542.702000", "173543.946000", "173545.190000", "173546.462000", "173547.720000", "173548.952000", "173550.215000", "173551.454000", "173552.675000", "173553.942000", "173555.239000", "173556.442000", "173557.713000", "173558.944000", "173600.185000", "173601.456000", "173602.690000", "173603.924000", "173605.252000", "173606.444000", "173607.703000", "173608.969000", "173610.228000", "173611.433000", "173612.688000", "173613.966000", "173615.214000", "173616.435000", "173617.731000", "173618.947000", "173620.191000", "173621.455000", "173622.693000", "173623.986000", "173625.187000", "173626.455000", "173627.712000", "173628.941000", "173630.182000", "173631.428000", "173632.692000", "173634.000000", "173635.223000", "173636.478000", "173637.707000", "173638.945000", "173640.237000", "173641.426000", "173642.693000", "173643.963000", "173645.191000", "173646.454000", "173647.700000", "173648.949000", "173650.228000", "173651.447000", "173652.682000", "173653.940000", "173655.191000", "173656.444000", "173657.727000", "173658.962000", "173700.181000", "173701.448000", "173702.714000", "173703.944000", "173705.182000", "173706.466000", "173707.712000", "173708.933000", "173710.226000", "173711.451000", "173712.694000", "173713.963000", "173715.186000", "173716.452000", "173717.697000", "173718.996000", "173720.190000", "173721.436000", "173722.723000", "173723.973000", "173725.185000", "173726.453000", "173727.723000", "173728.950000", "173730.217000", "173731.456000", "173732.701000", "173733.974000", "173735.246000", "173736.449000", "173737.725000", "173738.955000", "173740.203000", "173741.458000", "173742.704000", "173744.003000", "173745.202000", "173746.452000", "173747.706000", "173748.949000", "173750.220000", "173751.477000", "173752.695000", "173753.974000", "173755.214000", "173756.463000", "173757.700000", "173758.950000", "173800.239000", "173801.466000", "173802.748000", "173804.003000", "173805.213000", "173806.463000", "173807.698000", "173808.977000", "173810.200000", "173811.457000", "173812.713000", "173813.942000", "173815.202000", "173816.456000", "173817.733000", "173818.959000", "173820.208000", "173821.469000", "173822.716000", "173823.995000", "173825.231000", "173826.462000", "173827.725000", "173828.949000", "173830.263000", "173831.455000", "173832.703000", "173833.970000", "173835.224000", "173836.517000", "173837.729000", "173838.986000", "173840.217000", "173841.455000", "173842.695000", "173843.949000", "173845.209000", "173846.447000", "173847.694000", "173848.952000", "173850.194000", "173851.461000", "173852.721000", "173853.949000", "173855.196000", "173856.465000", "173857.707000", "173858.997000", "173900.207000", "173901.485000", "173902.712000", "173903.940000", "173905.184000", "173906.451000", "173907.732000", "173908.952000", "173910.225000", "173911.462000", "173912.698000", "173913.959000", "173915.209000", "173916.452000", "173917.698000", "173918.961000", "173920.203000", "173921.453000", "173922.695000", "173923.939000", "173925.193000", "173926.479000", "173927.686000", "173928.937000", "173930.203000", "173931.460000", "173932.712000", "173933.953000", "173935.209000", "173936.439000", "173937.744000", "173938.985000", "173940.202000", "173941.455000", "173942.723000", "173943.942000", "173945.196000", "173946.468000", "173947.710000", "173948.960000", "173950.205000", "173951.437000", "173952.722000", "173953.957000", "173955.195000", "173956.456000", "173957.706000", "173958.984000", "174000.178000", "174001.461000", "174002.706000", "174003.955000", "174005.220000", "174006.504000", "174007.711000", "174008.970000", "174010.209000", "174011.455000", "174012.721000", "174013.964000", "174015.177000", "174016.478000", "174017.709000", "174018.949000", "174020.205000", "174021.456000", "174022.721000", "174023.981000", "174025.199000", "174026.437000", "174027.704000", "174028.959000", "174030.204000", "174031.463000", "174032.734000", "174034.012000", "174035.218000", "174036.448000", "174037.683000", "174038.965000", "174040.242000", "174041.454000", "174042.712000", "174043.960000", "174045.197000", "174046.427000", "174047.704000", "174048.967000", "174050.215000", "174051.456000", "174052.737000", "174053.967000", "174055.249000", "174056.439000", "174057.704000", "174058.961000", "174100.243000", "174101.427000", "174102.717000", "174103.962000", "174105.204000", "174106.455000", "174107.755000", "174108.954000", "174110.210000", "174111.443000", "174112.695000", "174113.948000", "174115.200000", "174116.458000", "174117.762000"],
      "InstanceNumber": [1, 2, 3, 4, 5, 6, 7, 8, 9, 10, 11, 12, 13, 14, 15, 16, 17, 18, 19, 20, 21, 22, 23, 24, 25, 26, 27, 28, 29, 30, 31, 32, 33, 34, 35, 36, 37, 38, 39, 40, 41, 42, 43, 44, 45, 46, 47, 48, 49, 50, 51, 52, 53, 54, 55, 56, 57, 58, 59, 60, 61, 62, 63, 64, 65, 66, 67, 68, 69, 70, 71, 72, 73, 74, 75, 76, 77, 78, 79, 80, 81, 82, 83, 84, 85, 86, 87, 88, 89, 90, 91, 92, 93, 94, 95, 96, 97, 98, 99, 100, 101, 102, 103, 104, 105, 106, 107, 108, 109, 110, 111, 112, 113, 114, 115, 116, 117, 118, 119, 120, 121, 122, 123, 124, 125, 126, 127, 128, 129, 130, 131, 132, 133, 134, 135, 136, 137, 138, 139, 140, 141, 142, 143, 144, 145, 146, 147, 148, 149, 150, 151, 152, 153, 154, 155, 156, 157, 158, 159, 160, 161, 162, 163, 164, 165, 166, 167, 168, 169, 170, 171, 172, 173, 174, 175, 176, 177, 178, 179, 180, 181, 182, 183, 184, 185, 186, 187, 188, 189, 190, 191, 192, 193, 194, 195, 196, 197, 198, 199, 200, 201, 202, 203, 204, 205, 206, 207, 208, 209, 210, 211, 212, 213, 214, 215, 216, 217, 218, 219, 220, 221, 222, 223, 224, 225, 226, 227, 228, 229, 230, 231, 232, 233, 234, 235, 236, 237, 238, 239, 240, 241, 242, 243, 244, 245, 246, 247, 248, 249, 250, 251, 252, 253, 254, 255, 256, 257, 258, 259, 260, 261, 262, 263, 264, 265, 266, 267, 268, 269, 270, 271, 272, 273, 274, 275, 276, 277, 278, 279, 280],
      "LargestImagePixelValue": [1140, 1006, 1601, 1068, 1712, 1238, 1255, 1101, 1587, 1529, 1573, 1473, 1072, 1488, 1302, 1237, 1190, 1072, 913, 1150, 971, 1355, 1626, 1365, 1184, 1066, 920, 1364, 1157, 1008, 1554, 1380, 1493, 947, 837, 921, 935, 882, 1482, 1490, 1671, 1606, 1293, 1173, 1156, 1131, 1057, 1026, 858, 931, 1221, 1126, 1213, 1444, 1640, 1128, 1455, 1627, 1645, 1598, 1533, 1272, 1035, 1123, 1023, 1122, 1219, 1079, 1192, 1037, 1129, 1172, 1026, 1174, 1028, 1058, 1438, 1103, 1017, 1623, 1158, 1648, 1637, 1550, 1681, 1308, 1405, 1174, 1118, 1546, 1427, 1181, 1323, 1476, 1376, 1388, 1404, 1264, 1226, 1077, 1119, 1093, 1136, 1228, 1353, 1281, 1230, 1118, 1202, 1170, 1193, 1259, 1424, 1296, 1151, 1147, 1140, 1105, 1048, 908, 830, 914, 987, 999, 1524, 1595, 1310, 1436, 1207, 1088, 967, 1008, 1273, 1096, 1425, 1621, 1324, 1704, 1273, 1158, 1091, 1009, 984, 1198, 1035, 1506, 1524, 1275, 1350, 1458, 947, 1107, 1357, 1519, 1685, 1092, 1196, 1065, 1012, 1002, 1078, 1027, 1015, 1023, 1141, 1626, 1370, 1662, 1542, 1102, 1498, 1014, 1399, 1315, 1079, 1694, 1353, 1608, 1311, 1181, 1122, 1021, 958, 984, 983, 992, 1048, 1024, 984, 907, 1182, 1389, 1166, 1209, 1206, 1121, 958, 1088, 1615, 1614, 1652, 1522, 1712, 1432, 1213, 1199, 1394, 1298, 1314, 1239, 1188, 1175, 1166, 1295, 1150, 1043, 979, 995, 930, 1081, 1121, 967, 1094, 1005, 1617, 1596, 1677, 1314, 1208, 1066, 1097, 1050, 1520, 1317, 1252, 1132, 1122, 1041, 1004, 975, 1179, 1391, 1383, 1672, 1113, 1171, 1609, 1077, 1450, 953, 965, 1061, 1268, 1622, 1628, 1198, 1131, 1089, 956, 1179, 1532, 1612, 1609, 1361, 1418, 1090, 1065, 1090, 1006, 1135, 958, 1110, 1284, 1066, 1580, 1113, 1044, 1003, 1070, 1145],
      "WindowCenter": [403.0, 401.0, 405.0, 402.0, 406.0, 404.0, 404.0, 403.0, 406.0, 405.0, 405.0, 404.0, 402.0, 404.0, 404.0, 404.0, 403.0, 402.0, 400.0, 403.0, 401.0, 405.0, 405.0, 404.0, 403.0, 403.0, 401.0, 405.0, 403.0, 402.0, 406.0, 405.0, 405.0, 401.0, 400.0, 402.0, 403.0, 402.0, 407.0, 406.0, 406.0, 405.0, 403.0, 403.0, 403.0, 403.0, 403.0, 403.0, 402.0, 404.0, 406.0, 404.0, 405.0, 405.0, 406.0, 402.0, 404.0, 405.0, 405.0, 404.0, 403.0, 402.0, 400.0, 401.0, 401.0, 401.0, 403.0, 402.0, 403.0, 401.0, 402.0, 403.0, 401.0, 403.0, 403.0, 403.0, 407.0, 405.0, 404.0, 408.0, 404.0, 407.0, 407.0, 405.0, 407.0, 403.0, 405.0, 404.0, 403.0, 406.0, 405.0, 404.0, 405.0, 405.0, 404.0, 405.0, 403.0, 403.0, 403.0, 402.0, 403.0, 404.0, 403.0, 404.0, 405.0, 403.0, 403.0, 401.0, 403.0, 403.0, 402.0, 403.0, 404.0, 403.0, 402.0, 402.0, 403.0, 403.0, 403.0, 402.0, 401.0, 402.0, 404.0, 404.0, 407.0, 406.0, 403.0, 404.0, 402.0, 401.0, 401.0, 401.0, 403.0, 401.0, 404.0, 405.0, 403.0, 404.0, 403.0, 402.0, 402.0, 401.0, 401.0, 404.0, 402.0, 404.0, 405.0, 404.0, 404.0, 404.0, 401.0, 403.0, 405.0, 407.0, 405.0, 402.0, 401.0, 401.0, 401.0, 402.0, 404.0, 403.0, 403.0, 404.0, 405.0, 407.0, 405.0, 405.0, 406.0, 403.0, 406.0, 402.0, 404.0, 404.0, 402.0, 406.0, 404.0, 404.0, 403.0, 402.0, 401.0, 402.0, 401.0, 402.0, 401.0, 401.0, 402.0, 402.0, 401.0, 401.0, 405.0, 405.0, 405.0, 405.0, 405.0, 403.0, 402.0, 404.0, 407.0, 406.0, 406.0, 405.0, 405.0, 404.0, 402.0, 403.0, 404.0, 405.0, 404.0, 403.0, 403.0, 402.0, 402.0, 403.0, 403.0, 401.0, 401.0, 401.0, 401.0, 403.0, 404.0, 401.0, 403.0, 403.0, 407.0, 406.0, 405.0, 404.0, 402.0, 402.0, 403.0, 402.0, 404.0, 404.0, 403.0, 403.0, 402.0, 402.0, 402.0, 402.0, 404.0, 405.0, 404.0, 406.0, 402.0, 403.0, 405.0, 402.0, 404.0, 400.0, 402.0, 403.0, 405.0, 406.0, 405.0, 403.0, 403.0, 402.0, 403.0, 404.0, 406.0, 405.0, 405.0, 403.0, 404.0, 402.0, 401.0, 402.0, 401.0, 402.0, 401.0, 402.0, 404.0, 403.0, 405.0, 402.0, 403.0, 402.0, 402.0, 404.0],
      "WindowWidth": [854.0, 850.0, 857.0, 852.0, 858.0, 854.0, 855.0, 854.0, 858.0, 856.0, 856.0, 855.0, 853.0, 855.0, 855.0, 855.0, 854.0, 852.0, 848.0, 853.0, 851.0, 856.0, 856.0, 855.0, 854.0, 854.0, 851.0, 856.0, 853.0, 852.0, 859.0, 857.0, 856.0, 851.0, 850.0, 853.0, 854.0, 852.0, 860.0, 859.0, 859.0, 856.0, 853.0, 853.0, 854.0, 853.0, 854.0, 854.0, 853.0, 856.0, 860.0, 856.0, 857.0, 857.0, 858.0, 852.0, 856.0, 857.0, 856.0, 854.0, 853.0, 851.0, 848.0, 850.0, 850.0, 851.0, 853.0, 851.0, 854.0, 851.0, 852.0, 853.0, 851.0, 853.0, 854.0, 854.0, 861.0, 857.0, 856.0, 862.0, 856.0, 860.0, 859.0, 857.0, 859.0, 854.0, 857.0, 856.0, 854.0, 859.0, 857.0, 856.0, 856.0, 857.0, 855.0, 856.0, 853.0, 853.0, 854.0, 853.0, 855.0, 855.0, 854.0, 856.0, 856.0, 854.0, 854.0, 851.0, 853.0, 854.0, 852.0, 854.0, 855.0, 854.0, 852.0, 852.0, 854.0, 854.0, 853.0, 854.0, 851.0, 854.0, 856.0, 856.0, 860.0, 858.0, 854.0, 855.0, 852.0, 850.0, 851.0, 850.0, 854.0, 851.0, 854.0, 856.0, 852.0, 855.0, 854.0, 851.0, 852.0, 851.0, 851.0, 856.0, 853.0, 855.0, 856.0, 854.0, 855.0, 856.0, 850.0, 854.0, 858.0, 860.0, 857.0, 851.0, 851.0, 850.0, 850.0, 852.0, 855.0, 854.0, 855.0, 857.0, 857.0, 860.0, 857.0, 857.0, 857.0, 853.0, 858.0, 852.0, 855.0, 855.0, 852.0, 857.0, 854.0, 855.0, 854.0, 852.0, 851.0, 852.0, 850.0, 852.0, 851.0, 851.0, 852.0, 853.0, 851.0, 850.0, 857.0, 858.0, 857.0, 857.0, 857.0, 854.0, 853.0, 856.0, 860.0, 857.0, 859.0, 857.0, 857.0, 855.0, 852.0, 854.0, 855.0, 856.0, 855.0, 854.0, 854.0, 853.0, 852.0, 854.0, 853.0, 850.0, 850.0, 851.0, 851.0, 854.0, 855.0, 851.0, 854.0, 854.0, 860.0, 858.0, 856.0, 855.0, 852.0, 851.0, 853.0, 851.0, 855.0, 854.0, 853.0, 853.0, 852.0, 853.0, 852.0, 853.0, 855.0, 857.0, 855.0, 858.0, 852.0, 853.0, 856.0, 852.0, 855.0, 850.0, 853.0, 854.0, 856.0, 858.0, 857.0, 853.0, 854.0, 853.0, 854.0, 856.0, 858.0, 856.0, 856.0, 854.0, 855.0, 851.0, 850.0, 852.0, 850.0, 853.0, 851.0, 852.0, 855.0, 854.0, 856.0, 852.0, 853.0, 852.0, 853.0, 856.0]
    },
    "slices": {}
  }
}