{
  "AcquisitionMatrixPE": 96,
  "AcquisitionNumber": 1,
  "AcquisitionTime": "17:09:35.352500",
  "BandwidthPerPixelPhaseEncode": 18.939,
  "BaseResolution": 96,
  "BodyPartExamined": "BRAIN",
  "ConsistencyInfo": "N4_VE11C_LATEST_20160120",
  "ConversionSoftware": "dcm2niix",
  "ConversionSoftwareVersion": "v1.0.20170923 (OpenJPEG build) GCC6.3.0",
  "DerivedVendorReportedEchoSpacing": 0.000550011,
  "DeviceSerialNumber": "66112",
  "DwellTime": 2.3e-06,
  "EchoTime": 0.033,
  "EchoTrainLength": 96,
  "EffectiveEchoSpacing": 0.000550011,
  "FlipAngle": 64,
  "ImageType": [
    "ORIGINAL",
    "PRIMARY",
    "FMRI",
    "NONE",
    "ND",
    "NORM",
    "MOSAIC"
],
  "InstitutionAddress": "Maynard_3_Hanover_NH_US_03755",
  "InstitutionName": "Dartmouth_College_-_PBS",
  "MagneticFieldStrength": 3,
  "Manufacturer": "Siemens",
  "ManufacturersModelName": "Prisma",
  "Modality": "MR",
  "MultibandAccelerationFactor": 4,
  "PartialFourier": 1,
  "PercentPhaseFOV": 100,
  "PhaseEncodingDirection": "j-",
  "PhaseEncodingSteps": 96,
  "PhaseResolution": 1,
  "ProcedureStepDescription": "Gobbini_Matteo_1017_famface-angles",
  "ProtocolName": "func_run-01_task-str1back",
  "PulseSequenceDetails": "%SiemensSeq%_ep2d_bold",
  "ReceiveCoilActiveElements": "HEA;HEP",
  "ReceiveCoilName": "Head_32",
  "ReconMatrixPE": 96,
  "RepetitionTime": 1.25,
  "ScanOptions": "FS",
  "ScanningSequence": "EP",
  "SequenceName": "_epfid2d1_96",
  "SequenceVariant": "SK",
  "SeriesDescription": "func_run-01_task-str1back",
  "SliceTiming": [0.8775, 0, 0.615, 0.0875, 0.7025, 0.175, 0.79, 0.35, 0.965, 0.4375, 1.0525, 0.5275, 1.1425, 0.2625, 0.8775, 0, 0.615, 0.0875, 0.7025, 0.175, 0.79, 0.35, 0.965, 0.4375, 1.0525, 0.5275, 1.1425, 0.2625, 0.8775, 0, 0.615, 0.0875, 0.7025, 0.175, 0.79, 0.35, 0.965, 0.4375, 1.0525, 0.5275, 1.1425, 0.2625, 0.8775, 0, 0.615, 0.0875, 0.7025, 0.175, 0.79, 0.35, 0.965, 0.4375, 1.0525, 0.5275, 1.1425, 0.2625],
  "SoftwareVersions": "syngo_MR_E11",
  "StationName": "AWP66112",
  "TaskName": "str1back",
  "TotalReadoutTime": 0.0522511,
  "dcmmeta_affine": [
    [-2.491222858428955, 0.05435854196548462, 0.20212185382843018, 113.9228286743164],
    [0.06993772089481354, 2.4916422367095947, 0.19190609455108643, -118.22844696044922],
    [0.19727344810962677, -0.19688673317432404, 2.484415054321289, -90.62456512451172],
    [0.0, 0.0, 0.0, 1.0]
],
  "dcmmeta_reorient_transform": [
    [0.0, -1.0, 0.0, 95.0],
    [1.0, 0.0, 0.0, 0.0],
    [0.0, 0.0, 1.0, 0.0],
    [0.0, 0.0, 0.0, 1.0]
],
  "dcmmeta_shape": [96, 96, 56, 280],
  "dcmmeta_slice_dim": 2,
  "dcmmeta_version": 0.6,
  "global": {
    "const": {
      "AccessionNumber": "A000263",
      "AcquisitionMatrix": [96, 0, 0, 96],
      "AngioFlag": "N",
      "BitsAllocated": 16,
      "BitsStored": 12,
      "BodyPartExamined": "BRAIN",
      "Columns": 768,
      "EchoNumbers": 1,
      "EchoTime": 33.0,
      "EchoTrainLength": 96,
      "FlipAngle": 64.0,
      "HighBit": 11,
      "ImageOrientationPatient": [0.99648918930872, -0.0279750873712, 0.07890937889391, 0.02174341642298, 0.99665687304814, 0.07875469032488],
      "ImagePositionPatient": [-974.40227925893, -932.17025991825, -241.76662510238],
      "ImageType": [
        "ORIGINAL",
        "PRIMARY",
        "FMRI",
        "NONE",
        "ND",
        "NORM",
        "MOSAIC"
],
      "ImagedNucleus": "1H",
      "ImagingFrequency": 123.252393,
      "InPlanePhaseEncodingDirection": "COL",
      "MRAcquisitionType": "2D",
      "MagneticFieldStrength": 3.0,
      "Manufacturer": "SIEMENS",
      "ManufacturerModelName": "Prisma",
      "Modality": "MR",
      "NumberOfAverages": 1.0,
      "NumberOfPhaseEncodingSteps": 96,
      "PercentPhaseFieldOfView": 100.0,
      "PercentSampling": 100.0,
      "PerformedProcedureStepStartTime": "165538.599000",
      "PhotometricInterpretation": "MONOCHROME2",
      "PixelBandwidth": 2265.0,
      "PixelRepresentation": 0,
      "PixelSpacing": [2.5, 2.5],
      "PositionReferenceIndicator": "",
      "ProtocolName": "func_run-01_task-str1back",
      "RepetitionTime": 1250.0,
      "Rows": 768,
      "SAR": 0.05526268273521,
      "SamplesPerPixel": 1,
      "ScanOptions": "FS",
      "ScanningSequence": "EP",
      "SequenceName": "*epfid2d1_96",
      "SequenceVariant": "SK",
      "SeriesDescription": "func_run-01_task-str1back",
      "SeriesNumber": 8,
      "SeriesTime": "170937.311000",
      "SliceLocation": -89.924607309912,
      "SliceThickness": 2.5,
      "SmallestImagePixelValue": 0,
      "SoftwareVersions": "syngo MR E11",
      "SpacingBetweenSlices": 2.4999999737792,
      "SpecificCharacterSet": "ISO_IR 100",
      "StudyID": "2",
      "StudyTime": "165538.561000",
      "TransmitCoilName": "Body",
      "VariableFlipAngleFlag": "N",
      "WindowCenterWidthExplanation": "Algo1",
      "dBdt": 0.0},
    "slices": {}
  },
  "time": {
    "samples": {
      "AcquisitionNumber": [1, 2, 3, 4, 5, 6, 7, 8, 9, 10, 11, 12, 13, 14, 15, 16, 17, 18, 19, 20, 21, 22, 23, 24, 25, 26, 27, 28, 29, 30, 31, 32, 33, 34, 35, 36, 37, 38, 39, 40, 41, 42, 43, 44, 45, 46, 47, 48, 49, 50, 51, 52, 53, 54, 55, 56, 57, 58, 59, 60, 61, 62, 63, 64, 65, 66, 67, 68, 69, 70, 71, 72, 73, 74, 75, 76, 77, 78, 79, 80, 81, 82, 83, 84, 85, 86, 87, 88, 89, 90, 91, 92, 93, 94, 95, 96, 97, 98, 99, 100, 101, 102, 103, 104, 105, 106, 107, 108, 109, 110, 111, 112, 113, 114, 115, 116, 117, 118, 119, 120, 121, 122, 123, 124, 125, 126, 127, 128, 129, 130, 131, 132, 133, 134, 135, 136, 137, 138, 139, 140, 141, 142, 143, 144, 145, 146, 147, 148, 149, 150, 151, 152, 153, 154, 155, 156, 157, 158, 159, 160, 161, 162, 163, 164, 165, 166, 167, 168, 169, 170, 171, 172, 173, 174, 175, 176, 177, 178, 179, 180, 181, 182, 183, 184, 185, 186, 187, 188, 189, 190, 191, 192, 193, 194, 195, 196, 197, 198, 199, 200, 201, 202, 203, 204, 205, 206, 207, 208, 209, 210, 211, 212, 213, 214, 215, 216, 217, 218, 219, 220, 221, 222, 223, 224, 225, 226, 227, 228, 229, 230, 231, 232, 233, 234, 235, 236, 237, 238, 239, 240, 241, 242, 243, 244, 245, 246, 247, 248, 249, 250, 251, 252, 253, 254, 255, 256, 257, 258, 259, 260, 261, 262, 263, 264, 265, 266, 267, 268, 269, 270, 271, 272, 273, 274, 275, 276, 277, 278, 279, 280],
      "AcquisitionTime": ["170935.352500", "170936.602500", "170937.852500", "170939.102500", "170940.352500", "170941.602500", "170942.852500", "170944.102500", "170945.352500", "170946.602500", "170947.852500", "170949.102500", "170950.352500", "170951.602500", "170952.852500", "170954.102500", "170955.352500", "170956.602500", "170957.852500", "170959.102500", "171000.352500", "171001.602500", "171002.852500", "171004.102500", "171005.352500", "171006.602500", "171007.852500", "171009.102500", "171010.352500", "171011.602500", "171012.852500", "171014.102500", "171015.352500", "171016.602500", "171017.852500", "171019.102500", "171020.352500", "171021.602500", "171022.852500", "171024.102500", "171025.352500", "171026.602500", "171027.852500", "171029.102500", "171030.352500", "171031.602500", "171032.852500", "171034.102500", "171035.352500", "171036.602500", "171037.852500", "171039.102500", "171040.352500", "171041.602500", "171042.852500", "171044.102500", "171045.352500", "171046.602500", "171047.852500", "171049.102500", "171050.352500", "171051.602500", "171052.852500", "171054.102500", "171055.352500", "171056.602500", "171057.852500", "171059.102500", "171100.352500", "171101.602500", "171102.852500", "171104.102500", "171105.352500", "171106.602500", "171107.852500", "171109.102500", "171110.352500", "171111.602500", "171112.852500", "171114.102500", "171115.352500", "171116.602500", "171117.852500", "171119.102500", "171120.352500", "171121.602500", "171122.852500", "171124.102500", "171125.352500", "171126.602500", "171127.852500", "171129.102500", "171130.352500", "171131.602500", "171132.852500", "171134.102500", "171135.352500", "171136.602500", "171137.852500", "171139.102500", "171140.352500", "171141.602500", "171142.852500", "171144.102500", "171145.352500", "171146.602500", "171147.852500", "171149.102500", "171150.352500", "171151.602500", "171152.852500", "171154.102500", "171155.352500", "171156.602500", "171157.852500", "171159.102500", "171200.352500", "171201.602500", "171202.852500", "171204.102500", "171205.352500", "171206.602500", "171207.852500", "171209.102500", "171210.352500", "171211.602500", "171212.852500", "171214.102500", "171215.352500", "171216.602500", "171217.852500", "171219.102500", "171220.352500", "171221.602500", "171222.852500", "171224.102500", "171225.352500", "171226.602500", "171227.852500", "171229.102500", "171230.352500", "171231.602500", "171232.852500", "171234.102500", "171235.352500", "171236.602500", "171237.852500", "171239.102500", "171240.352500", "171241.602500", "171242.852500", "171244.102500", "171245.352500", "171246.602500", "171247.852500", "171249.102500", "171250.352500", "171251.602500", "171252.852500", "171254.102500", "171255.352500", "171256.602500", "171257.852500", "171259.102500", "171300.352500", "171301.602500", "171302.852500", "171304.102500", "171305.352500", "171306.602500", "171307.852500", "171309.102500", "171310.352500", "171311.602500", "171312.852500", "171314.102500", "171315.352500", "171316.602500", "171317.852500", "171319.102500", "171320.352500", "171321.602500", "171322.852500", "171324.102500", "171325.352500", "171326.602500", "171327.852500", "171329.102500", "171330.352500", "171331.602500", "171332.852500", "171334.102500", "171335.352500", "171336.602500", "171337.852500", "171339.102500", "171340.352500", "171341.602500", "171342.852500", "171344.102500", "171345.352500", "171346.602500", "171347.852500", "171349.102500", "171350.352500", "171351.602500", "171352.852500", "171354.102500", "171355.352500", "171356.602500", "171357.852500", "171359.102500", "171400.352500", "171401.602500", "171402.852500", "171404.102500", "171405.352500", "171406.602500", "171407.852500", "171409.102500", "171410.352500", "171411.602500", "171412.852500", "171414.102500", "171415.352500", "171416.602500", "171417.852500", "171419.102500", "171420.352500", "171421.602500", "171422.852500", "171424.102500", "171425.352500", "171426.602500", "171427.852500", "171429.102500", "171430.352500", "171431.602500", "171432.852500", "171434.102500", "171435.352500", "171436.602500", "171437.852500", "171439.102500", "171440.352500", "171441.602500", "171442.852500", "171444.102500", "171445.352500", "171446.602500", "171447.852500", "171449.102500", "171450.352500", "171451.602500", "171452.852500", "171454.102500", "171455.352500", "171456.602500", "171457.852500", "171459.102500", "171500.352500", "171501.602500", "171502.852500", "171504.102500", "171505.352500", "171506.602500", "171507.852500", "171509.102500", "171510.352500", "171511.602500", "171512.852500", "171514.102500", "171515.352500", "171516.602500", "171517.852500", "171519.102500", "171520.352500", "171521.602500", "171522.852500", "171524.102500"],
      "ContentTime": ["170937.315000", "170938.360000", "170939.646000", "170940.900000", "170942.146000", "170943.369000", "170944.630000", "170945.926000", "170947.114000", "170948.389000", "170949.623000", "170950.859000", "170952.122000", "170953.361000", "170954.634000", "170955.889000", "170957.125000", "170958.333000", "170959.605000", "171000.873000", "171002.115000", "171003.381000", "171004.637000", "171005.905000", "171007.122000", "171008.342000", "171009.644000", "171010.832000", "171012.131000", "171013.386000", "171014.608000", "171015.871000", "171017.108000", "171018.365000", "171019.673000", "171020.854000", "171022.079000", "171023.376000", "171024.632000", "171025.875000", "171027.134000", "171028.366000", "171029.620000", "171030.852000", "171032.153000", "171033.401000", "171034.660000", "171035.865000", "171037.123000", "171038.399000", "171039.611000", "171040.887000", "171042.104000", "171043.373000", "171044.625000", "171045.873000", "171047.116000", "171048.419000", "171049.622000", "171050.895000", "171052.124000", "171053.345000", "171054.616000", "171055.833000", "171057.121000", "171058.354000", "171059.581000", "171100.869000", "171102.125000", "171103.365000", "171104.605000", "171105.870000", "171107.112000", "171108.383000", "171109.661000", "171110.880000", "171112.132000", "171113.435000", "171114.636000", "171115.865000", "171117.117000", "171118.368000", "171119.631000", "171120.862000", "171122.116000", "171123.368000", "171124.621000", "171125.836000", "171127.113000", "171128.407000", "171129.710000", "171130.861000", "171132.126000", "171133.378000", "171134.617000", "171135.946000", "171137.111000", "171138.360000", "171139.600000", "171140.831000", "171142.128000", "171143.404000", "171144.623000", "171145.900000", "171147.145000", "171148.361000", "171149.644000", "171150.883000", "171152.131000", "171153.492000", "171154.622000", "171155.993000", "171157.128000", "171158.384000", "171159.628000", "171200.890000", "171202.107000", "171203.403000", "171204.632000", "171205.900000", "171207.160000", "171208.374000", "171209.619000", "171210.913000", "171212.159000", "171213.362000", "171214.640000", "171215.884000", "171217.126000", "171218.395000", "171219.594000", "171220.875000", "171222.131000", "171223.356000", "171224.636000", "171225.891000", "171227.166000", "171228.405000", "171229.640000", "171230.879000", "171232.122000", "171233.354000", "171234.617000", "171235.880000", "171237.141000", "171238.381000", "171239.612000", "171240.873000", "171242.076000", "171243.453000", "171244.626000", "171245.887000", "171247.127000", "171248.387000", "171249.638000", "171250.900000", "171252.111000", "171253.376000", "171254.649000", "171255.889000", "171257.162000", "171258.370000", "171259.599000", "171300.864000", "171302.144000", "171303.372000", "171304.645000", "171305.883000", "171307.119000", "171308.392000", "171309.625000", "171310.868000", "171312.135000", "171313.384000", "171314.626000", "171315.899000", "171317.122000", "171318.443000", "171319.663000", "171320.867000", "171322.125000", "171323.389000", "171324.620000", "171325.884000", "171327.114000", "171328.336000", "171329.612000", "171330.863000", "171332.120000", "171333.371000", "171334.597000", "171335.848000", "171337.105000", "171338.386000", "171339.624000", "171340.890000", "171342.133000", "171343.382000", "171344.635000", "171345.899000", "171347.133000", "171348.373000", "171349.653000", "171350.889000", "171352.120000", "171353.384000", "171354.627000", "171355.873000", "171357.119000", "171358.379000", "171359.610000", "171400.880000", "171402.113000", "171403.379000", "171404.632000", "171405.884000", "171407.123000", "171408.372000", "171409.616000", "171410.892000", "171412.148000", "171413.373000", "171414.592000", "171415.869000", "171417.119000", "171418.332000", "171419.671000", "171420.892000", "171422.145000", "171423.372000", "171424.615000", "171425.895000", "171427.118000", "171428.367000", "171429.615000", "171430.908000", "171432.133000", "171433.373000", "171434.648000", "171435.871000", "171437.111000", "171438.412000", "171439.626000", "171440.921000", "171442.138000", "171443.361000", "171444.696000", "171445.873000", "171447.108000", "171448.374000", "171449.660000", "171450.863000", "171452.130000", "171453.358000", "171454.603000", "171455.865000", "171457.135000", "171458.382000", "171459.632000", "171500.902000", "171502.127000", "171503.380000", "171504.632000", "171505.861000", "171507.123000", "171508.370000", "171509.622000", "171510.890000", "171512.122000", "171513.363000", "171514.625000", "171515.876000", "171517.116000", "171518.375000", "171519.624000", "171520.871000", "171522.163000", "171523.386000", "171524.638000", "171525.924000"],
      "InstanceCreationTime": ["170937.315000", "170938.360000", "170939.646000", "170940.900000", "170942.146000", "170943.369000", "170944.630000", "170945.926000", "170947.114000", "170948.389000", "170949.623000", "170950.859000", "170952.122000", "170953.361000", "170954.634000", "170955.889000", "170957.125000", "170958.333000", "170959.605000", "171000.873000", "171002.115000", "171003.381000", "171004.637000", "171005.905000", "171007.122000", "171008.342000", "171009.644000", "171010.832000", "171012.131000", "171013.386000", "171014.608000", "171015.871000", "171017.108000", "171018.365000", "171019.673000", "171020.854000", "171022.079000", "171023.376000", "171024.632000", "171025.875000", "171027.134000", "171028.366000", "171029.620000", "171030.852000", "171032.153000", "171033.401000", "171034.660000", "171035.865000", "171037.123000", "171038.399000", "171039.611000", "171040.887000", "171042.104000", "171043.373000", "171044.625000", "171045.873000", "171047.116000", "171048.419000", "171049.622000", "171050.895000", "171052.124000", "171053.345000", "171054.616000", "171055.833000", "171057.121000", "171058.354000", "171059.581000", "171100.869000", "171102.125000", "171103.365000", "171104.605000", "171105.870000", "171107.112000", "171108.383000", "171109.661000", "171110.880000", "171112.132000", "171113.435000", "171114.636000", "171115.865000", "171117.117000", "171118.368000", "171119.631000", "171120.862000", "171122.116000", "171123.368000", "171124.621000", "171125.836000", "171127.113000", "171128.407000", "171129.710000", "171130.861000", "171132.126000", "171133.378000", "171134.617000", "171135.946000", "171137.111000", "171138.360000", "171139.600000", "171140.831000", "171142.128000", "171143.404000", "171144.623000", "171145.900000", "171147.145000", "171148.361000", "171149.644000", "171150.883000", "171152.131000", "171153.492000", "171154.622000", "171155.993000", "171157.128000", "171158.384000", "171159.628000", "171200.890000", "171202.107000", "171203.403000", "171204.632000", "171205.900000", "171207.160000", "171208.374000", "171209.619000", "171210.913000", "171212.159000", "171213.362000", "171214.640000", "171215.884000", "171217.126000", "171218.395000", "171219.594000", "171220.875000", "171222.131000", "171223.356000", "171224.636000", "171225.891000", "171227.166000", "171228.405000", "171229.640000", "171230.879000", "171232.122000", "171233.354000", "171234.617000", "171235.880000", "171237.141000", "171238.381000", "171239.612000", "171240.873000", "171242.076000", "171243.453000", "171244.626000", "171245.887000", "171247.127000", "171248.387000", "171249.638000", "171250.900000", "171252.111000", "171253.376000", "171254.649000", "171255.889000", "171257.162000", "171258.370000", "171259.599000", "171300.864000", "171302.144000", "171303.372000", "171304.645000", "171305.883000", "171307.119000", "171308.392000", "171309.625000", "171310.868000", "171312.135000", "171313.384000", "171314.626000", "171315.899000", "171317.122000", "171318.443000", "171319.663000", "171320.867000", "171322.125000", "171323.389000", "171324.620000", "171325.884000", "171327.114000", "171328.336000", "171329.612000", "171330.863000", "171332.120000", "171333.371000", "171334.597000", "171335.848000", "171337.105000", "171338.386000", "171339.624000", "171340.890000", "171342.133000", "171343.382000", "171344.635000", "171345.899000", "171347.133000", "171348.373000", "171349.653000", "171350.889000", "171352.120000", "171353.384000", "171354.627000", "171355.873000", "171357.119000", "171358.379000", "171359.610000", "171400.880000", "171402.113000", "171403.379000", "171404.632000", "171405.884000", "171407.123000", "171408.372000", "171409.616000", "171410.892000", "171412.148000", "171413.373000", "171414.592000", "171415.869000", "171417.119000", "171418.332000", "171419.671000", "171420.892000", "171422.145000", "171423.372000", "171424.615000", "171425.895000", "171427.118000", "171428.367000", "171429.615000", "171430.908000", "171432.133000", "171433.373000", "171434.648000", "171435.871000", "171437.111000", "171438.412000", "171439.626000", "171440.921000", "171442.138000", "171443.361000", "171444.696000", "171445.873000", "171447.108000", "171448.374000", "171449.660000", "171450.863000", "171452.130000", "171453.358000", "171454.603000", "171455.865000", "171457.135000", "171458.382000", "171459.632000", "171500.902000", "171502.127000", "171503.380000", "171504.632000", "171505.861000", "171507.123000", "171508.370000", "171509.622000", "171510.890000", "171512.122000", "171513.363000", "171514.625000", "171515.876000", "171517.116000", "171518.375000", "171519.624000", "171520.871000", "171522.163000", "171523.386000", "171524.638000", "171525.924000"],
      "InstanceNumber": [1, 2, 3, 4, 5, 6, 7, 8, 9, 10, 11, 12, 13, 14, 15, 16, 17, 18, 19, 20, 21, 22, 23, 24, 25, 26, 27, 28, 29, 30, 31, 32, 33, 34, 35, 36, 37, 38, 39, 40, 41, 42, 43, 44, 45, 46, 47, 48, 49, 50, 51, 52, 53, 54, 55, 56, 57, 58, 59, 60, 61, 62, 63, 64, 65, 66, 67, 68, 69, 70, 71, 72, 73, 74, 75, 76, 77, 78, 79, 80, 81, 82, 83, 84, 85, 86, 87, 88, 89, 90, 91, 92, 93, 94, 95, 96, 97, 98, 99, 100, 101, 102, 103, 104, 105, 106, 107, 108, 109, 110, 111, 112, 113, 114, 115, 116, 117, 118, 119, 120, 121, 122, 123, 124, 125, 126, 127, 128, 129, 130, 131, 132, 133, 134, 135, 136, 137, 138, 139, 140, 141, 142, 143, 144, 145, 146, 147, 148, 149, 150, 151, 152, 153, 154, 155, 156, 157, 158, 159, 160, 161, 162, 163, 164, 165, 166, 167, 168, 169, 170, 171, 172, 173, 174, 175, 176, 177, 178, 179, 180, 181, 182, 183, 184, 185, 186, 187, 188, 189, 190, 191, 192, 193, 194, 195, 196, 197, 198, 199, 200, 201, 202, 203, 204, 205, 206, 207, 208, 209, 210, 211, 212, 213, 214, 215, 216, 217, 218, 219, 220, 221, 222, 223, 224, 225, 226, 227, 228, 229, 230, 231, 232, 233, 234, 235, 236, 237, 238, 239, 240, 241, 242, 243, 244, 245, 246, 247, 248, 249, 250, 251, 252, 253, 254, 255, 256, 257, 258, 259, 260, 261, 262, 263, 264, 265, 266, 267, 268, 269, 270, 271, 272, 273, 274, 275, 276, 277, 278, 279, 280],
      "LargestImagePixelValue": [1509, 1529, 1293, 1440, 1517, 1234, 1111, 1124, 980, 1217, 1249, 1182, 1240, 1185, 1213, 1347, 1306, 1336, 1230, 1253, 1249, 1167, 1195, 1214, 1233, 1283, 1177, 1110, 1192, 1208, 1507, 1513, 1446, 1466, 1275, 1356, 1027, 984, 921, 947, 1135, 1179, 1511, 1484, 1734, 1323, 1081, 1060, 1166, 1410, 1224, 1230, 1180, 1081, 1116, 958, 1011, 1690, 1605, 1671, 1442, 1312, 1208, 1144, 1182, 1067, 1474, 1569, 1412, 1779, 1326, 1215, 1046, 1022, 953, 1145, 1743, 1518, 1601, 1107, 1062, 916, 890, 1077, 1278, 1540, 1634, 1301, 1426, 898, 993, 1130, 1069, 1090, 995, 1027, 1193, 1079, 1075, 1420, 1354, 1143, 1112, 961, 972, 958, 1476, 1653, 1276, 1276, 1171, 1223, 1323, 1147, 1097, 980, 1027, 903, 1239, 1246, 1279, 1263, 1159, 1204, 1558, 1479, 1353, 1374, 1456, 1719, 1323, 1251, 1159, 1548, 1405, 1466, 1207, 1095, 1136, 1115, 1140, 1083, 967, 1026, 944, 1062, 1101, 1175, 1537, 1582, 1611, 1384, 1545, 1235, 1115, 1004, 1151, 847, 1192, 1397, 1664, 1321, 1246, 1237, 1223, 979, 906, 883, 1241, 1795, 1356, 1270, 1150, 1202, 907, 1057, 1242, 1073, 1704, 1114, 1113, 1128, 1733, 1313, 1217, 1084, 1027, 998, 996, 1255, 1578, 1703, 1622, 1322, 1214, 1011, 925, 946, 903, 900, 881, 903, 1572, 1492, 1377, 1532, 1342, 1376, 948, 948, 1132, 997, 1138, 992, 1495, 1258, 1108, 1128, 1216, 1301, 1242, 1377, 1062, 1383, 904, 922, 966, 1025, 1387, 1347, 1443, 1255, 1271, 1028, 950, 1307, 1296, 1233, 1147, 991, 926, 951, 886, 993, 1173, 1639, 1660, 1809, 1443, 1346, 1176, 1121, 1046, 1091, 1027, 1029, 1011, 1040, 1026, 1038, 1057, 1257, 1705, 1694, 1248, 1566, 1373, 1783, 1386, 1253, 1194, 1163, 1168, 1186, 1220, 1187, 1263, 1201, 1243, 1215],
      "WindowCenter": [404.0, 403.0, 401.0, 403.0, 403.0, 401.0, 401.0, 401.0, 400.0, 402.0, 402.0, 402.0, 403.0, 403.0, 403.0, 405.0, 405.0, 404.0, 403.0, 404.0, 404.0, 404.0, 403.0, 404.0, 405.0, 406.0, 404.0, 404.0, 405.0, 405.0, 407.0, 406.0, 406.0, 406.0, 404.0, 404.0, 402.0, 402.0, 402.0, 401.0, 403.0, 404.0, 405.0, 405.0, 406.0, 402.0, 401.0, 401.0, 402.0, 404.0, 403.0, 403.0, 403.0, 403.0, 404.0, 402.0, 404.0, 407.0, 405.0, 405.0, 405.0, 405.0, 404.0, 404.0, 404.0, 402.0, 405.0, 406.0, 404.0, 406.0, 404.0, 405.0, 402.0, 402.0, 403.0, 404.0, 406.0, 404.0, 405.0, 401.0, 402.0, 401.0, 401.0, 404.0, 406.0, 406.0, 405.0, 403.0, 403.0, 399.0, 401.0, 402.0, 402.0, 402.0, 402.0, 401.0, 403.0, 403.0, 402.0, 404.0, 403.0, 402.0, 402.0, 401.0, 402.0, 402.0, 405.0, 406.0, 405.0, 404.0, 405.0, 405.0, 404.0, 403.0, 402.0, 402.0, 402.0, 403.0, 406.0, 406.0, 406.0, 406.0, 406.0, 405.0, 407.0, 405.0, 404.0, 404.0, 405.0, 406.0, 403.0, 403.0, 403.0, 405.0, 404.0, 404.0, 403.0, 401.0, 402.0, 403.0, 403.0, 403.0, 401.0, 402.0, 401.0, 403.0, 403.0, 403.0, 406.0, 405.0, 405.0, 403.0, 404.0, 402.0, 401.0, 402.0, 403.0, 400.0, 404.0, 404.0, 405.0, 403.0, 403.0, 404.0, 403.0, 401.0, 400.0, 400.0, 405.0, 408.0, 404.0, 404.0, 403.0, 403.0, 401.0, 403.0, 405.0, 402.0, 406.0, 402.0, 402.0, 403.0, 406.0, 404.0, 404.0, 403.0, 402.0, 403.0, 403.0, 404.0, 406.0, 406.0, 405.0, 403.0, 403.0, 401.0, 400.0, 400.0, 400.0, 401.0, 402.0, 403.0, 407.0, 406.0, 405.0, 404.0, 403.0, 403.0, 400.0, 400.0, 402.0, 402.0, 402.0, 402.0, 405.0, 404.0, 404.0, 404.0, 405.0, 405.0, 404.0, 403.0, 401.0, 403.0, 399.0, 400.0, 401.0, 402.0, 404.0, 403.0, 404.0, 403.0, 403.0, 401.0, 400.0, 404.0, 404.0, 403.0, 403.0, 401.0, 401.0, 402.0, 402.0, 404.0, 405.0, 407.0, 407.0, 406.0, 404.0, 403.0, 402.0, 402.0, 401.0, 402.0, 401.0, 402.0, 402.0, 403.0, 403.0, 403.0, 403.0, 404.0, 406.0, 406.0, 403.0, 404.0, 404.0, 406.0, 403.0, 403.0, 402.0, 402.0, 402.0, 403.0, 403.0, 403.0, 403.0, 403.0, 403.0, 403.0],
      "WindowWidth": [856.0, 853.0, 850.0, 852.0, 853.0, 849.0, 850.0, 850.0, 848.0, 851.0, 851.0, 852.0, 853.0, 853.0, 854.0, 857.0, 857.0, 854.0, 853.0, 855.0, 856.0, 855.0, 854.0, 855.0, 857.0, 859.0, 855.0, 856.0, 857.0, 856.0, 860.0, 859.0, 858.0, 858.0, 856.0, 855.0, 852.0, 851.0, 852.0, 851.0, 855.0, 856.0, 856.0, 856.0, 858.0, 852.0, 851.0, 850.0, 852.0, 855.0, 853.0, 854.0, 854.0, 854.0, 856.0, 854.0, 855.0, 860.0, 857.0, 857.0, 856.0, 857.0, 855.0, 856.0, 855.0, 853.0, 856.0, 857.0, 856.0, 858.0, 856.0, 856.0, 853.0, 853.0, 854.0, 855.0, 859.0, 855.0, 857.0, 851.0, 852.0, 851.0, 852.0, 856.0, 859.0, 858.0, 857.0, 853.0, 853.0, 848.0, 850.0, 852.0, 852.0, 852.0, 853.0, 851.0, 853.0, 853.0, 852.0, 855.0, 854.0, 853.0, 851.0, 850.0, 852.0, 852.0, 858.0, 858.0, 856.0, 855.0, 856.0, 857.0, 855.0, 854.0, 852.0, 852.0, 852.0, 854.0, 859.0, 859.0, 859.0, 858.0, 859.0, 858.0, 860.0, 856.0, 855.0, 855.0, 856.0, 857.0, 854.0, 853.0, 854.0, 857.0, 856.0, 856.0, 854.0, 851.0, 853.0, 853.0, 855.0, 854.0, 851.0, 853.0, 851.0, 853.0, 854.0, 853.0, 858.0, 857.0, 857.0, 854.0, 854.0, 852.0, 851.0, 852.0, 854.0, 850.0, 855.0, 856.0, 857.0, 854.0, 853.0, 855.0, 854.0, 850.0, 849.0, 850.0, 858.0, 861.0, 856.0, 854.0, 853.0, 854.0, 851.0, 855.0, 856.0, 853.0, 858.0, 852.0, 852.0, 854.0, 859.0, 855.0, 855.0, 853.0, 852.0, 854.0, 854.0, 856.0, 857.0, 858.0, 857.0, 854.0, 854.0, 850.0, 849.0, 850.0, 849.0, 851.0, 853.0, 854.0, 861.0, 858.0, 857.0, 856.0, 852.0, 854.0, 848.0, 849.0, 852.0, 853.0, 853.0, 852.0, 857.0, 855.0, 856.0, 855.0, 857.0, 857.0, 855.0, 854.0, 849.0, 852.0, 848.0, 848.0, 850.0, 852.0, 855.0, 854.0, 854.0, 853.0, 853.0, 850.0, 850.0, 855.0, 855.0, 854.0, 855.0, 851.0, 851.0, 852.0, 852.0, 856.0, 858.0, 860.0, 860.0, 858.0, 855.0, 854.0, 852.0, 851.0, 850.0, 851.0, 851.0, 852.0, 852.0, 853.0, 855.0, 855.0, 855.0, 856.0, 857.0, 858.0, 853.0, 855.0, 854.0, 857.0, 854.0, 853.0, 852.0, 852.0, 852.0, 853.0, 853.0, 853.0, 853.0, 853.0, 853.0, 853.0]
    },
    "slices": {}
  }
}