{
  "AcquisitionMatrixPE": 96,
  "AcquisitionNumber": 1,
  "AcquisitionTime": "17:15:54.630000",
  "BandwidthPerPixelPhaseEncode": 18.939,
  "BaseResolution": 96,
  "BodyPartExamined": "BRAIN",
  "ConsistencyInfo": "N4_VE11C_LATEST_20160120",
  "ConversionSoftware": "dcm2niix",
  "ConversionSoftwareVersion": "v1.0.20170923 (OpenJPEG build) GCC6.3.0",
  "DerivedVendorReportedEchoSpacing": 0.000550011,
  "DeviceSerialNumber": "66112",
  "DwellTime": 2.3e-06,
  "EchoTime": 0.033,
  "EchoTrainLength": 96,
  "EffectiveEchoSpacing": 0.000550011,
  "FlipAngle": 64,
  "ImageType": [
    "ORIGINAL",
    "PRIMARY",
    "FMRI",
    "NONE",
    "ND",
    "NORM",
    "MOSAIC"
],
  "InstitutionAddress": "Maynard_3_Hanover_NH_US_03755",
  "InstitutionName": "Dartmouth_College_-_PBS",
  "MagneticFieldStrength": 3,
  "Manufacturer": "Siemens",
  "ManufacturersModelName": "Prisma",
  "Modality": "MR",
  "MultibandAccelerationFactor": 4,
  "PartialFourier": 1,
  "PercentPhaseFOV": 100,
  "PhaseEncodingDirection": "j-",
  "PhaseEncodingSteps": 96,
  "PhaseResolution": 1,
  "ProcedureStepDescription": "Gobbini_Matteo_1017_famface-angles",
  "ProtocolName": "func_run-02_task-fam1back",
  "PulseSequenceDetails": "%SiemensSeq%_ep2d_bold",
  "ReceiveCoilActiveElements": "HEA;HEP",
  "ReceiveCoilName": "Head_32",
  "ReconMatrixPE": 96,
  "RepetitionTime": 1.25,
  "ScanOptions": "FS",
  "ScanningSequence": "EP",
  "SequenceName": "_epfid2d1_96",
  "SequenceVariant": "SK",
  "SeriesDescription": "func_run-02_task-fam1back",
  "SliceTiming": [0.8775, 0, 0.615, 0.0875, 0.7025, 0.175, 0.79, 0.35, 0.965, 0.44, 1.055, 0.5275, 1.1425, 0.2625, 0.8775, 0, 0.615, 0.0875, 0.7025, 0.175, 0.79, 0.35, 0.965, 0.44, 1.055, 0.5275, 1.1425, 0.2625, 0.8775, 0, 0.615, 0.0875, 0.7025, 0.175, 0.79, 0.35, 0.965, 0.44, 1.055, 0.5275, 1.1425, 0.2625, 0.8775, 0, 0.615, 0.0875, 0.7025, 0.175, 0.79, 0.35, 0.965, 0.44, 1.055, 0.5275, 1.1425, 0.2625],
  "SoftwareVersions": "syngo_MR_E11",
  "StationName": "AWP66112",
  "TaskName": "fam1back",
  "TotalReadoutTime": 0.0522511,
  "dcmmeta_affine": [
    [-2.491222858428955, 0.05435854196548462, 0.20212185382843018, 113.9228286743164],
    [0.06993772089481354, 2.4916422367095947, 0.19190609455108643, -118.22844696044922],
    [0.19727344810962677, -0.19688673317432404, 2.484415054321289, -90.62456512451172],
    [0.0, 0.0, 0.0, 1.0]
],
  "dcmmeta_reorient_transform": [
    [0.0, -1.0, 0.0, 95.0],
    [1.0, 0.0, 0.0, 0.0],
    [0.0, 0.0, 1.0, 0.0],
    [0.0, 0.0, 0.0, 1.0]
],
  "dcmmeta_shape": [96, 96, 56, 280],
  "dcmmeta_slice_dim": 2,
  "dcmmeta_version": 0.6,
  "global": {
    "const": {
      "AccessionNumber": "A000263",
      "AcquisitionMatrix": [96, 0, 0, 96],
      "AngioFlag": "N",
      "BitsAllocated": 16,
      "BitsStored": 12,
      "BodyPartExamined": "BRAIN",
      "Columns": 768,
      "EchoNumbers": 1,
      "EchoTime": 33.0,
      "EchoTrainLength": 96,
      "FlipAngle": 64.0,
      "HighBit": 11,
      "ImageOrientationPatient": [0.99648918930872, -0.0279750873712, 0.07890937889391, 0.02174341642298, 0.99665687304814, 0.07875469032488],
      "ImagePositionPatient": [-974.40227925893, -932.17025991825, -241.76662510238],
      "ImageType": [
        "ORIGINAL",
        "PRIMARY",
        "FMRI",
        "NONE",
        "ND",
        "NORM",
        "MOSAIC"
],
      "ImagedNucleus": "1H",
      "ImagingFrequency": 123.252395,
      "InPlanePhaseEncodingDirection": "COL",
      "MRAcquisitionType": "2D",
      "MagneticFieldStrength": 3.0,
      "Manufacturer": "SIEMENS",
      "ManufacturerModelName": "Prisma",
      "Modality": "MR",
      "NumberOfAverages": 1.0,
      "NumberOfPhaseEncodingSteps": 96,
      "PercentPhaseFieldOfView": 100.0,
      "PercentSampling": 100.0,
      "PerformedProcedureStepStartTime": "165538.599000",
      "PhotometricInterpretation": "MONOCHROME2",
      "PixelBandwidth": 2265.0,
      "PixelRepresentation": 0,
      "PixelSpacing": [2.5, 2.5],
      "PositionReferenceIndicator": "",
      "ProtocolName": "func_run-02_task-fam1back",
      "RepetitionTime": 1250.0,
      "Rows": 768,
      "SAR": 0.05526268273521,
      "SamplesPerPixel": 1,
      "ScanOptions": "FS",
      "ScanningSequence": "EP",
      "SequenceName": "*epfid2d1_96",
      "SequenceVariant": "SK",
      "SeriesDescription": "func_run-02_task-fam1back",
      "SeriesNumber": 15,
      "SeriesTime": "171555.851000",
      "SliceLocation": -89.924607309912,
      "SliceThickness": 2.5,
      "SmallestImagePixelValue": 0,
      "SoftwareVersions": "syngo MR E11",
      "SpacingBetweenSlices": 2.4999999737792,
      "SpecificCharacterSet": "ISO_IR 100",
      "StudyID": "2",
      "StudyTime": "165538.561000",
      "TransmitCoilName": "Body",
      "VariableFlipAngleFlag": "N",
      "WindowCenterWidthExplanation": "Algo1",
      "dBdt": 0.0},
    "slices": {}
  },
  "time": {
    "samples": {
      "AcquisitionNumber": [1, 2, 3, 4, 5, 6, 7, 8, 9, 10, 11, 12, 13, 14, 15, 16, 17, 18, 19, 20, 21, 22, 23, 24, 25, 26, 27, 28, 29, 30, 31, 32, 33, 34, 35, 36, 37, 38, 39, 40, 41, 42, 43, 44, 45, 46, 47, 48, 49, 50, 51, 52, 53, 54, 55, 56, 57, 58, 59, 60, 61, 62, 63, 64, 65, 66, 67, 68, 69, 70, 71, 72, 73, 74, 75, 76, 77, 78, 79, 80, 81, 82, 83, 84, 85, 86, 87, 88, 89, 90, 91, 92, 93, 94, 95, 96, 97, 98, 99, 100, 101, 102, 103, 104, 105, 106, 107, 108, 109, 110, 111, 112, 113, 114, 115, 116, 117, 118, 119, 120, 121, 122, 123, 124, 125, 126, 127, 128, 129, 130, 131, 132, 133, 134, 135, 136, 137, 138, 139, 140, 141, 142, 143, 144, 145, 146, 147, 148, 149, 150, 151, 152, 153, 154, 155, 156, 157, 158, 159, 160, 161, 162, 163, 164, 165, 166, 167, 168, 169, 170, 171, 172, 173, 174, 175, 176, 177, 178, 179, 180, 181, 182, 183, 184, 185, 186, 187, 188, 189, 190, 191, 192, 193, 194, 195, 196, 197, 198, 199, 200, 201, 202, 203, 204, 205, 206, 207, 208, 209, 210, 211, 212, 213, 214, 215, 216, 217, 218, 219, 220, 221, 222, 223, 224, 225, 226, 227, 228, 229, 230, 231, 232, 233, 234, 235, 236, 237, 238, 239, 240, 241, 242, 243, 244, 245, 246, 247, 248, 249, 250, 251, 252, 253, 254, 255, 256, 257, 258, 259, 260, 261, 262, 263, 264, 265, 266, 267, 268, 269, 270, 271, 272, 273, 274, 275, 276, 277, 278, 279, 280],
      "AcquisitionTime": ["171554.630000", "171555.880000", "171557.130000", "171558.380000", "171559.630000", "171600.880000", "171602.130000", "171603.380000", "171604.630000", "171605.880000", "171607.130000", "171608.380000", "171609.630000", "171610.880000", "171612.130000", "171613.380000", "171614.630000", "171615.880000", "171617.130000", "171618.380000", "171619.630000", "171620.880000", "171622.130000", "171623.380000", "171624.630000", "171625.880000", "171627.130000", "171628.380000", "171629.630000", "171630.880000", "171632.130000", "171633.380000", "171634.630000", "171635.880000", "171637.130000", "171638.380000", "171639.630000", "171640.880000", "171642.130000", "171643.380000", "171644.630000", "171645.880000", "171647.130000", "171648.380000", "171649.630000", "171650.880000", "171652.130000", "171653.380000", "171654.630000", "171655.880000", "171657.130000", "171658.380000", "171659.630000", "171700.880000", "171702.130000", "171703.380000", "171704.630000", "171705.880000", "171707.130000", "171708.380000", "171709.630000", "171710.880000", "171712.130000", "171713.380000", "171714.630000", "171715.880000", "171717.130000", "171718.380000", "171719.630000", "171720.880000", "171722.130000", "171723.380000", "171724.630000", "171725.880000", "171727.130000", "171728.380000", "171729.630000", "171730.880000", "171732.130000", "171733.380000", "171734.630000", "171735.880000", "171737.130000", "171738.380000", "171739.630000", "171740.880000", "171742.130000", "171743.380000", "171744.630000", "171745.880000", "171747.130000", "171748.380000", "171749.630000", "171750.880000", "171752.130000", "171753.380000", "171754.630000", "171755.880000", "171757.130000", "171758.380000", "171759.630000", "171800.880000", "171802.130000", "171803.380000", "171804.630000", "171805.880000", "171807.130000", "171808.380000", "171809.630000", "171810.880000", "171812.130000", "171813.380000", "171814.630000", "171815.880000", "171817.130000", "171818.380000", "171819.630000", "171820.880000", "171822.130000", "171823.380000", "171824.630000", "171825.880000", "171827.130000", "171828.380000", "171829.630000", "171830.880000", "171832.130000", "171833.380000", "171834.630000", "171835.880000", "171837.130000", "171838.380000", "171839.630000", "171840.880000", "171842.130000", "171843.380000", "171844.630000", "171845.880000", "171847.130000", "171848.380000", "171849.630000", "171850.880000", "171852.130000", "171853.380000", "171854.630000", "171855.880000", "171857.130000", "171858.380000", "171859.630000", "171900.880000", "171902.130000", "171903.380000", "171904.630000", "171905.880000", "171907.130000", "171908.380000", "171909.630000", "171910.880000", "171912.130000", "171913.380000", "171914.630000", "171915.880000", "171917.130000", "171918.380000", "171919.630000", "171920.880000", "171922.130000", "171923.380000", "171924.630000", "171925.880000", "171927.130000", "171928.380000", "171929.630000", "171930.880000", "171932.130000", "171933.380000", "171934.630000", "171935.880000", "171937.130000", "171938.380000", "171939.630000", "171940.880000", "171942.130000", "171943.380000", "171944.630000", "171945.880000", "171947.130000", "171948.380000", "171949.630000", "171950.880000", "171952.130000", "171953.380000", "171954.630000", "171955.880000", "171957.130000", "171958.380000", "171959.630000", "172000.880000", "172002.130000", "172003.380000", "172004.630000", "172005.880000", "172007.130000", "172008.380000", "172009.630000", "172010.880000", "172012.130000", "172013.380000", "172014.630000", "172015.880000", "172017.130000", "172018.380000", "172019.630000", "172020.880000", "172022.130000", "172023.380000", "172024.630000", "172025.880000", "172027.130000", "172028.380000", "172029.630000", "172030.880000", "172032.130000", "172033.380000", "172034.630000", "172035.880000", "172037.130000", "172038.380000", "172039.630000", "172040.880000", "172042.130000", "172043.380000", "172044.630000", "172045.880000", "172047.130000", "172048.380000", "172049.630000", "172050.880000", "172052.130000", "172053.380000", "172054.630000", "172055.880000", "172057.130000", "172058.380000", "172059.630000", "172100.880000", "172102.130000", "172103.380000", "172104.630000", "172105.880000", "172107.130000", "172108.380000", "172109.630000", "172110.880000", "172112.130000", "172113.380000", "172114.630000", "172115.880000", "172117.130000", "172118.380000", "172119.630000", "172120.880000", "172122.130000", "172123.380000", "172124.630000", "172125.880000", "172127.130000", "172128.380000", "172129.630000", "172130.880000", "172132.130000", "172133.380000", "172134.630000", "172135.880000", "172137.130000", "172138.380000", "172139.630000", "172140.880000", "172142.130000", "172143.380000"],
      "ContentTime": ["171555.856000", "171556.920000", "171558.223000", "171559.432000", "171600.671000", "171601.905000", "171603.161000", "171604.381000", "171605.660000", "171606.899000", "171608.140000", "171609.392000", "171610.653000", "171611.900000", "171613.154000", "171614.397000", "171615.687000", "171616.967000", "171618.184000", "171619.463000", "171620.673000", "171621.927000", "171623.144000", "171624.383000", "171625.666000", "171626.920000", "171628.142000", "171629.403000", "171630.665000", "171631.904000", "171633.177000", "171634.418000", "171635.663000", "171636.904000", "171638.193000", "171639.436000", "171640.650000", "171641.916000", "171643.116000", "171644.414000", "171645.634000", "171646.905000", "171648.154000", "171649.426000", "171650.629000", "171651.915000", "171653.165000", "171654.395000", "171655.651000", "171656.911000", "171658.159000", "171659.452000", "171700.678000", "171701.907000", "171703.142000", "171704.497000", "171705.661000", "171706.900000", "171708.171000", "171709.410000", "171710.686000", "171711.938000", "171713.170000", "171714.388000", "171715.667000", "171716.974000", "171718.176000", "171719.419000", "171720.667000", "171721.910000", "171723.169000", "171724.408000", "171725.663000", "171726.898000", "171728.169000", "171729.371000", "171730.663000", "171731.881000", "171733.142000", "171734.416000", "171735.669000", "171736.899000", "171738.158000", "171739.452000", "171740.659000", "171741.896000", "171743.138000", "171744.406000", "171745.649000", "171746.904000", "171748.156000", "171749.410000", "171750.627000", "171751.908000", "171753.168000", "171754.435000", "171755.640000", "171756.903000", "171758.155000", "171759.407000", "171800.656000", "171801.912000", "171803.171000", "171804.395000", "171805.661000", "171806.918000", "171808.165000", "171809.422000", "171810.644000", "171811.907000", "171813.164000", "171814.414000", "171815.662000", "171816.938000", "171818.164000", "171819.425000", "171820.652000", "171821.925000", "171823.187000", "171824.426000", "171825.673000", "171826.923000", "171828.184000", "171829.435000", "171830.665000", "171831.912000", "171833.187000", "171834.423000", "171835.664000", "171836.914000", "171838.154000", "171839.399000", "171840.666000", "171841.975000", "171843.165000", "171844.425000", "171845.688000", "171846.921000", "171848.153000", "171849.459000", "171850.706000", "171851.928000", "171853.174000", "171854.442000", "171855.726000", "171856.911000", "171858.165000", "171859.412000", "171900.659000", "171901.908000", "171903.139000", "171904.430000", "171905.654000", "171906.945000", "171908.190000", "171909.441000", "171910.658000", "171911.946000", "171913.170000", "171914.432000", "171915.683000", "171916.888000", "171918.178000", "171919.497000", "171920.662000", "171921.952000", "171923.151000", "171924.441000", "171925.715000", "171926.886000", "171928.194000", "171929.391000", "171930.730000", "171931.915000", "171933.174000", "171934.428000", "171935.653000", "171936.898000", "171938.171000", "171939.412000", "171940.683000", "171941.940000", "171943.178000", "171944.372000", "171945.659000", "171946.901000", "171948.189000", "171949.395000", "171950.694000", "171951.931000", "171953.198000", "171954.422000", "171955.660000", "171956.895000", "171958.168000", "171959.435000", "172000.674000", "172001.962000", "172003.192000", "172004.401000", "172005.673000", "172006.913000", "172008.174000", "172009.456000", "172010.644000", "172011.904000", "172013.161000", "172014.446000", "172015.631000", "172016.929000", "172018.191000", "172019.435000", "172020.686000", "172021.914000", "172023.173000", "172024.406000", "172025.654000", "172026.912000", "172028.185000", "172029.413000", "172030.674000", "172031.935000", "172033.191000", "172034.433000", "172035.695000", "172036.913000", "172038.163000", "172039.409000", "172040.667000", "172041.922000", "172043.151000", "172044.417000", "172045.662000", "172046.914000", "172048.161000", "172049.406000", "172050.707000", "172051.876000", "172053.169000", "172054.434000", "172055.660000", "172056.932000", "172058.184000", "172059.427000", "172100.674000", "172101.913000", "172103.147000", "172104.421000", "172105.661000", "172106.955000", "172108.175000", "172109.416000", "172110.649000", "172111.913000", "172113.192000", "172114.430000", "172115.651000", "172116.931000", "172118.203000", "172119.457000", "172120.703000", "172121.919000", "172123.164000", "172124.430000", "172125.675000", "172126.926000", "172128.187000", "172129.398000", "172130.661000", "172131.917000", "172133.163000", "172134.401000", "172135.669000", "172136.953000", "172138.240000", "172139.407000", "172140.671000", "172141.887000", "172143.144000", "172144.468000"],
      "InstanceCreationTime": ["171555.856000", "171556.920000", "171558.223000", "171559.432000", "171600.671000", "171601.905000", "171603.161000", "171604.381000", "171605.660000", "171606.899000", "171608.140000", "171609.392000", "171610.653000", "171611.900000", "171613.154000", "171614.397000", "171615.687000", "171616.967000", "171618.184000", "171619.463000", "171620.673000", "171621.927000", "171623.144000", "171624.383000", "171625.666000", "171626.920000", "171628.142000", "171629.403000", "171630.665000", "171631.904000", "171633.177000", "171634.418000", "171635.663000", "171636.904000", "171638.193000", "171639.436000", "171640.650000", "171641.916000", "171643.116000", "171644.414000", "171645.634000", "171646.905000", "171648.154000", "171649.426000", "171650.629000", "171651.915000", "171653.165000", "171654.395000", "171655.651000", "171656.911000", "171658.159000", "171659.452000", "171700.678000", "171701.907000", "171703.142000", "171704.497000", "171705.661000", "171706.900000", "171708.171000", "171709.410000", "171710.686000", "171711.938000", "171713.170000", "171714.388000", "171715.667000", "171716.974000", "171718.176000", "171719.419000", "171720.667000", "171721.910000", "171723.169000", "171724.408000", "171725.663000", "171726.898000", "171728.169000", "171729.371000", "171730.663000", "171731.881000", "171733.142000", "171734.416000", "171735.669000", "171736.899000", "171738.158000", "171739.452000", "171740.659000", "171741.896000", "171743.138000", "171744.406000", "171745.649000", "171746.904000", "171748.156000", "171749.410000", "171750.627000", "171751.908000", "171753.168000", "171754.435000", "171755.640000", "171756.903000", "171758.155000", "171759.407000", "171800.656000", "171801.912000", "171803.171000", "171804.395000", "171805.661000", "171806.918000", "171808.165000", "171809.422000", "171810.644000", "171811.907000", "171813.164000", "171814.414000", "171815.662000", "171816.938000", "171818.164000", "171819.425000", "171820.652000", "171821.925000", "171823.187000", "171824.426000", "171825.673000", "171826.923000", "171828.184000", "171829.435000", "171830.665000", "171831.912000", "171833.187000", "171834.423000", "171835.664000", "171836.914000", "171838.154000", "171839.399000", "171840.666000", "171841.975000", "171843.165000", "171844.425000", "171845.688000", "171846.921000", "171848.153000", "171849.459000", "171850.706000", "171851.928000", "171853.174000", "171854.442000", "171855.726000", "171856.911000", "171858.165000", "171859.412000", "171900.659000", "171901.908000", "171903.139000", "171904.430000", "171905.654000", "171906.945000", "171908.190000", "171909.441000", "171910.658000", "171911.946000", "171913.170000", "171914.432000", "171915.683000", "171916.888000", "171918.178000", "171919.497000", "171920.662000", "171921.952000", "171923.151000", "171924.441000", "171925.715000", "171926.886000", "171928.194000", "171929.391000", "171930.730000", "171931.915000", "171933.174000", "171934.428000", "171935.653000", "171936.898000", "171938.171000", "171939.412000", "171940.683000", "171941.940000", "171943.178000", "171944.372000", "171945.659000", "171946.901000", "171948.189000", "171949.395000", "171950.694000", "171951.931000", "171953.198000", "171954.422000", "171955.660000", "171956.895000", "171958.168000", "171959.435000", "172000.674000", "172001.962000", "172003.192000", "172004.401000", "172005.673000", "172006.913000", "172008.174000", "172009.456000", "172010.644000", "172011.904000", "172013.161000", "172014.446000", "172015.631000", "172016.929000", "172018.191000", "172019.435000", "172020.686000", "172021.914000", "172023.173000", "172024.406000", "172025.654000", "172026.912000", "172028.185000", "172029.413000", "172030.674000", "172031.935000", "172033.191000", "172034.433000", "172035.695000", "172036.913000", "172038.163000", "172039.409000", "172040.667000", "172041.922000", "172043.151000", "172044.417000", "172045.662000", "172046.914000", "172048.161000", "172049.406000", "172050.707000", "172051.876000", "172053.169000", "172054.434000", "172055.660000", "172056.932000", "172058.184000", "172059.427000", "172100.674000", "172101.913000", "172103.147000", "172104.421000", "172105.661000", "172106.955000", "172108.175000", "172109.416000", "172110.649000", "172111.913000", "172113.192000", "172114.430000", "172115.651000", "172116.931000", "172118.203000", "172119.457000", "172120.703000", "172121.919000", "172123.164000", "172124.430000", "172125.675000", "172126.926000", "172128.187000", "172129.398000", "172130.661000", "172131.917000", "172133.163000", "172134.401000", "172135.669000", "172136.953000", "172138.240000", "172139.407000", "172140.671000", "172141.887000", "172143.144000", "172144.468000"],
      "InstanceNumber": [1, 2, 3, 4, 5, 6, 7, 8, 9, 10, 11, 12, 13, 14, 15, 16, 17, 18, 19, 20, 21, 22, 23, 24, 25, 26, 27, 28, 29, 30, 31, 32, 33, 34, 35, 36, 37, 38, 39, 40, 41, 42, 43, 44, 45, 46, 47, 48, 49, 50, 51, 52, 53, 54, 55, 56, 57, 58, 59, 60, 61, 62, 63, 64, 65, 66, 67, 68, 69, 70, 71, 72, 73, 74, 75, 76, 77, 78, 79, 80, 81, 82, 83, 84, 85, 86, 87, 88, 89, 90, 91, 92, 93, 94, 95, 96, 97, 98, 99, 100, 101, 102, 103, 104, 105, 106, 107, 108, 109, 110, 111, 112, 113, 114, 115, 116, 117, 118, 119, 120, 121, 122, 123, 124, 125, 126, 127, 128, 129, 130, 131, 132, 133, 134, 135, 136, 137, 138, 139, 140, 141, 142, 143, 144, 145, 146, 147, 148, 149, 150, 151, 152, 153, 154, 155, 156, 157, 158, 159, 160, 161, 162, 163, 164, 165, 166, 167, 168, 169, 170, 171, 172, 173, 174, 175, 176, 177, 178, 179, 180, 181, 182, 183, 184, 185, 186, 187, 188, 189, 190, 191, 192, 193, 194, 195, 196, 197, 198, 199, 200, 201, 202, 203, 204, 205, 206, 207, 208, 209, 210, 211, 212, 213, 214, 215, 216, 217, 218, 219, 220, 221, 222, 223, 224, 225, 226, 227, 228, 229, 230, 231, 232, 233, 234, 235, 236, 237, 238, 239, 240, 241, 242, 243, 244, 245, 246, 247, 248, 249, 250, 251, 252, 253, 254, 255, 256, 257, 258, 259, 260, 261, 262, 263, 264, 265, 266, 267, 268, 269, 270, 271, 272, 273, 274, 275, 276, 277, 278, 279, 280],
      "LargestImagePixelValue": [1451, 1288, 1280, 1429, 1135, 1359, 1258, 1037, 1081, 1347, 1269, 1161, 1287, 1262, 925, 913, 883, 871, 963, 1068, 1035, 1409, 1533, 1047, 942, 1773, 1472, 1416, 1327, 1006, 1029, 952, 1018, 1329, 1618, 1369, 1429, 964, 1340, 1450, 1173, 1086, 943, 1075, 1461, 1218, 1690, 1095, 1212, 1075, 1151, 1221, 1330, 1473, 1224, 1085, 1075, 1092, 1044, 1090, 1193, 1255, 1242, 1399, 1453, 1457, 1270, 1394, 1150, 1265, 1576, 1416, 1398, 1421, 1202, 1177, 1083, 966, 1024, 1159, 1500, 1598, 1294, 1152, 1568, 1054, 1086, 1065, 1038, 973, 929, 1046, 1063, 1189, 1310, 1600, 1446, 1068, 1045, 1114, 1148, 1120, 921, 1675, 1431, 1336, 1356, 1044, 1058, 902, 1011, 1044, 1095, 1053, 1278, 1052, 1158, 1329, 1229, 1220, 863, 990, 1007, 1186, 1347, 1160, 1078, 907, 1025, 1358, 1590, 1021, 1083, 1314, 1618, 1558, 1428, 1032, 1092, 1052, 1068, 947, 994, 871, 886, 967, 1026, 1008, 1580, 1354, 1169, 1054, 1020, 1659, 1744, 1500, 1399, 1127, 991, 1214, 1033, 1015, 1336, 1279, 1028, 1326, 1090, 1141, 1658, 1123, 1260, 1720, 1191, 1261, 1082, 1101, 1002, 954, 1068, 987, 1117, 1005, 1001, 906, 916, 1165, 1345, 1208, 1442, 1302, 1479, 1633, 1007, 1312, 1119, 1007, 1115, 1146, 1715, 1253, 1518, 1244, 1192, 1217, 1205, 1045, 998, 947, 1032, 1228, 1076, 1433, 1355, 1497, 1360, 1062, 1416, 1355, 1150, 1232, 1001, 1054, 1136, 1065, 1196, 1170, 1142, 1488, 1236, 1196, 1055, 1016, 1019, 937, 957, 1064, 1301, 1263, 1612, 1114, 1130, 1301, 1089, 1126, 1079, 1061, 1087, 1176, 1164, 1244, 1191, 1198, 1337, 1204, 1173, 968, 913, 905, 864, 981, 1083, 1532, 1240, 1221, 1445, 1426, 1037, 958, 952, 909, 946, 968, 1636, 1329, 1293, 1613, 1202, 1427, 947, 1111],
      "WindowCenter": [405.0, 403.0, 402.0, 403.0, 402.0, 403.0, 403.0, 402.0, 404.0, 406.0, 404.0, 403.0, 402.0, 403.0, 400.0, 399.0, 400.0, 401.0, 402.0, 403.0, 403.0, 406.0, 406.0, 403.0, 403.0, 408.0, 406.0, 405.0, 404.0, 401.0, 400.0, 402.0, 403.0, 405.0, 405.0, 405.0, 404.0, 401.0, 404.0, 405.0, 402.0, 403.0, 402.0, 403.0, 406.0, 404.0, 406.0, 402.0, 403.0, 404.0, 405.0, 405.0, 405.0, 405.0, 403.0, 402.0, 402.0, 402.0, 403.0, 404.0, 405.0, 404.0, 405.0, 405.0, 405.0, 405.0, 403.0, 405.0, 404.0, 405.0, 405.0, 405.0, 404.0, 404.0, 402.0, 402.0, 402.0, 402.0, 403.0, 404.0, 407.0, 406.0, 403.0, 400.0, 403.0, 400.0, 400.0, 401.0, 401.0, 401.0, 400.0, 401.0, 403.0, 404.0, 404.0, 405.0, 404.0, 401.0, 401.0, 403.0, 403.0, 403.0, 402.0, 407.0, 404.0, 404.0, 404.0, 402.0, 401.0, 401.0, 401.0, 403.0, 402.0, 402.0, 404.0, 402.0, 403.0, 404.0, 403.0, 403.0, 400.0, 402.0, 403.0, 404.0, 406.0, 405.0, 403.0, 402.0, 404.0, 406.0, 406.0, 403.0, 404.0, 406.0, 408.0, 405.0, 405.0, 401.0, 401.0, 402.0, 401.0, 400.0, 401.0, 401.0, 401.0, 402.0, 403.0, 404.0, 408.0, 406.0, 405.0, 404.0, 404.0, 408.0, 406.0, 406.0, 405.0, 402.0, 402.0, 404.0, 403.0, 402.0, 404.0, 404.0, 402.0, 404.0, 404.0, 403.0, 407.0, 403.0, 403.0, 405.0, 403.0, 403.0, 402.0, 401.0, 401.0, 401.0, 402.0, 401.0, 402.0, 400.0, 402.0, 402.0, 403.0, 406.0, 406.0, 405.0, 406.0, 404.0, 403.0, 405.0, 401.0, 404.0, 402.0, 401.0, 403.0, 403.0, 406.0, 404.0, 406.0, 404.0, 403.0, 404.0, 402.0, 402.0, 402.0, 401.0, 402.0, 403.0, 404.0, 406.0, 405.0, 406.0, 404.0, 402.0, 405.0, 405.0, 403.0, 404.0, 402.0, 402.0, 403.0, 402.0, 403.0, 403.0, 403.0, 406.0, 404.0, 404.0, 403.0, 403.0, 404.0, 404.0, 404.0, 404.0, 406.0, 404.0, 406.0, 402.0, 402.0, 404.0, 401.0, 402.0, 401.0, 402.0, 402.0, 404.0, 404.0, 404.0, 403.0, 403.0, 404.0, 403.0, 403.0, 401.0, 401.0, 402.0, 401.0, 403.0, 404.0, 408.0, 406.0, 406.0, 407.0, 404.0, 402.0, 402.0, 403.0, 403.0, 402.0, 403.0, 406.0, 404.0, 404.0, 405.0, 403.0, 403.0, 400.0, 403.0],
      "WindowWidth": [857.0, 853.0, 852.0, 854.0, 852.0, 852.0, 853.0, 852.0, 855.0, 859.0, 856.0, 853.0, 852.0, 853.0, 849.0, 848.0, 850.0, 851.0, 852.0, 854.0, 855.0, 859.0, 859.0, 854.0, 855.0, 862.0, 858.0, 856.0, 855.0, 850.0, 849.0, 852.0, 854.0, 857.0, 858.0, 857.0, 856.0, 851.0, 856.0, 856.0, 851.0, 855.0, 853.0, 854.0, 858.0, 855.0, 858.0, 852.0, 854.0, 855.0, 857.0, 857.0, 857.0, 857.0, 854.0, 852.0, 852.0, 852.0, 854.0, 855.0, 857.0, 855.0, 856.0, 857.0, 857.0, 857.0, 854.0, 856.0, 855.0, 857.0, 857.0, 856.0, 855.0, 855.0, 851.0, 852.0, 852.0, 853.0, 853.0, 856.0, 860.0, 858.0, 854.0, 849.0, 852.0, 849.0, 849.0, 850.0, 850.0, 850.0, 850.0, 851.0, 854.0, 856.0, 855.0, 856.0, 854.0, 851.0, 851.0, 853.0, 854.0, 853.0, 852.0, 859.0, 855.0, 855.0, 854.0, 851.0, 851.0, 850.0, 851.0, 854.0, 853.0, 852.0, 855.0, 853.0, 853.0, 855.0, 853.0, 854.0, 849.0, 852.0, 854.0, 856.0, 859.0, 857.0, 855.0, 853.0, 856.0, 858.0, 858.0, 854.0, 855.0, 859.0, 862.0, 856.0, 856.0, 850.0, 850.0, 851.0, 851.0, 849.0, 851.0, 851.0, 852.0, 852.0, 855.0, 856.0, 862.0, 859.0, 858.0, 857.0, 856.0, 861.0, 859.0, 858.0, 856.0, 851.0, 852.0, 855.0, 854.0, 851.0, 856.0, 854.0, 853.0, 855.0, 855.0, 855.0, 860.0, 854.0, 853.0, 857.0, 853.0, 854.0, 852.0, 851.0, 851.0, 850.0, 853.0, 850.0, 853.0, 850.0, 853.0, 853.0, 854.0, 858.0, 859.0, 856.0, 859.0, 855.0, 853.0, 857.0, 851.0, 854.0, 852.0, 851.0, 854.0, 853.0, 858.0, 855.0, 858.0, 855.0, 855.0, 855.0, 852.0, 852.0, 852.0, 851.0, 853.0, 853.0, 855.0, 858.0, 857.0, 858.0, 855.0, 852.0, 857.0, 856.0, 854.0, 855.0, 852.0, 852.0, 853.0, 852.0, 853.0, 854.0, 853.0, 858.0, 855.0, 856.0, 854.0, 854.0, 856.0, 856.0, 857.0, 857.0, 860.0, 855.0, 858.0, 851.0, 853.0, 855.0, 850.0, 851.0, 850.0, 852.0, 853.0, 855.0, 855.0, 856.0, 854.0, 853.0, 856.0, 854.0, 853.0, 851.0, 851.0, 852.0, 852.0, 855.0, 857.0, 862.0, 859.0, 859.0, 860.0, 856.0, 853.0, 852.0, 855.0, 854.0, 853.0, 855.0, 859.0, 855.0, 855.0, 857.0, 853.0, 854.0, 849.0, 853.0]
    },
    "slices": {}
  }
}