{
  "AcquisitionMatrixPE": 96,
  "AcquisitionNumber": 1,
  "AcquisitionTime": "17:22:21.595000",
  "BandwidthPerPixelPhaseEncode": 18.939,
  "BaseResolution": 96,
  "BodyPartExamined": "BRAIN",
  "ConsistencyInfo": "N4_VE11C_LATEST_20160120",
  "ConversionSoftware": "dcm2niix",
  "ConversionSoftwareVersion": "v1.0.20170923 (OpenJPEG build) GCC6.3.0",
  "DerivedVendorReportedEchoSpacing": 0.000550011,
  "DeviceSerialNumber": "66112",
  "DwellTime": 2.3e-06,
  "EchoTime": 0.033,
  "EchoTrainLength": 96,
  "EffectiveEchoSpacing": 0.000550011,
  "FlipAngle": 64,
  "ImageType": [
    "ORIGINAL",
    "PRIMARY",
    "FMRI",
    "NONE",
    "ND",
    "NORM",
    "MOSAIC"
],
  "InstitutionAddress": "Maynard_3_Hanover_NH_US_03755",
  "InstitutionName": "Dartmouth_College_-_PBS",
  "MagneticFieldStrength": 3,
  "Manufacturer": "Siemens",
  "ManufacturersModelName": "Prisma",
  "Modality": "MR",
  "MultibandAccelerationFactor": 4,
  "PartialFourier": 1,
  "PercentPhaseFOV": 100,
  "PhaseEncodingDirection": "j-",
  "PhaseEncodingSteps": 96,
  "PhaseResolution": 1,
  "ProcedureStepDescription": "Gobbini_Matteo_1017_famface-angles",
  "ProtocolName": "func_run-03_task-str1back",
  "PulseSequenceDetails": "%SiemensSeq%_ep2d_bold",
  "ReceiveCoilActiveElements": "HEA;HEP",
  "ReceiveCoilName": "Head_32",
  "ReconMatrixPE": 96,
  "RepetitionTime": 1.25,
  "ScanOptions": "FS",
  "ScanningSequence": "EP",
  "SequenceName": "_epfid2d1_96",
  "SequenceVariant": "SK",
  "SeriesDescription": "func_run-03_task-str1back",
  "SliceTiming": [0.88, 0, 0.615, 0.0875, 0.7025, 0.1775, 0.7925, 0.3525, 0.9675, 0.44, 1.055, 0.5275, 1.1425, 0.265, 0.88, 0, 0.615, 0.0875, 0.7025, 0.1775, 0.7925, 0.3525, 0.9675, 0.44, 1.055, 0.5275, 1.1425, 0.265, 0.88, 0, 0.615, 0.0875, 0.7025, 0.1775, 0.7925, 0.3525, 0.9675, 0.44, 1.055, 0.5275, 1.1425, 0.265, 0.88, 0, 0.615, 0.0875, 0.7025, 0.1775, 0.7925, 0.3525, 0.9675, 0.44, 1.055, 0.5275, 1.1425, 0.265],
  "SoftwareVersions": "syngo_MR_E11",
  "StationName": "AWP66112",
  "TaskName": "str1back",
  "TotalReadoutTime": 0.0522511,
  "dcmmeta_affine": [
    [-2.491222858428955, 0.05435854196548462, 0.20212185382843018, 113.9228286743164],
    [0.06993772089481354, 2.4916422367095947, 0.19190609455108643, -118.22844696044922],
    [0.19727344810962677, -0.19688673317432404, 2.484415054321289, -90.62456512451172],
    [0.0, 0.0, 0.0, 1.0]
],
  "dcmmeta_reorient_transform": [
    [0.0, -1.0, 0.0, 95.0],
    [1.0, 0.0, 0.0, 0.0],
    [0.0, 0.0, 1.0, 0.0],
    [0.0, 0.0, 0.0, 1.0]
],
  "dcmmeta_shape": [96, 96, 56, 280],
  "dcmmeta_slice_dim": 2,
  "dcmmeta_version": 0.6,
  "global": {
    "const": {
      "AccessionNumber": "A000263",
      "AcquisitionMatrix": [96, 0, 0, 96],
      "AngioFlag": "N",
      "BitsAllocated": 16,
      "BitsStored": 12,
      "BodyPartExamined": "BRAIN",
      "Columns": 768,
      "EchoNumbers": 1,
      "EchoTime": 33.0,
      "EchoTrainLength": 96,
      "FlipAngle": 64.0,
      "HighBit": 11,
      "ImageOrientationPatient": [0.99648918930872, -0.0279750873712, 0.07890937889391, 0.02174341642298, 0.99665687304814, 0.07875469032488],
      "ImagePositionPatient": [-974.40227925893, -932.17025991825, -241.76662510238],
      "ImageType": [
        "ORIGINAL",
        "PRIMARY",
        "FMRI",
        "NONE",
        "ND",
        "NORM",
        "MOSAIC"
],
      "ImagedNucleus": "1H",
      "ImagingFrequency": 123.252397,
      "InPlanePhaseEncodingDirection": "COL",
      "MRAcquisitionType": "2D",
      "MagneticFieldStrength": 3.0,
      "Manufacturer": "SIEMENS",
      "ManufacturerModelName": "Prisma",
      "Modality": "MR",
      "NumberOfAverages": 1.0,
      "NumberOfPhaseEncodingSteps": 96,
      "PercentPhaseFieldOfView": 100.0,
      "PercentSampling": 100.0,
      "PerformedProcedureStepStartTime": "165538.599000",
      "PhotometricInterpretation": "MONOCHROME2",
      "PixelBandwidth": 2265.0,
      "PixelRepresentation": 0,
      "PixelSpacing": [2.5, 2.5],
      "PositionReferenceIndicator": "",
      "ProtocolName": "func_run-03_task-str1back",
      "RepetitionTime": 1250.0,
      "Rows": 768,
      "SAR": 0.05526268273521,
      "SamplesPerPixel": 1,
      "ScanOptions": "FS",
      "ScanningSequence": "EP",
      "SequenceName": "*epfid2d1_96",
      "SequenceVariant": "SK",
      "SeriesDescription": "func_run-03_task-str1back",
      "SeriesNumber": 22,
      "SeriesTime": "172223.370000",
      "SliceLocation": -89.924607309912,
      "SliceThickness": 2.5,
      "SmallestImagePixelValue": 0,
      "SoftwareVersions": "syngo MR E11",
      "SpacingBetweenSlices": 2.4999999737792,
      "SpecificCharacterSet": "ISO_IR 100",
      "StudyID": "2",
      "StudyTime": "165538.561000",
      "TransmitCoilName": "Body",
      "VariableFlipAngleFlag": "N",
      "WindowCenterWidthExplanation": "Algo1",
      "dBdt": 0.0},
    "slices": {}
  },
  "time": {
    "samples": {
      "AcquisitionNumber": [1, 2, 3, 4, 5, 6, 7, 8, 9, 10, 11, 12, 13, 14, 15, 16, 17, 18, 19, 20, 21, 22, 23, 24, 25, 26, 27, 28, 29, 30, 31, 32, 33, 34, 35, 36, 37, 38, 39, 40, 41, 42, 43, 44, 45, 46, 47, 48, 49, 50, 51, 52, 53, 54, 55, 56, 57, 58, 59, 60, 61, 62, 63, 64, 65, 66, 67, 68, 69, 70, 71, 72, 73, 74, 75, 76, 77, 78, 79, 80, 81, 82, 83, 84, 85, 86, 87, 88, 89, 90, 91, 92, 93, 94, 95, 96, 97, 98, 99, 100, 101, 102, 103, 104, 105, 106, 107, 108, 109, 110, 111, 112, 113, 114, 115, 116, 117, 118, 119, 120, 121, 122, 123, 124, 125, 126, 127, 128, 129, 130, 131, 132, 133, 134, 135, 136, 137, 138, 139, 140, 141, 142, 143, 144, 145, 146, 147, 148, 149, 150, 151, 152, 153, 154, 155, 156, 157, 158, 159, 160, 161, 162, 163, 164, 165, 166, 167, 168, 169, 170, 171, 172, 173, 174, 175, 176, 177, 178, 179, 180, 181, 182, 183, 184, 185, 186, 187, 188, 189, 190, 191, 192, 193, 194, 195, 196, 197, 198, 199, 200, 201, 202, 203, 204, 205, 206, 207, 208, 209, 210, 211, 212, 213, 214, 215, 216, 217, 218, 219, 220, 221, 222, 223, 224, 225, 226, 227, 228, 229, 230, 231, 232, 233, 234, 235, 236, 237, 238, 239, 240, 241, 242, 243, 244, 245, 246, 247, 248, 249, 250, 251, 252, 253, 254, 255, 256, 257, 258, 259, 260, 261, 262, 263, 264, 265, 266, 267, 268, 269, 270, 271, 272, 273, 274, 275, 276, 277, 278, 279, 280],
      "AcquisitionTime": ["172221.595000", "172222.845000", "172224.095000", "172225.345000", "172226.595000", "172227.845000", "172229.095000", "172230.345000", "172231.595000", "172232.845000", "172234.095000", "172235.345000", "172236.595000", "172237.845000", "172239.095000", "172240.345000", "172241.595000", "172242.845000", "172244.095000", "172245.345000", "172246.595000", "172247.845000", "172249.095000", "172250.345000", "172251.595000", "172252.845000", "172254.095000", "172255.345000", "172256.595000", "172257.845000", "172259.095000", "172300.345000", "172301.595000", "172302.845000", "172304.095000", "172305.345000", "172306.595000", "172307.845000", "172309.095000", "172310.345000", "172311.595000", "172312.845000", "172314.095000", "172315.345000", "172316.595000", "172317.845000", "172319.095000", "172320.345000", "172321.595000", "172322.845000", "172324.095000", "172325.345000", "172326.595000", "172327.845000", "172329.095000", "172330.345000", "172331.595000", "172332.845000", "172334.095000", "172335.345000", "172336.595000", "172337.845000", "172339.095000", "172340.345000", "172341.595000", "172342.845000", "172344.095000", "172345.345000", "172346.595000", "172347.845000", "172349.095000", "172350.345000", "172351.595000", "172352.845000", "172354.095000", "172355.345000", "172356.595000", "172357.845000", "172359.095000", "172400.345000", "172401.595000", "172402.845000", "172404.095000", "172405.345000", "172406.595000", "172407.845000", "172409.095000", "172410.345000", "172411.595000", "172412.845000", "172414.095000", "172415.345000", "172416.595000", "172417.845000", "172419.095000", "172420.345000", "172421.595000", "172422.845000", "172424.095000", "172425.345000", "172426.595000", "172427.845000", "172429.095000", "172430.345000", "172431.595000", "172432.845000", "172434.095000", "172435.345000", "172436.595000", "172437.845000", "172439.095000", "172440.345000", "172441.595000", "172442.845000", "172444.095000", "172445.345000", "172446.595000", "172447.845000", "172449.095000", "172450.345000", "172451.595000", "172452.845000", "172454.095000", "172455.345000", "172456.595000", "172457.845000", "172459.095000", "172500.345000", "172501.595000", "172502.845000", "172504.095000", "172505.345000", "172506.595000", "172507.845000", "172509.095000", "172510.345000", "172511.595000", "172512.845000", "172514.095000", "172515.345000", "172516.595000", "172517.845000", "172519.095000", "172520.345000", "172521.595000", "172522.845000", "172524.095000", "172525.345000", "172526.595000", "172527.845000", "172529.095000", "172530.345000", "172531.595000", "172532.845000", "172534.095000", "172535.345000", "172536.595000", "172537.845000", "172539.095000", "172540.345000", "172541.595000", "172542.845000", "172544.095000", "172545.345000", "172546.595000", "172547.845000", "172549.095000", "172550.345000", "172551.595000", "172552.845000", "172554.095000", "172555.345000", "172556.595000", "172557.845000", "172559.095000", "172600.345000", "172601.595000", "172602.845000", "172604.095000", "172605.345000", "172606.595000", "172607.845000", "172609.095000", "172610.345000", "172611.595000", "172612.845000", "172614.095000", "172615.345000", "172616.595000", "172617.845000", "172619.095000", "172620.345000", "172621.595000", "172622.845000", "172624.095000", "172625.345000", "172626.595000", "172627.845000", "172629.095000", "172630.345000", "172631.595000", "172632.845000", "172634.095000", "172635.345000", "172636.595000", "172637.845000", "172639.095000", "172640.345000", "172641.595000", "172642.845000", "172644.095000", "172645.345000", "172646.595000", "172647.845000", "172649.095000", "172650.345000", "172651.595000", "172652.845000", "172654.095000", "172655.345000", "172656.595000", "172657.845000", "172659.095000", "172700.345000", "172701.595000", "172702.845000", "172704.095000", "172705.345000", "172706.595000", "172707.845000", "172709.095000", "172710.345000", "172711.595000", "172712.845000", "172714.095000", "172715.345000", "172716.595000", "172717.845000", "172719.095000", "172720.345000", "172721.595000", "172722.845000", "172724.095000", "172725.345000", "172726.595000", "172727.845000", "172729.095000", "172730.345000", "172731.595000", "172732.845000", "172734.095000", "172735.345000", "172736.595000", "172737.845000", "172739.095000", "172740.345000", "172741.595000", "172742.845000", "172744.095000", "172745.345000", "172746.595000", "172747.845000", "172749.095000", "172750.345000", "172751.595000", "172752.845000", "172754.095000", "172755.345000", "172756.595000", "172757.845000", "172759.095000", "172800.345000", "172801.595000", "172802.845000", "172804.095000", "172805.345000", "172806.595000", "172807.845000", "172809.095000", "172810.345000"],
      "ContentTime": ["172223.374000", "172224.440000", "172225.675000", "172226.940000", "172228.190000", "172229.428000", "172230.676000", "172231.922000", "172233.178000", "172234.455000", "172235.699000", "172236.944000", "172238.183000", "172239.410000", "172240.712000", "172241.935000", "172243.178000", "172244.425000", "172245.645000", "172246.919000", "172248.176000", "172249.450000", "172250.682000", "172251.964000", "172253.185000", "172254.446000", "172255.684000", "172256.944000", "172258.196000", "172259.432000", "172300.690000", "172301.944000", "172303.178000", "172304.439000", "172305.663000", "172306.926000", "172308.173000", "172309.426000", "172310.679000", "172311.917000", "172313.181000", "172314.423000", "172315.690000", "172316.915000", "172318.160000", "172319.431000", "172320.705000", "172321.937000", "172323.166000", "172324.445000", "172325.675000", "172326.937000", "172328.156000", "172329.426000", "172330.710000", "172331.923000", "172333.167000", "172334.426000", "172335.635000", "172336.914000", "172338.188000", "172339.435000", "172340.721000", "172341.920000", "172343.185000", "172344.447000", "172345.649000", "172346.950000", "172348.178000", "172349.454000", "172350.659000", "172351.931000", "172353.179000", "172354.424000", "172355.680000", "172356.936000", "172358.146000", "172359.452000", "172400.690000", "172401.934000", "172403.179000", "172404.416000", "172405.663000", "172406.919000", "172408.177000", "172409.416000", "172410.717000", "172411.933000", "172413.168000", "172414.441000", "172415.669000", "172416.935000", "172418.191000", "172419.438000", "172420.699000", "172421.981000", "172423.212000", "172424.422000", "172425.697000", "172426.922000", "172428.186000", "172429.440000", "172430.753000", "172431.939000", "172433.153000", "172434.431000", "172435.713000", "172436.940000", "172438.183000", "172439.448000", "172440.640000", "172441.955000", "172443.188000", "172444.429000", "172445.682000", "172446.981000", "172448.215000", "172449.448000", "172450.707000", "172451.934000", "172453.188000", "172454.463000", "172455.706000", "172456.951000", "172458.214000", "172459.440000", "172500.712000", "172501.958000", "172503.160000", "172504.454000", "172505.707000", "172506.930000", "172508.168000", "172509.445000", "172510.687000", "172511.951000", "172513.196000", "172514.451000", "172515.691000", "172516.943000", "172518.158000", "172519.453000", "172520.666000", "172521.935000", "172523.201000", "172524.438000", "172525.672000", "172526.934000", "172528.177000", "172529.465000", "172530.696000", "172531.934000", "172533.201000", "172534.439000", "172535.720000", "172536.930000", "172538.184000", "172539.435000", "172540.689000", "172541.928000", "172543.202000", "172544.445000", "172545.686000", "172546.927000", "172548.186000", "172549.452000", "172550.714000", "172551.953000", "172553.178000", "172554.485000", "172555.678000", "172556.958000", "172558.204000", "172559.453000", "172600.688000", "172601.938000", "172603.193000", "172604.436000", "172605.696000", "172606.939000", "172608.208000", "172609.451000", "172610.686000", "172611.931000", "172613.211000", "172614.462000", "172615.700000", "172616.924000", "172618.190000", "172619.430000", "172620.703000", "172621.925000", "172623.172000", "172624.461000", "172625.736000", "172626.948000", "172628.200000", "172629.433000", "172630.668000", "172631.944000", "172633.199000", "172634.465000", "172635.694000", "172636.900000", "172638.186000", "172639.443000", "172640.692000", "172641.948000", "172643.191000", "172644.421000", "172645.701000", "172646.966000", "172648.174000", "172649.412000", "172650.681000", "172651.934000", "172653.202000", "172654.441000", "172655.646000", "172656.948000", "172658.177000", "172659.434000", "172700.676000", "172701.939000", "172703.196000", "172704.402000", "172705.676000", "172706.956000", "172708.170000", "172709.497000", "172710.679000", "172712.015000", "172713.270000", "172714.436000", "172715.640000", "172716.932000", "172718.173000", "172719.433000", "172720.720000", "172721.940000", "172723.196000", "172724.453000", "172725.699000", "172726.931000", "172728.182000", "172729.452000", "172730.729000", "172731.949000", "172733.190000", "172734.419000", "172735.676000", "172736.956000", "172738.169000", "172739.439000", "172740.682000", "172741.940000", "172743.186000", "172744.431000", "172745.680000", "172746.933000", "172748.172000", "172749.418000", "172750.692000", "172751.941000", "172753.202000", "172754.477000", "172755.688000", "172756.932000", "172758.157000", "172759.459000", "172800.775000", "172801.918000", "172803.187000", "172804.444000", "172805.679000", "172806.928000", "172808.199000", "172809.438000", "172810.693000", "172812.006000"],
      "InstanceCreationTime": ["172223.374000", "172224.440000", "172225.675000", "172226.940000", "172228.190000", "172229.428000", "172230.676000", "172231.922000", "172233.178000", "172234.455000", "172235.699000", "172236.944000", "172238.183000", "172239.410000", "172240.712000", "172241.935000", "172243.178000", "172244.425000", "172245.645000", "172246.919000", "172248.176000", "172249.450000", "172250.682000", "172251.964000", "172253.185000", "172254.446000", "172255.684000", "172256.944000", "172258.196000", "172259.432000", "172300.690000", "172301.944000", "172303.178000", "172304.439000", "172305.663000", "172306.926000", "172308.173000", "172309.426000", "172310.679000", "172311.917000", "172313.181000", "172314.423000", "172315.690000", "172316.915000", "172318.160000", "172319.431000", "172320.705000", "172321.937000", "172323.166000", "172324.445000", "172325.675000", "172326.937000", "172328.156000", "172329.426000", "172330.710000", "172331.923000", "172333.167000", "172334.426000", "172335.635000", "172336.914000", "172338.188000", "172339.435000", "172340.721000", "172341.920000", "172343.185000", "172344.447000", "172345.649000", "172346.950000", "172348.178000", "172349.454000", "172350.659000", "172351.931000", "172353.179000", "172354.424000", "172355.680000", "172356.936000", "172358.146000", "172359.452000", "172400.690000", "172401.934000", "172403.179000", "172404.416000", "172405.663000", "172406.919000", "172408.177000", "172409.416000", "172410.717000", "172411.933000", "172413.168000", "172414.441000", "172415.669000", "172416.935000", "172418.191000", "172419.438000", "172420.699000", "172421.981000", "172423.212000", "172424.422000", "172425.697000", "172426.922000", "172428.186000", "172429.440000", "172430.753000", "172431.939000", "172433.153000", "172434.431000", "172435.713000", "172436.940000", "172438.183000", "172439.448000", "172440.640000", "172441.955000", "172443.188000", "172444.429000", "172445.682000", "172446.981000", "172448.215000", "172449.448000", "172450.707000", "172451.934000", "172453.188000", "172454.463000", "172455.706000", "172456.951000", "172458.214000", "172459.440000", "172500.712000", "172501.958000", "172503.160000", "172504.454000", "172505.707000", "172506.930000", "172508.168000", "172509.445000", "172510.687000", "172511.951000", "172513.196000", "172514.451000", "172515.691000", "172516.943000", "172518.158000", "172519.453000", "172520.666000", "172521.935000", "172523.201000", "172524.438000", "172525.672000", "172526.934000", "172528.177000", "172529.465000", "172530.696000", "172531.934000", "172533.201000", "172534.439000", "172535.720000", "172536.930000", "172538.184000", "172539.435000", "172540.689000", "172541.928000", "172543.202000", "172544.445000", "172545.686000", "172546.927000", "172548.186000", "172549.452000", "172550.714000", "172551.953000", "172553.178000", "172554.485000", "172555.678000", "172556.958000", "172558.204000", "172559.453000", "172600.688000", "172601.938000", "172603.193000", "172604.436000", "172605.696000", "172606.939000", "172608.208000", "172609.451000", "172610.686000", "172611.931000", "172613.211000", "172614.462000", "172615.700000", "172616.924000", "172618.190000", "172619.430000", "172620.703000", "172621.925000", "172623.172000", "172624.461000", "172625.736000", "172626.948000", "172628.200000", "172629.433000", "172630.668000", "172631.944000", "172633.199000", "172634.465000", "172635.694000", "172636.900000", "172638.186000", "172639.443000", "172640.692000", "172641.948000", "172643.191000", "172644.421000", "172645.701000", "172646.966000", "172648.174000", "172649.412000", "172650.681000", "172651.934000", "172653.202000", "172654.441000", "172655.646000", "172656.948000", "172658.177000", "172659.434000", "172700.676000", "172701.939000", "172703.196000", "172704.402000", "172705.676000", "172706.956000", "172708.170000", "172709.497000", "172710.679000", "172712.015000", "172713.270000", "172714.436000", "172715.640000", "172716.932000", "172718.173000", "172719.433000", "172720.720000", "172721.940000", "172723.196000", "172724.453000", "172725.699000", "172726.931000", "172728.182000", "172729.452000", "172730.729000", "172731.949000", "172733.190000", "172734.419000", "172735.676000", "172736.956000", "172738.169000", "172739.439000", "172740.682000", "172741.940000", "172743.186000", "172744.431000", "172745.680000", "172746.933000", "172748.172000", "172749.418000", "172750.692000", "172751.941000", "172753.202000", "172754.477000", "172755.688000", "172756.932000", "172758.157000", "172759.459000", "172800.775000", "172801.918000", "172803.187000", "172804.444000", "172805.679000", "172806.928000", "172808.199000", "172809.438000", "172810.693000", "172812.006000"],
      "InstanceNumber": [1, 2, 3, 4, 5, 6, 7, 8, 9, 10, 11, 12, 13, 14, 15, 16, 17, 18, 19, 20, 21, 22, 23, 24, 25, 26, 27, 28, 29, 30, 31, 32, 33, 34, 35, 36, 37, 38, 39, 40, 41, 42, 43, 44, 45, 46, 47, 48, 49, 50, 51, 52, 53, 54, 55, 56, 57, 58, 59, 60, 61, 62, 63, 64, 65, 66, 67, 68, 69, 70, 71, 72, 73, 74, 75, 76, 77, 78, 79, 80, 81, 82, 83, 84, 85, 86, 87, 88, 89, 90, 91, 92, 93, 94, 95, 96, 97, 98, 99, 100, 101, 102, 103, 104, 105, 106, 107, 108, 109, 110, 111, 112, 113, 114, 115, 116, 117, 118, 119, 120, 121, 122, 123, 124, 125, 126, 127, 128, 129, 130, 131, 132, 133, 134, 135, 136, 137, 138, 139, 140, 141, 142, 143, 144, 145, 146, 147, 148, 149, 150, 151, 152, 153, 154, 155, 156, 157, 158, 159, 160, 161, 162, 163, 164, 165, 166, 167, 168, 169, 170, 171, 172, 173, 174, 175, 176, 177, 178, 179, 180, 181, 182, 183, 184, 185, 186, 187, 188, 189, 190, 191, 192, 193, 194, 195, 196, 197, 198, 199, 200, 201, 202, 203, 204, 205, 206, 207, 208, 209, 210, 211, 212, 213, 214, 215, 216, 217, 218, 219, 220, 221, 222, 223, 224, 225, 226, 227, 228, 229, 230, 231, 232, 233, 234, 235, 236, 237, 238, 239, 240, 241, 242, 243, 244, 245, 246, 247, 248, 249, 250, 251, 252, 253, 254, 255, 256, 257, 258, 259, 260, 261, 262, 263, 264, 265, 266, 267, 268, 269, 270, 271, 272, 273, 274, 275, 276, 277, 278, 279, 280],
      "LargestImagePixelValue": [1447, 1433, 1100, 995, 1117, 921, 908, 1014, 1032, 889, 1262, 1622, 1459, 1259, 1230, 978, 1449, 1697, 1587, 1342, 1204, 921, 1214, 1649, 1418, 1132, 1016, 848, 1098, 954, 1615, 1562, 1517, 1243, 1084, 1262, 1348, 1434, 975, 984, 1082, 1136, 1560, 1551, 1365, 1158, 1040, 1134, 1737, 1350, 1258, 1103, 1108, 1023, 975, 960, 889, 1041, 1272, 1564, 1721, 1326, 1315, 1141, 1118, 1122, 1084, 1100, 1158, 1350, 1002, 1370, 1160, 1083, 1224, 1193, 1757, 1398, 1247, 1086, 1255, 1222, 1283, 1085, 954, 1557, 1628, 1299, 1087, 1078, 1254, 1463, 1060, 964, 1153, 983, 1078, 1457, 1575, 1237, 1672, 1096, 1314, 1269, 1047, 1144, 1000, 916, 873, 1124, 1051, 1482, 1667, 1499, 1421, 1172, 1102, 1035, 1012, 964, 945, 973, 967, 1220, 1226, 1592, 1671, 1512, 1395, 1165, 1099, 1204, 1643, 1259, 1135, 1099, 933, 997, 953, 907, 1207, 1307, 1204, 1147, 1180, 1527, 1470, 1647, 1710, 1306, 1069, 1133, 1158, 1365, 1397, 1719, 1369, 1223, 1642, 1131, 1577, 1701, 1215, 1664, 1028, 940, 992, 1087, 1375, 1654, 1620, 1719, 1173, 1491, 1160, 955, 952, 849, 914, 935, 1352, 1265, 1618, 1482, 1289, 1221, 1341, 1234, 1155, 1172, 1124, 1106, 1066, 998, 1537, 1167, 1476, 1021, 1150, 1288, 1278, 1177, 1117, 1207, 1208, 1452, 1081, 1636, 1682, 1556, 1250, 1337, 1186, 1120, 1346, 1072, 1608, 1364, 1561, 1419, 1177, 1090, 1054, 981, 1016, 969, 930, 906, 1369, 1054, 1616, 1428, 1625, 1643, 1561, 1249, 1199, 1209, 1093, 951, 982, 1376, 1565, 1472, 1416, 1368, 1218, 1389, 1199, 1105, 1158, 1066, 1073, 1041, 943, 1000, 1088, 1372, 1172, 1116, 1242, 942, 929, 937, 1391, 1483, 1456, 1285, 1344, 1214, 1170, 979, 1048, 1059, 1307, 1093, 1275, 1175, 1334, 1389],
      "WindowCenter": [406.0, 405.0, 401.0, 400.0, 401.0, 399.0, 400.0, 402.0, 403.0, 402.0, 405.0, 406.0, 405.0, 404.0, 403.0, 402.0, 405.0, 406.0, 405.0, 403.0, 402.0, 400.0, 403.0, 405.0, 404.0, 403.0, 402.0, 401.0, 404.0, 403.0, 407.0, 406.0, 405.0, 403.0, 401.0, 402.0, 403.0, 404.0, 401.0, 401.0, 403.0, 403.0, 405.0, 404.0, 403.0, 402.0, 401.0, 403.0, 406.0, 403.0, 403.0, 402.0, 402.0, 402.0, 402.0, 402.0, 401.0, 404.0, 406.0, 407.0, 407.0, 404.0, 405.0, 403.0, 403.0, 404.0, 404.0, 404.0, 404.0, 405.0, 401.0, 404.0, 403.0, 402.0, 403.0, 402.0, 406.0, 403.0, 403.0, 402.0, 403.0, 403.0, 405.0, 403.0, 402.0, 406.0, 406.0, 403.0, 402.0, 402.0, 403.0, 404.0, 402.0, 401.0, 403.0, 404.0, 405.0, 405.0, 405.0, 403.0, 405.0, 403.0, 403.0, 403.0, 401.0, 403.0, 401.0, 401.0, 403.0, 404.0, 403.0, 407.0, 406.0, 405.0, 403.0, 402.0, 401.0, 402.0, 401.0, 401.0, 402.0, 402.0, 402.0, 405.0, 404.0, 405.0, 405.0, 404.0, 403.0, 403.0, 403.0, 404.0, 406.0, 403.0, 401.0, 401.0, 401.0, 401.0, 402.0, 401.0, 404.0, 406.0, 405.0, 404.0, 404.0, 405.0, 405.0, 405.0, 406.0, 405.0, 404.0, 405.0, 405.0, 406.0, 404.0, 406.0, 404.0, 403.0, 406.0, 402.0, 405.0, 406.0, 403.0, 405.0, 402.0, 402.0, 403.0, 404.0, 406.0, 406.0, 405.0, 405.0, 401.0, 403.0, 402.0, 400.0, 400.0, 401.0, 402.0, 402.0, 405.0, 405.0, 406.0, 404.0, 404.0, 403.0, 404.0, 403.0, 403.0, 403.0, 402.0, 402.0, 401.0, 403.0, 407.0, 403.0, 404.0, 401.0, 402.0, 403.0, 404.0, 404.0, 404.0, 406.0, 405.0, 406.0, 403.0, 406.0, 406.0, 406.0, 404.0, 404.0, 403.0, 402.0, 403.0, 401.0, 405.0, 402.0, 403.0, 404.0, 402.0, 402.0, 402.0, 401.0, 402.0, 403.0, 402.0, 401.0, 405.0, 403.0, 407.0, 405.0, 406.0, 405.0, 405.0, 403.0, 403.0, 402.0, 402.0, 402.0, 403.0, 405.0, 407.0, 405.0, 404.0, 403.0, 403.0, 404.0, 403.0, 402.0, 402.0, 402.0, 402.0, 402.0, 402.0, 403.0, 403.0, 405.0, 402.0, 402.0, 403.0, 400.0, 401.0, 403.0, 405.0, 405.0, 406.0, 404.0, 404.0, 403.0, 402.0, 401.0, 403.0, 403.0, 406.0, 404.0, 404.0, 403.0, 404.0, 404.0],
      "WindowWidth": [860.0, 857.0, 850.0, 849.0, 850.0, 847.0, 850.0, 853.0, 855.0, 853.0, 857.0, 859.0, 857.0, 854.0, 854.0, 852.0, 856.0, 858.0, 857.0, 854.0, 852.0, 849.0, 853.0, 856.0, 854.0, 853.0, 852.0, 851.0, 856.0, 855.0, 861.0, 859.0, 857.0, 854.0, 850.0, 852.0, 852.0, 855.0, 850.0, 850.0, 854.0, 854.0, 857.0, 855.0, 853.0, 852.0, 851.0, 854.0, 859.0, 853.0, 854.0, 853.0, 852.0, 853.0, 852.0, 852.0, 852.0, 857.0, 859.0, 861.0, 861.0, 855.0, 857.0, 853.0, 854.0, 855.0, 855.0, 855.0, 856.0, 857.0, 851.0, 856.0, 855.0, 851.0, 853.0, 852.0, 858.0, 853.0, 853.0, 852.0, 854.0, 854.0, 856.0, 854.0, 853.0, 858.0, 858.0, 854.0, 852.0, 852.0, 853.0, 855.0, 852.0, 850.0, 854.0, 856.0, 858.0, 857.0, 857.0, 853.0, 857.0, 853.0, 853.0, 854.0, 850.0, 853.0, 851.0, 851.0, 854.0, 857.0, 854.0, 860.0, 859.0, 857.0, 854.0, 853.0, 851.0, 851.0, 850.0, 850.0, 852.0, 852.0, 852.0, 856.0, 856.0, 857.0, 857.0, 855.0, 854.0, 853.0, 853.0, 855.0, 857.0, 854.0, 851.0, 850.0, 851.0, 850.0, 852.0, 852.0, 856.0, 858.0, 858.0, 857.0, 856.0, 857.0, 856.0, 857.0, 858.0, 857.0, 855.0, 858.0, 858.0, 858.0, 856.0, 859.0, 856.0, 853.0, 858.0, 853.0, 857.0, 858.0, 853.0, 857.0, 852.0, 852.0, 854.0, 856.0, 859.0, 857.0, 856.0, 855.0, 851.0, 852.0, 851.0, 849.0, 849.0, 851.0, 852.0, 853.0, 857.0, 857.0, 857.0, 856.0, 855.0, 853.0, 854.0, 854.0, 853.0, 853.0, 852.0, 853.0, 851.0, 854.0, 859.0, 853.0, 855.0, 851.0, 852.0, 854.0, 855.0, 856.0, 855.0, 859.0, 857.0, 858.0, 855.0, 859.0, 859.0, 858.0, 855.0, 856.0, 854.0, 853.0, 854.0, 849.0, 856.0, 852.0, 854.0, 854.0, 852.0, 852.0, 852.0, 850.0, 851.0, 854.0, 853.0, 851.0, 857.0, 854.0, 860.0, 856.0, 857.0, 857.0, 856.0, 853.0, 853.0, 852.0, 852.0, 853.0, 855.0, 858.0, 859.0, 856.0, 855.0, 854.0, 853.0, 854.0, 853.0, 853.0, 852.0, 852.0, 851.0, 851.0, 853.0, 854.0, 854.0, 857.0, 853.0, 851.0, 854.0, 850.0, 852.0, 855.0, 858.0, 857.0, 858.0, 856.0, 856.0, 853.0, 852.0, 850.0, 853.0, 855.0, 858.0, 855.0, 856.0, 854.0, 855.0, 855.0]
    },
    "slices": {}
  }
}