{
  "AcquisitionMatrixPE": 96,
  "AcquisitionNumber": 1,
  "AcquisitionTime": "17:56:4.057500",
  "BandwidthPerPixelPhaseEncode": 18.939,
  "BaseResolution": 96,
  "BodyPartExamined": "BRAIN",
  "ConsistencyInfo": "N4_VE11C_LATEST_20160120",
  "ConversionSoftware": "dcm2niix",
  "ConversionSoftwareVersion": "v1.0.20170923 (OpenJPEG build) GCC6.3.0",
  "DerivedVendorReportedEchoSpacing": 0.000550011,
  "DeviceSerialNumber": "66112",
  "DwellTime": 2.3e-06,
  "EchoTime": 0.033,
  "EchoTrainLength": 96,
  "EffectiveEchoSpacing": 0.000550011,
  "FlipAngle": 64,
  "ImageType": [
    "ORIGINAL",
    "PRIMARY",
    "FMRI",
    "NONE",
    "ND",
    "NORM",
    "MOSAIC"
],
  "InstitutionAddress": "Maynard_3_Hanover_NH_US_03755",
  "InstitutionName": "Dartmouth_College_-_PBS",
  "MagneticFieldStrength": 3,
  "Manufacturer": "Siemens",
  "ManufacturersModelName": "Prisma",
  "Modality": "MR",
  "MultibandAccelerationFactor": 4,
  "PartialFourier": 1,
  "PercentPhaseFOV": 100,
  "PhaseEncodingDirection": "j-",
  "PhaseEncodingSteps": 96,
  "PhaseResolution": 1,
  "ProcedureStepDescription": "Gobbini_Matteo_1017_famface-angles",
  "ProtocolName": "func_run-08_task-str1back",
  "PulseSequenceDetails": "%SiemensSeq%_ep2d_bold",
  "ReceiveCoilActiveElements": "HEA;HEP",
  "ReceiveCoilName": "Head_32",
  "ReconMatrixPE": 96,
  "RepetitionTime": 1.25,
  "ScanOptions": "FS",
  "ScanningSequence": "EP",
  "SequenceName": "_epfid2d1_96",
  "SequenceVariant": "SK",
  "SeriesDescription": "func_run-08_task-str1back",
  "SliceTiming": [0.88, 0, 0.615, 0.0875, 0.7025, 0.175, 0.79, 0.3525, 0.9675, 0.44, 1.055, 0.5275, 1.1425, 0.265, 0.88, 0, 0.615, 0.0875, 0.7025, 0.175, 0.79, 0.3525, 0.9675, 0.44, 1.055, 0.5275, 1.1425, 0.265, 0.88, 0, 0.615, 0.0875, 0.7025, 0.175, 0.79, 0.3525, 0.9675, 0.44, 1.055, 0.5275, 1.1425, 0.265, 0.88, 0, 0.615, 0.0875, 0.7025, 0.175, 0.79, 0.3525, 0.9675, 0.44, 1.055, 0.5275, 1.1425, 0.265],
  "SoftwareVersions": "syngo_MR_E11",
  "StationName": "AWP66112",
  "TaskName": "str1back",
  "TotalReadoutTime": 0.0522511,
  "dcmmeta_affine": [
    [-2.491222858428955, 0.05435854196548462, 0.20212185382843018, 113.9228286743164],
    [0.06993772089481354, 2.4916422367095947, 0.19190609455108643, -118.22844696044922],
    [0.19727344810962677, -0.19688673317432404, 2.484415054321289, -90.62456512451172],
    [0.0, 0.0, 0.0, 1.0]
],
  "dcmmeta_reorient_transform": [
    [0.0, -1.0, 0.0, 95.0],
    [1.0, 0.0, 0.0, 0.0],
    [0.0, 0.0, 1.0, 0.0],
    [0.0, 0.0, 0.0, 1.0]
],
  "dcmmeta_shape": [96, 96, 56, 280],
  "dcmmeta_slice_dim": 2,
  "dcmmeta_version": 0.6,
  "global": {
    "const": {
      "AccessionNumber": "A000263",
      "AcquisitionMatrix": [96, 0, 0, 96],
      "AngioFlag": "N",
      "BitsAllocated": 16,
      "BitsStored": 12,
      "BodyPartExamined": "BRAIN",
      "Columns": 768,
      "EchoNumbers": 1,
      "EchoTime": 33.0,
      "EchoTrainLength": 96,
      "FlipAngle": 64.0,
      "HighBit": 11,
      "ImageOrientationPatient": [0.99648918930872, -0.0279750873712, 0.07890937889391, 0.02174341642298, 0.99665687304814, 0.07875469032488],
      "ImagePositionPatient": [-974.40227925893, -932.17025991825, -241.76662510238],
      "ImageType": [
        "ORIGINAL",
        "PRIMARY",
        "FMRI",
        "NONE",
        "ND",
        "NORM",
        "MOSAIC"
],
      "ImagedNucleus": "1H",
      "ImagingFrequency": 123.252401,
      "InPlanePhaseEncodingDirection": "COL",
      "MRAcquisitionType": "2D",
      "MagneticFieldStrength": 3.0,
      "Manufacturer": "SIEMENS",
      "ManufacturerModelName": "Prisma",
      "Modality": "MR",
      "NumberOfAverages": 1.0,
      "NumberOfPhaseEncodingSteps": 96,
      "PercentPhaseFieldOfView": 100.0,
      "PercentSampling": 100.0,
      "PerformedProcedureStepStartTime": "165538.599000",
      "PhotometricInterpretation": "MONOCHROME2",
      "PixelBandwidth": 2265.0,
      "PixelRepresentation": 0,
      "PixelSpacing": [2.5, 2.5],
      "PositionReferenceIndicator": "",
      "ProtocolName": "func_run-08_task-str1back",
      "RepetitionTime": 1250.0,
      "Rows": 768,
      "SAR": 0.05526268273521,
      "SamplesPerPixel": 1,
      "ScanOptions": "FS",
      "ScanningSequence": "EP",
      "SequenceName": "*epfid2d1_96",
      "SequenceVariant": "SK",
      "SeriesDescription": "func_run-08_task-str1back",
      "SeriesNumber": 57,
      "SeriesTime": "175605.338000",
      "SliceLocation": -89.924607309912,
      "SliceThickness": 2.5,
      "SmallestImagePixelValue": 0,
      "SoftwareVersions": "syngo MR E11",
      "SpacingBetweenSlices": 2.4999999737792,
      "SpecificCharacterSet": "ISO_IR 100",
      "StudyID": "2",
      "StudyTime": "165538.561000",
      "TransmitCoilName": "Body",
      "VariableFlipAngleFlag": "N",
      "WindowCenterWidthExplanation": "Algo1",
      "dBdt": 0.0},
    "slices": {}
  },
  "time": {
    "samples": {
      "AcquisitionNumber": [1, 2, 3, 4, 5, 6, 7, 8, 9, 10, 11, 12, 13, 14, 15, 16, 17, 18, 19, 20, 21, 22, 23, 24, 25, 26, 27, 28, 29, 30, 31, 32, 33, 34, 35, 36, 37, 38, 39, 40, 41, 42, 43, 44, 45, 46, 47, 48, 49, 50, 51, 52, 53, 54, 55, 56, 57, 58, 59, 60, 61, 62, 63, 64, 65, 66, 67, 68, 69, 70, 71, 72, 73, 74, 75, 76, 77, 78, 79, 80, 81, 82, 83, 84, 85, 86, 87, 88, 89, 90, 91, 92, 93, 94, 95, 96, 97, 98, 99, 100, 101, 102, 103, 104, 105, 106, 107, 108, 109, 110, 111, 112, 113, 114, 115, 116, 117, 118, 119, 120, 121, 122, 123, 124, 125, 126, 127, 128, 129, 130, 131, 132, 133, 134, 135, 136, 137, 138, 139, 140, 141, 142, 143, 144, 145, 146, 147, 148, 149, 150, 151, 152, 153, 154, 155, 156, 157, 158, 159, 160, 161, 162, 163, 164, 165, 166, 167, 168, 169, 170, 171, 172, 173, 174, 175, 176, 177, 178, 179, 180, 181, 182, 183, 184, 185, 186, 187, 188, 189, 190, 191, 192, 193, 194, 195, 196, 197, 198, 199, 200, 201, 202, 203, 204, 205, 206, 207, 208, 209, 210, 211, 212, 213, 214, 215, 216, 217, 218, 219, 220, 221, 222, 223, 224, 225, 226, 227, 228, 229, 230, 231, 232, 233, 234, 235, 236, 237, 238, 239, 240, 241, 242, 243, 244, 245, 246, 247, 248, 249, 250, 251, 252, 253, 254, 255, 256, 257, 258, 259, 260, 261, 262, 263, 264, 265, 266, 267, 268, 269, 270, 271, 272, 273, 274, 275, 276, 277, 278, 279, 280],
      "AcquisitionTime": ["175604.057500", "175605.307500", "175606.557500", "175607.807500", "175609.057500", "175610.307500", "175611.557500", "175612.807500", "175614.057500", "175615.307500", "175616.557500", "175617.807500", "175619.057500", "175620.307500", "175621.557500", "175622.807500", "175624.057500", "175625.307500", "175626.557500", "175627.807500", "175629.057500", "175630.307500", "175631.557500", "175632.807500", "175634.057500", "175635.307500", "175636.557500", "175637.807500", "175639.057500", "175640.307500", "175641.557500", "175642.807500", "175644.057500", "175645.307500", "175646.557500", "175647.807500", "175649.057500", "175650.307500", "175651.557500", "175652.807500", "175654.057500", "175655.307500", "175656.557500", "175657.807500", "175659.057500", "175700.307500", "175701.557500", "175702.807500", "175704.057500", "175705.307500", "175706.557500", "175707.807500", "175709.057500", "175710.307500", "175711.557500", "175712.807500", "175714.057500", "175715.307500", "175716.557500", "175717.807500", "175719.057500", "175720.307500", "175721.557500", "175722.807500", "175724.057500", "175725.307500", "175726.557500", "175727.807500", "175729.057500", "175730.307500", "175731.557500", "175732.807500", "175734.057500", "175735.307500", "175736.557500", "175737.807500", "175739.057500", "175740.307500", "175741.557500", "175742.807500", "175744.057500", "175745.307500", "175746.557500", "175747.807500", "175749.057500", "175750.307500", "175751.557500", "175752.807500", "175754.057500", "175755.307500", "175756.557500", "175757.807500", "175759.057500", "175800.307500", "175801.557500", "175802.807500", "175804.057500", "175805.307500", "175806.557500", "175807.807500", "175809.057500", "175810.307500", "175811.557500", "175812.807500", "175814.057500", "175815.307500", "175816.557500", "175817.807500", "175819.057500", "175820.307500", "175821.557500", "175822.807500", "175824.057500", "175825.307500", "175826.557500", "175827.807500", "175829.057500", "175830.307500", "175831.557500", "175832.807500", "175834.057500", "175835.307500", "175836.557500", "175837.807500", "175839.057500", "175840.307500", "175841.557500", "175842.807500", "175844.057500", "175845.307500", "175846.557500", "175847.807500", "175849.057500", "175850.307500", "175851.557500", "175852.807500", "175854.057500", "175855.307500", "175856.557500", "175857.807500", "175859.057500", "175900.307500", "175901.557500", "175902.807500", "175904.057500", "175905.307500", "175906.557500", "175907.807500", "175909.057500", "175910.307500", "175911.557500", "175912.807500", "175914.057500", "175915.307500", "175916.557500", "175917.807500", "175919.057500", "175920.307500", "175921.557500", "175922.807500", "175924.057500", "175925.307500", "175926.557500", "175927.807500", "175929.057500", "175930.307500", "175931.557500", "175932.807500", "175934.057500", "175935.307500", "175936.557500", "175937.807500", "175939.057500", "175940.307500", "175941.557500", "175942.807500", "175944.057500", "175945.307500", "175946.557500", "175947.807500", "175949.057500", "175950.307500", "175951.557500", "175952.807500", "175954.057500", "175955.307500", "175956.557500", "175957.807500", "175959.057500", "180000.307500", "180001.557500", "180002.807500", "180004.057500", "180005.307500", "180006.557500", "180007.807500", "180009.057500", "180010.307500", "180011.557500", "180012.807500", "180014.057500", "180015.307500", "180016.557500", "180017.807500", "180019.057500", "180020.307500", "180021.557500", "180022.807500", "180024.057500", "180025.307500", "180026.557500", "180027.807500", "180029.057500", "180030.307500", "180031.557500", "180032.807500", "180034.057500", "180035.307500", "180036.557500", "180037.807500", "180039.057500", "180040.307500", "180041.557500", "180042.807500", "180044.057500", "180045.307500", "180046.557500", "180047.807500", "180049.057500", "180050.307500", "180051.557500", "180052.807500", "180054.057500", "180055.307500", "180056.557500", "180057.807500", "180059.057500", "180100.307500", "180101.557500", "180102.807500", "180104.057500", "180105.307500", "180106.557500", "180107.807500", "180109.057500", "180110.307500", "180111.557500", "180112.807500", "180114.057500", "180115.307500", "180116.557500", "180117.807500", "180119.057500", "180120.307500", "180121.557500", "180122.807500", "180124.057500", "180125.307500", "180126.557500", "180127.807500", "180129.057500", "180130.307500", "180131.557500", "180132.807500", "180134.057500", "180135.307500", "180136.557500", "180137.807500", "180139.057500", "180140.307500", "180141.557500", "180142.807500", "180144.057500", "180145.307500", "180146.557500", "180147.807500", "180149.057500", "180150.307500", "180151.557500", "180152.807500"],
      "ContentTime": ["175605.342000", "175606.434000", "175607.699000", "175608.939000", "175610.182000", "175611.403000", "175612.702000", "175613.912000", "175615.177000", "175616.425000", "175617.655000", "175618.921000", "175620.215000", "175621.464000", "175622.679000", "175623.929000", "175625.181000", "175626.406000", "175627.706000", "175628.932000", "175630.189000", "175631.431000", "175632.673000", "175633.935000", "175635.194000", "175636.422000", "175637.655000", "175638.924000", "175640.181000", "175641.433000", "175642.683000", "175643.924000", "175645.164000", "175646.422000", "175647.724000", "175648.939000", "175650.183000", "175651.426000", "175652.689000", "175653.919000", "175655.180000", "175656.436000", "175657.677000", "175658.941000", "175700.215000", "175701.429000", "175702.680000", "175703.932000", "175705.181000", "175706.407000", "175707.661000", "175708.936000", "175710.195000", "175711.428000", "175712.684000", "175713.933000", "175715.190000", "175716.418000", "175717.677000", "175718.930000", "175720.173000", "175721.421000", "175722.689000", "175723.934000", "175725.184000", "175726.426000", "175727.680000", "175728.969000", "175730.193000", "175731.429000", "175732.678000", "175733.929000", "175735.172000", "175736.461000", "175737.696000", "175738.927000", "175740.161000", "175741.438000", "175742.718000", "175743.914000", "175745.166000", "175746.441000", "175747.655000", "175748.917000", "175750.194000", "175751.455000", "175752.718000", "175753.933000", "175755.177000", "175756.425000", "175757.673000", "175758.937000", "175800.174000", "175801.423000", "175802.694000", "175803.919000", "175805.180000", "175806.426000", "175807.684000", "175808.947000", "175810.192000", "175811.459000", "175812.694000", "175813.942000", "175815.213000", "175816.446000", "175817.723000", "175818.920000", "175820.165000", "175821.435000", "175822.708000", "175823.954000", "175825.188000", "175826.463000", "175827.708000", "175828.929000", "175830.192000", "175831.452000", "175832.690000", "175833.920000", "175835.196000", "175836.483000", "175837.707000", "175838.982000", "175840.183000", "175841.454000", "175842.687000", "175843.974000", "175845.207000", "175846.438000", "175847.682000", "175848.943000", "175850.183000", "175851.446000", "175852.726000", "175853.934000", "175855.187000", "175856.424000", "175857.726000", "175858.959000", "175900.162000", "175901.425000", "175902.691000", "175903.949000", "175905.211000", "175906.529000", "175907.695000", "175908.941000", "175910.191000", "175911.434000", "175912.683000", "175913.932000", "175915.211000", "175916.450000", "175917.689000", "175918.944000", "175920.206000", "175921.444000", "175922.689000", "175924.005000", "175925.177000", "175926.455000", "175927.655000", "175928.929000", "175930.219000", "175931.437000", "175932.701000", "175933.945000", "175935.203000", "175936.421000", "175937.674000", "175938.949000", "175940.196000", "175941.484000", "175942.681000", "175943.963000", "175945.227000", "175946.420000", "175947.698000", "175948.939000", "175950.178000", "175951.442000", "175952.688000", "175953.942000", "175955.215000", "175956.433000", "175957.702000", "175958.950000", "180000.209000", "180001.414000", "180002.696000", "180003.933000", "180005.175000", "180006.451000", "180007.684000", "180008.924000", "180010.245000", "180011.467000", "180012.695000", "180013.901000", "180015.200000", "180016.449000", "180017.697000", "180018.939000", "180020.215000", "180021.449000", "180022.687000", "180023.952000", "180025.188000", "180026.444000", "180027.700000", "180028.915000", "180030.173000", "180031.433000", "180032.689000", "180033.944000", "180035.187000", "180036.463000", "180037.691000", "180038.969000", "180040.147000", "180041.432000", "180042.709000", "180043.945000", "180045.199000", "180046.454000", "180047.714000", "180048.937000", "180050.205000", "180051.439000", "180052.671000", "180053.932000", "180055.224000", "180056.439000", "180057.706000", "180058.937000", "180100.197000", "180101.442000", "180102.687000", "180103.933000", "180105.188000", "180106.429000", "180107.701000", "180108.931000", "180110.170000", "180111.440000", "180112.692000", "180113.960000", "180115.181000", "180116.432000", "180117.651000", "180118.936000", "180120.183000", "180121.432000", "180122.689000", "180123.931000", "180125.189000", "180126.441000", "180127.702000", "180128.920000", "180130.192000", "180131.453000", "180132.679000", "180133.940000", "180135.188000", "180136.417000", "180137.694000", "180138.927000", "180140.192000", "180141.445000", "180142.659000", "180143.941000", "180145.205000", "180146.452000", "180147.669000", "180148.932000", "180150.215000", "180151.407000", "180152.692000", "180154.035000"],
      "InstanceCreationTime": ["175605.342000", "175606.434000", "175607.699000", "175608.939000", "175610.182000", "175611.403000", "175612.702000", "175613.912000", "175615.177000", "175616.425000", "175617.655000", "175618.921000", "175620.215000", "175621.464000", "175622.679000", "175623.929000", "175625.181000", "175626.406000", "175627.706000", "175628.932000", "175630.189000", "175631.431000", "175632.673000", "175633.935000", "175635.194000", "175636.422000", "175637.655000", "175638.924000", "175640.181000", "175641.433000", "175642.683000", "175643.924000", "175645.164000", "175646.422000", "175647.724000", "175648.939000", "175650.183000", "175651.426000", "175652.689000", "175653.919000", "175655.180000", "175656.436000", "175657.677000", "175658.941000", "175700.215000", "175701.429000", "175702.680000", "175703.932000", "175705.181000", "175706.407000", "175707.661000", "175708.936000", "175710.195000", "175711.428000", "175712.684000", "175713.933000", "175715.190000", "175716.418000", "175717.677000", "175718.930000", "175720.173000", "175721.421000", "175722.689000", "175723.934000", "175725.184000", "175726.426000", "175727.680000", "175728.969000", "175730.193000", "175731.429000", "175732.678000", "175733.929000", "175735.172000", "175736.461000", "175737.696000", "175738.927000", "175740.161000", "175741.438000", "175742.718000", "175743.914000", "175745.166000", "175746.441000", "175747.655000", "175748.917000", "175750.194000", "175751.455000", "175752.718000", "175753.933000", "175755.177000", "175756.425000", "175757.673000", "175758.937000", "175800.174000", "175801.423000", "175802.694000", "175803.919000", "175805.180000", "175806.426000", "175807.684000", "175808.947000", "175810.192000", "175811.459000", "175812.694000", "175813.942000", "175815.213000", "175816.446000", "175817.723000", "175818.920000", "175820.165000", "175821.435000", "175822.708000", "175823.954000", "175825.188000", "175826.463000", "175827.708000", "175828.929000", "175830.192000", "175831.452000", "175832.690000", "175833.920000", "175835.196000", "175836.483000", "175837.707000", "175838.982000", "175840.183000", "175841.454000", "175842.687000", "175843.974000", "175845.207000", "175846.438000", "175847.682000", "175848.943000", "175850.183000", "175851.446000", "175852.726000", "175853.934000", "175855.187000", "175856.424000", "175857.726000", "175858.959000", "175900.162000", "175901.425000", "175902.691000", "175903.949000", "175905.211000", "175906.529000", "175907.695000", "175908.941000", "175910.191000", "175911.434000", "175912.683000", "175913.932000", "175915.211000", "175916.450000", "175917.689000", "175918.944000", "175920.206000", "175921.444000", "175922.689000", "175924.005000", "175925.177000", "175926.455000", "175927.655000", "175928.929000", "175930.219000", "175931.437000", "175932.701000", "175933.945000", "175935.203000", "175936.421000", "175937.674000", "175938.949000", "175940.196000", "175941.484000", "175942.681000", "175943.963000", "175945.227000", "175946.420000", "175947.698000", "175948.939000", "175950.178000", "175951.442000", "175952.688000", "175953.942000", "175955.215000", "175956.433000", "175957.702000", "175958.950000", "180000.209000", "180001.414000", "180002.696000", "180003.933000", "180005.175000", "180006.451000", "180007.684000", "180008.924000", "180010.245000", "180011.467000", "180012.695000", "180013.901000", "180015.200000", "180016.449000", "180017.697000", "180018.939000", "180020.215000", "180021.449000", "180022.687000", "180023.952000", "180025.188000", "180026.444000", "180027.700000", "180028.915000", "180030.173000", "180031.433000", "180032.689000", "180033.944000", "180035.187000", "180036.463000", "180037.691000", "180038.969000", "180040.147000", "180041.432000", "180042.709000", "180043.945000", "180045.199000", "180046.454000", "180047.714000", "180048.937000", "180050.205000", "180051.439000", "180052.671000", "180053.932000", "180055.224000", "180056.439000", "180057.706000", "180058.937000", "180100.197000", "180101.442000", "180102.687000", "180103.933000", "180105.188000", "180106.429000", "180107.701000", "180108.931000", "180110.170000", "180111.440000", "180112.692000", "180113.960000", "180115.181000", "180116.432000", "180117.651000", "180118.936000", "180120.183000", "180121.432000", "180122.689000", "180123.931000", "180125.189000", "180126.441000", "180127.702000", "180128.920000", "180130.192000", "180131.453000", "180132.679000", "180133.940000", "180135.188000", "180136.417000", "180137.694000", "180138.927000", "180140.192000", "180141.445000", "180142.659000", "180143.941000", "180145.205000", "180146.452000", "180147.669000", "180148.932000", "180150.215000", "180151.407000", "180152.692000", "180154.035000"],
      "InstanceNumber": [1, 2, 3, 4, 5, 6, 7, 8, 9, 10, 11, 12, 13, 14, 15, 16, 17, 18, 19, 20, 21, 22, 23, 24, 25, 26, 27, 28, 29, 30, 31, 32, 33, 34, 35, 36, 37, 38, 39, 40, 41, 42, 43, 44, 45, 46, 47, 48, 49, 50, 51, 52, 53, 54, 55, 56, 57, 58, 59, 60, 61, 62, 63, 64, 65, 66, 67, 68, 69, 70, 71, 72, 73, 74, 75, 76, 77, 78, 79, 80, 81, 82, 83, 84, 85, 86, 87, 88, 89, 90, 91, 92, 93, 94, 95, 96, 97, 98, 99, 100, 101, 102, 103, 104, 105, 106, 107, 108, 109, 110, 111, 112, 113, 114, 115, 116, 117, 118, 119, 120, 121, 122, 123, 124, 125, 126, 127, 128, 129, 130, 131, 132, 133, 134, 135, 136, 137, 138, 139, 140, 141, 142, 143, 144, 145, 146, 147, 148, 149, 150, 151, 152, 153, 154, 155, 156, 157, 158, 159, 160, 161, 162, 163, 164, 165, 166, 167, 168, 169, 170, 171, 172, 173, 174, 175, 176, 177, 178, 179, 180, 181, 182, 183, 184, 185, 186, 187, 188, 189, 190, 191, 192, 193, 194, 195, 196, 197, 198, 199, 200, 201, 202, 203, 204, 205, 206, 207, 208, 209, 210, 211, 212, 213, 214, 215, 216, 217, 218, 219, 220, 221, 222, 223, 224, 225, 226, 227, 228, 229, 230, 231, 232, 233, 234, 235, 236, 237, 238, 239, 240, 241, 242, 243, 244, 245, 246, 247, 248, 249, 250, 251, 252, 253, 254, 255, 256, 257, 258, 259, 260, 261, 262, 263, 264, 265, 266, 267, 268, 269, 270, 271, 272, 273, 274, 275, 276, 277, 278, 279, 280],
      "LargestImagePixelValue": [1198, 1400, 1054, 1059, 1360, 1054, 1371, 1578, 1237, 1437, 1486, 1086, 1226, 1354, 1068, 1157, 1279, 1167, 1388, 1615, 1260, 1305, 1140, 1016, 1017, 1490, 968, 1289, 1661, 1382, 1251, 1223, 987, 1020, 1309, 1571, 1355, 1155, 1082, 983, 1649, 1497, 1427, 1219, 1457, 923, 1003, 1143, 1087, 1309, 1706, 1606, 1295, 1239, 1140, 1085, 1001, 969, 1138, 1133, 1704, 1435, 1229, 1223, 1735, 1371, 1216, 960, 1398, 1239, 1040, 1159, 1241, 1623, 1255, 1186, 1230, 1242, 1181, 1049, 992, 1223, 1068, 1146, 1357, 1360, 1283, 1196, 1210, 1141, 984, 1415, 1199, 1328, 1108, 1269, 1125, 971, 982, 960, 1021, 1024, 1528, 1307, 1413, 1661, 1064, 1120, 1044, 1094, 1019, 1003, 944, 1143, 1266, 1569, 1259, 1181, 1340, 1456, 1657, 1718, 1644, 1298, 1262, 1127, 994, 982, 1114, 1301, 1188, 1652, 1602, 1278, 1239, 1080, 1120, 1267, 1089, 1316, 1502, 1033, 1209, 1157, 1206, 1574, 1048, 1394, 1553, 1302, 1066, 963, 1322, 884, 1157, 1540, 1448, 1508, 1412, 1267, 1544, 1272, 1088, 1130, 1054, 1007, 1008, 979, 1000, 1012, 988, 1127, 1198, 1233, 1208, 1035, 1661, 1447, 1294, 1198, 1154, 1200, 1187, 1201, 1186, 1160, 1013, 1169, 1442, 1293, 1654, 1326, 1327, 901, 937, 1252, 1696, 1320, 1345, 1628, 1572, 1363, 1150, 1515, 1015, 1190, 1038, 1020, 1507, 1395, 1308, 1221, 1152, 1164, 1032, 1022, 1368, 1328, 1181, 1409, 1187, 1194, 1198, 1087, 1056, 1071, 1236, 1182, 1150, 1067, 1635, 1308, 1254, 1023, 955, 1126, 1133, 1049, 1690, 1619, 1466, 1091, 1100, 1577, 1503, 1450, 1203, 983, 911, 1179, 1191, 1644, 1562, 1538, 1405, 1146, 1112, 1302, 1107, 1334, 1177, 1490, 1060, 1074, 1462, 1327, 1232, 1139, 1186, 1231, 1083, 1135, 1527, 1129, 1118, 914, 978, 1088, 1358, 1517],
      "WindowCenter": [405.0, 406.0, 403.0, 403.0, 405.0, 403.0, 405.0, 406.0, 403.0, 404.0, 404.0, 402.0, 404.0, 405.0, 403.0, 403.0, 404.0, 403.0, 404.0, 406.0, 404.0, 404.0, 403.0, 402.0, 403.0, 405.0, 402.0, 405.0, 407.0, 404.0, 404.0, 403.0, 402.0, 402.0, 404.0, 406.0, 404.0, 403.0, 403.0, 403.0, 407.0, 405.0, 404.0, 403.0, 404.0, 400.0, 401.0, 403.0, 402.0, 404.0, 406.0, 405.0, 403.0, 403.0, 402.0, 403.0, 402.0, 400.0, 402.0, 403.0, 406.0, 403.0, 402.0, 402.0, 405.0, 403.0, 402.0, 401.0, 404.0, 403.0, 402.0, 404.0, 404.0, 406.0, 403.0, 403.0, 403.0, 403.0, 403.0, 401.0, 401.0, 403.0, 403.0, 403.0, 405.0, 404.0, 403.0, 402.0, 403.0, 403.0, 402.0, 406.0, 404.0, 404.0, 402.0, 404.0, 402.0, 401.0, 401.0, 402.0, 402.0, 404.0, 406.0, 404.0, 405.0, 405.0, 401.0, 402.0, 402.0, 404.0, 403.0, 402.0, 402.0, 404.0, 405.0, 406.0, 405.0, 405.0, 405.0, 406.0, 406.0, 406.0, 405.0, 403.0, 403.0, 403.0, 402.0, 402.0, 403.0, 404.0, 403.0, 406.0, 405.0, 402.0, 403.0, 402.0, 403.0, 404.0, 402.0, 403.0, 405.0, 401.0, 403.0, 402.0, 402.0, 406.0, 402.0, 406.0, 406.0, 404.0, 403.0, 402.0, 404.0, 402.0, 404.0, 408.0, 405.0, 405.0, 404.0, 402.0, 404.0, 402.0, 401.0, 402.0, 402.0, 402.0, 401.0, 401.0, 402.0, 403.0, 402.0, 403.0, 403.0, 403.0, 403.0, 403.0, 407.0, 404.0, 403.0, 402.0, 402.0, 403.0, 403.0, 403.0, 404.0, 404.0, 403.0, 403.0, 406.0, 404.0, 406.0, 404.0, 404.0, 401.0, 402.0, 404.0, 407.0, 404.0, 403.0, 405.0, 405.0, 403.0, 402.0, 405.0, 401.0, 403.0, 401.0, 402.0, 405.0, 404.0, 405.0, 404.0, 404.0, 403.0, 403.0, 402.0, 404.0, 404.0, 402.0, 404.0, 402.0, 403.0, 403.0, 402.0, 401.0, 402.0, 402.0, 403.0, 403.0, 402.0, 406.0, 405.0, 404.0, 402.0, 402.0, 404.0, 404.0, 403.0, 407.0, 406.0, 404.0, 403.0, 403.0, 405.0, 404.0, 404.0, 402.0, 402.0, 402.0, 404.0, 404.0, 406.0, 405.0, 404.0, 403.0, 402.0, 402.0, 403.0, 402.0, 404.0, 403.0, 405.0, 401.0, 402.0, 405.0, 405.0, 404.0, 404.0, 405.0, 404.0, 402.0, 403.0, 405.0, 402.0, 403.0, 401.0, 403.0, 405.0, 406.0, 406.0],
      "WindowWidth": [859.0, 858.0, 855.0, 854.0, 857.0, 855.0, 858.0, 858.0, 854.0, 854.0, 855.0, 853.0, 856.0, 857.0, 854.0, 855.0, 856.0, 854.0, 855.0, 858.0, 856.0, 855.0, 854.0, 853.0, 853.0, 856.0, 853.0, 856.0, 860.0, 856.0, 855.0, 854.0, 852.0, 852.0, 855.0, 859.0, 856.0, 855.0, 855.0, 855.0, 861.0, 858.0, 856.0, 854.0, 855.0, 849.0, 851.0, 853.0, 853.0, 855.0, 858.0, 857.0, 854.0, 853.0, 852.0, 853.0, 852.0, 850.0, 853.0, 853.0, 858.0, 854.0, 852.0, 852.0, 857.0, 854.0, 852.0, 851.0, 855.0, 853.0, 853.0, 855.0, 855.0, 858.0, 854.0, 853.0, 854.0, 854.0, 854.0, 851.0, 851.0, 854.0, 853.0, 854.0, 857.0, 855.0, 854.0, 853.0, 853.0, 854.0, 852.0, 859.0, 856.0, 855.0, 853.0, 856.0, 853.0, 850.0, 851.0, 852.0, 853.0, 856.0, 858.0, 855.0, 856.0, 857.0, 851.0, 852.0, 853.0, 855.0, 853.0, 853.0, 853.0, 855.0, 857.0, 859.0, 858.0, 857.0, 857.0, 858.0, 858.0, 857.0, 857.0, 853.0, 853.0, 854.0, 852.0, 852.0, 854.0, 856.0, 854.0, 858.0, 856.0, 852.0, 853.0, 853.0, 853.0, 854.0, 852.0, 854.0, 856.0, 850.0, 853.0, 853.0, 852.0, 857.0, 852.0, 858.0, 858.0, 856.0, 854.0, 852.0, 855.0, 853.0, 855.0, 861.0, 857.0, 857.0, 855.0, 852.0, 855.0, 852.0, 849.0, 851.0, 852.0, 851.0, 850.0, 850.0, 852.0, 854.0, 853.0, 855.0, 854.0, 853.0, 854.0, 854.0, 860.0, 856.0, 853.0, 852.0, 852.0, 854.0, 853.0, 854.0, 856.0, 855.0, 854.0, 854.0, 858.0, 855.0, 858.0, 856.0, 856.0, 851.0, 853.0, 856.0, 859.0, 855.0, 854.0, 857.0, 855.0, 854.0, 853.0, 855.0, 850.0, 853.0, 850.0, 852.0, 856.0, 855.0, 856.0, 856.0, 855.0, 855.0, 854.0, 852.0, 855.0, 855.0, 852.0, 854.0, 853.0, 854.0, 854.0, 852.0, 851.0, 851.0, 852.0, 854.0, 853.0, 852.0, 859.0, 856.0, 855.0, 852.0, 852.0, 855.0, 856.0, 855.0, 859.0, 858.0, 855.0, 853.0, 853.0, 856.0, 855.0, 855.0, 853.0, 852.0, 852.0, 856.0, 856.0, 858.0, 856.0, 854.0, 853.0, 851.0, 852.0, 854.0, 852.0, 854.0, 853.0, 856.0, 851.0, 852.0, 857.0, 857.0, 855.0, 856.0, 857.0, 856.0, 853.0, 853.0, 856.0, 853.0, 853.0, 851.0, 854.0, 858.0, 858.0, 859.0]
    },
    "slices": {}
  }
}