{
  "AcquisitionMatrixPE": 96,
  "AcquisitionNumber": 1,
  "AcquisitionTime": "13:32:50.577500",
  "BandwidthPerPixelPhaseEncode": 18.939,
  "BaseResolution": 96,
  "BodyPartExamined": "BRAIN",
  "ConsistencyInfo": "N4_VE11C_LATEST_20160120",
  "ConversionSoftware": "dcm2niix",
  "ConversionSoftwareVersion": "v1.0.20170923 (OpenJPEG build) GCC6.3.0",
  "DerivedVendorReportedEchoSpacing": 0.000550011,
  "DeviceSerialNumber": "66112",
  "DwellTime": 2.3e-06,
  "EchoTime": 0.033,
  "EchoTrainLength": 96,
  "EffectiveEchoSpacing": 0.000550011,
  "FlipAngle": 64,
  "ImageType": [
    "ORIGINAL",
    "PRIMARY",
    "FMRI",
    "NONE",
    "ND",
    "NORM",
    "MOSAIC"
],
  "InstitutionAddress": "Maynard_3_Hanover_NH_US_03755",
  "InstitutionName": "Dartmouth_College_-_PBS",
  "MagneticFieldStrength": 3,
  "Manufacturer": "Siemens",
  "ManufacturersModelName": "Prisma",
  "Modality": "MR",
  "MultibandAccelerationFactor": 4,
  "PartialFourier": 1,
  "PercentPhaseFOV": 100,
  "PhaseEncodingDirection": "j-",
  "PhaseEncodingSteps": 96,
  "PhaseResolution": 1,
  "ProcedureStepDescription": "Gobbini_Matteo_1017_famface-angles",
  "ProtocolName": "func_run-02_task-str1back",
  "PulseSequenceDetails": "%SiemensSeq%_ep2d_bold",
  "ReceiveCoilActiveElements": "HEA;HEP",
  "ReceiveCoilName": "Head_32",
  "ReconMatrixPE": 96,
  "RepetitionTime": 1.25,
  "ScanOptions": "FS",
  "ScanningSequence": "EP",
  "SequenceName": "_epfid2d1_96",
  "SequenceVariant": "SK",
  "SeriesDescription": "func_run-02_task-str1back",
  "SliceTiming": [0.8775, 0, 0.615, 0.0875, 0.7025, 0.175, 0.79, 0.35, 0.965, 0.4375, 1.0525, 0.5275, 1.1425, 0.2625, 0.8775, 0, 0.615, 0.0875, 0.7025, 0.175, 0.79, 0.35, 0.965, 0.4375, 1.0525, 0.5275, 1.1425, 0.2625, 0.8775, 0, 0.615, 0.0875, 0.7025, 0.175, 0.79, 0.35, 0.965, 0.4375, 1.0525, 0.5275, 1.1425, 0.2625, 0.8775, 0, 0.615, 0.0875, 0.7025, 0.175, 0.79, 0.35, 0.965, 0.4375, 1.0525, 0.5275, 1.1425, 0.2625],
  "SoftwareVersions": "syngo_MR_E11",
  "StationName": "AWP66112",
  "TaskName": "str1back",
  "TotalReadoutTime": 0.0522511,
  "dcmmeta_affine": [
    [-2.4929685592651367, 0.14112453162670135, -0.12325407564640045, 117.64234924316406],
    [0.12596599757671356, 2.4797537326812744, 0.2914693355560303, -114.42278289794922],
    [-0.13870929181575775, -0.28443923592567444, 2.4798898696899414, -27.26930809020996],
    [0.0, 0.0, 0.0, 1.0]
],
  "dcmmeta_reorient_transform": [
    [0.0, -1.0, 0.0, 95.0],
    [1.0, 0.0, 0.0, 0.0],
    [0.0, 0.0, 1.0, 0.0],
    [0.0, 0.0, 0.0, 1.0]
],
  "dcmmeta_shape": [96, 96, 56, 280],
  "dcmmeta_slice_dim": 2,
  "dcmmeta_version": 0.6,
  "global": {
    "const": {
      "AccessionNumber": "A000383",
      "AcquisitionMatrix": [96, 0, 0, 96],
      "AngioFlag": "N",
      "BitsAllocated": 16,
      "BitsStored": 12,
      "BodyPartExamined": "BRAIN",
      "Columns": 768,
      "EchoNumbers": 1,
      "EchoTime": 33.0,
      "EchoTrainLength": 96,
      "FlipAngle": 64.0,
      "HighBit": 11,
      "ImageOrientationPatient": [0.99718742878056, -0.0503863988316, -0.0554837155821, 0.05644981002514, 0.9919014620432, 0.1137756939978],
      "ImagePositionPatient": [-1016.1044621136, -912.02646729015, -103.25629689871],
      "ImageType": [
        "ORIGINAL",
        "PRIMARY",
        "FMRI",
        "NONE",
        "ND",
        "NORM",
        "MOSAIC"
],
      "ImagedNucleus": "1H",
      "ImagingFrequency": 123.2523,
      "InPlanePhaseEncodingDirection": "COL",
      "MRAcquisitionType": "2D",
      "MagneticFieldStrength": 3.0,
      "Manufacturer": "SIEMENS",
      "ManufacturerModelName": "Prisma",
      "Modality": "MR",
      "NumberOfAverages": 1.0,
      "NumberOfPhaseEncodingSteps": 96,
      "PercentPhaseFieldOfView": 100.0,
      "PercentSampling": 100.0,
      "PerformedProcedureStepStartTime": "130433.400000",
      "PhotometricInterpretation": "MONOCHROME2",
      "PixelBandwidth": 2265.0,
      "PixelRepresentation": 0,
      "PixelSpacing": [2.5, 2.5],
      "PositionReferenceIndicator": "",
      "ProtocolName": "func_run-02_task-str1back",
      "RepetitionTime": 1250.0,
      "Rows": 768,
      "SAR": 0.06336566567384,
      "SamplesPerPixel": 1,
      "ScanOptions": "FS",
      "ScanningSequence": "EP",
      "SequenceName": "*epfid2d1_96",
      "SequenceVariant": "SK",
      "SeriesDescription": "func_run-02_task-str1back",
      "SeriesNumber": 15,
      "SeriesTime": "133251.771000",
      "SliceLocation": -46.190205762839,
      "SliceThickness": 2.5,
      "SmallestImagePixelValue": 0,
      "SoftwareVersions": "syngo MR E11",
      "SpacingBetweenSlices": 2.4999999625902,
      "SpecificCharacterSet": "ISO_IR 100",
      "StudyID": "1",
      "StudyTime": "130433.341000",
      "TransmitCoilName": "Body",
      "VariableFlipAngleFlag": "N",
      "WindowCenterWidthExplanation": "Algo1",
      "dBdt": 0.0},
    "slices": {}
  },
  "time": {
    "samples": {
      "AcquisitionNumber": [1, 2, 3, 4, 5, 6, 7, 8, 9, 10, 11, 12, 13, 14, 15, 16, 17, 18, 19, 20, 21, 22, 23, 24, 25, 26, 27, 28, 29, 30, 31, 32, 33, 34, 35, 36, 37, 38, 39, 40, 41, 42, 43, 44, 45, 46, 47, 48, 49, 50, 51, 52, 53, 54, 55, 56, 57, 58, 59, 60, 61, 62, 63, 64, 65, 66, 67, 68, 69, 70, 71, 72, 73, 74, 75, 76, 77, 78, 79, 80, 81, 82, 83, 84, 85, 86, 87, 88, 89, 90, 91, 92, 93, 94, 95, 96, 97, 98, 99, 100, 101, 102, 103, 104, 105, 106, 107, 108, 109, 110, 111, 112, 113, 114, 115, 116, 117, 118, 119, 120, 121, 122, 123, 124, 125, 126, 127, 128, 129, 130, 131, 132, 133, 134, 135, 136, 137, 138, 139, 140, 141, 142, 143, 144, 145, 146, 147, 148, 149, 150, 151, 152, 153, 154, 155, 156, 157, 158, 159, 160, 161, 162, 163, 164, 165, 166, 167, 168, 169, 170, 171, 172, 173, 174, 175, 176, 177, 178, 179, 180, 181, 182, 183, 184, 185, 186, 187, 188, 189, 190, 191, 192, 193, 194, 195, 196, 197, 198, 199, 200, 201, 202, 203, 204, 205, 206, 207, 208, 209, 210, 211, 212, 213, 214, 215, 216, 217, 218, 219, 220, 221, 222, 223, 224, 225, 226, 227, 228, 229, 230, 231, 232, 233, 234, 235, 236, 237, 238, 239, 240, 241, 242, 243, 244, 245, 246, 247, 248, 249, 250, 251, 252, 253, 254, 255, 256, 257, 258, 259, 260, 261, 262, 263, 264, 265, 266, 267, 268, 269, 270, 271, 272, 273, 274, 275, 276, 277, 278, 279, 280],
      "AcquisitionTime": ["133250.577500", "133251.827500", "133253.077500", "133254.327500", "133255.577500", "133256.827500", "133258.077500", "133259.327500", "133300.577500", "133301.827500", "133303.077500", "133304.327500", "133305.577500", "133306.827500", "133308.077500", "133309.327500", "133310.577500", "133311.827500", "133313.077500", "133314.327500", "133315.577500", "133316.827500", "133318.077500", "133319.327500", "133320.577500", "133321.827500", "133323.077500", "133324.327500", "133325.577500", "133326.827500", "133328.077500", "133329.327500", "133330.577500", "133331.827500", "133333.077500", "133334.327500", "133335.577500", "133336.827500", "133338.077500", "133339.327500", "133340.577500", "133341.827500", "133343.077500", "133344.327500", "133345.577500", "133346.827500", "133348.077500", "133349.327500", "133350.577500", "133351.827500", "133353.077500", "133354.327500", "133355.577500", "133356.827500", "133358.077500", "133359.327500", "133400.577500", "133401.827500", "133403.077500", "133404.327500", "133405.577500", "133406.827500", "133408.077500", "133409.327500", "133410.577500", "133411.827500", "133413.077500", "133414.327500", "133415.577500", "133416.827500", "133418.077500", "133419.327500", "133420.577500", "133421.827500", "133423.077500", "133424.327500", "133425.577500", "133426.827500", "133428.077500", "133429.327500", "133430.577500", "133431.827500", "133433.077500", "133434.327500", "133435.577500", "133436.827500", "133438.077500", "133439.327500", "133440.577500", "133441.827500", "133443.077500", "133444.327500", "133445.577500", "133446.827500", "133448.077500", "133449.327500", "133450.577500", "133451.827500", "133453.077500", "133454.327500", "133455.577500", "133456.827500", "133458.077500", "133459.327500", "133500.577500", "133501.827500", "133503.077500", "133504.327500", "133505.577500", "133506.827500", "133508.077500", "133509.327500", "133510.577500", "133511.827500", "133513.077500", "133514.327500", "133515.577500", "133516.827500", "133518.077500", "133519.327500", "133520.577500", "133521.827500", "133523.077500", "133524.327500", "133525.577500", "133526.827500", "133528.077500", "133529.327500", "133530.577500", "133531.827500", "133533.077500", "133534.327500", "133535.577500", "133536.827500", "133538.077500", "133539.327500", "133540.577500", "133541.827500", "133543.077500", "133544.327500", "133545.577500", "133546.827500", "133548.077500", "133549.327500", "133550.577500", "133551.827500", "133553.077500", "133554.327500", "133555.577500", "133556.827500", "133558.077500", "133559.327500", "133600.577500", "133601.827500", "133603.077500", "133604.327500", "133605.577500", "133606.827500", "133608.077500", "133609.327500", "133610.577500", "133611.827500", "133613.077500", "133614.327500", "133615.577500", "133616.827500", "133618.077500", "133619.327500", "133620.577500", "133621.827500", "133623.077500", "133624.327500", "133625.577500", "133626.827500", "133628.077500", "133629.327500", "133630.577500", "133631.827500", "133633.077500", "133634.327500", "133635.577500", "133636.827500", "133638.077500", "133639.327500", "133640.577500", "133641.827500", "133643.077500", "133644.327500", "133645.577500", "133646.827500", "133648.077500", "133649.327500", "133650.577500", "133651.827500", "133653.077500", "133654.327500", "133655.577500", "133656.827500", "133658.077500", "133659.327500", "133700.577500", "133701.827500", "133703.077500", "133704.327500", "133705.577500", "133706.827500", "133708.077500", "133709.327500", "133710.577500", "133711.827500", "133713.077500", "133714.327500", "133715.577500", "133716.827500", "133718.077500", "133719.327500", "133720.577500", "133721.827500", "133723.077500", "133724.327500", "133725.577500", "133726.827500", "133728.077500", "133729.327500", "133730.577500", "133731.827500", "133733.077500", "133734.327500", "133735.577500", "133736.827500", "133738.077500", "133739.327500", "133740.577500", "133741.827500", "133743.077500", "133744.327500", "133745.577500", "133746.827500", "133748.077500", "133749.327500", "133750.577500", "133751.827500", "133753.077500", "133754.327500", "133755.577500", "133756.827500", "133758.077500", "133759.327500", "133800.577500", "133801.827500", "133803.077500", "133804.327500", "133805.577500", "133806.827500", "133808.077500", "133809.327500", "133810.577500", "133811.827500", "133813.077500", "133814.327500", "133815.577500", "133816.827500", "133818.077500", "133819.327500", "133820.577500", "133821.827500", "133823.077500", "133824.327500", "133825.577500", "133826.827500", "133828.077500", "133829.327500", "133830.577500", "133831.827500", "133833.077500", "133834.327500", "133835.577500", "133836.827500", "133838.077500", "133839.327500"],
      "ContentTime": ["133251.787000", "133252.836000", "133254.086000", "133255.382000", "133256.577000", "133257.829000", "133259.075000", "133300.323000", "133301.573000", "133302.835000", "133304.077000", "133305.352000", "133306.560000", "133307.836000", "133309.092000", "133310.332000", "133311.593000", "133312.815000", "133314.076000", "133315.340000", "133316.590000", "133317.814000", "133319.068000", "133320.320000", "133321.556000", "133322.836000", "133324.090000", "133325.323000", "133326.594000", "133327.859000", "133329.117000", "133330.332000", "133331.580000", "133332.834000", "133334.075000", "133335.330000", "133336.580000", "133337.841000", "133339.070000", "133340.321000", "133341.599000", "133342.818000", "133344.076000", "133345.334000", "133346.585000", "133347.823000", "133349.099000", "133350.321000", "133351.567000", "133352.820000", "133354.095000", "133355.323000", "133356.566000", "133357.835000", "133359.089000", "133400.331000", "133401.577000", "133402.822000", "133404.113000", "133405.341000", "133406.553000", "133407.822000", "133409.105000", "133410.325000", "133411.571000", "133412.848000", "133414.134000", "133415.352000", "133416.576000", "133417.789000", "133419.114000", "133420.336000", "133421.580000", "133422.840000", "133424.064000", "133425.335000", "133426.604000", "133427.839000", "133429.090000", "133430.321000", "133431.607000", "133432.827000", "133434.059000", "133435.343000", "133436.575000", "133437.796000", "133439.071000", "133440.339000", "133441.561000", "133442.808000", "133444.093000", "133445.379000", "133446.565000", "133447.824000", "133449.069000", "133450.331000", "133451.603000", "133452.846000", "133454.075000", "133455.336000", "133456.632000", "133457.842000", "133459.104000", "133500.352000", "133501.615000", "133502.871000", "133504.092000", "133505.353000", "133506.645000", "133507.835000", "133509.109000", "133510.349000", "133511.598000", "133512.845000", "133514.094000", "133515.374000", "133516.605000", "133517.851000", "133519.112000", "133520.336000", "133521.583000", "133522.845000", "133524.097000", "133525.348000", "133526.607000", "133527.858000", "133529.091000", "133530.349000", "133531.581000", "133532.838000", "133534.109000", "133535.355000", "133536.601000", "133537.840000", "133539.093000", "133540.312000", "133541.586000", "133542.839000", "133544.095000", "133545.341000", "133546.607000", "133547.844000", "133549.101000", "133550.339000", "133551.576000", "133552.835000", "133554.116000", "133555.325000", "133556.578000", "133557.861000", "133559.101000", "133600.354000", "133601.600000", "133602.819000", "133604.073000", "133605.351000", "133606.619000", "133608.044000", "133609.086000", "133610.357000", "133611.592000", "133612.868000", "133614.128000", "133615.375000", "133616.588000", "133617.829000", "133619.118000", "133620.319000", "133621.579000", "133622.811000", "133624.101000", "133625.289000", "133626.579000", "133627.836000", "133629.092000", "133630.370000", "133631.602000", "133632.841000", "133634.095000", "133635.340000", "133636.605000", "133637.847000", "133639.083000", "133640.336000", "133641.599000", "133642.856000", "133644.112000", "133645.337000", "133646.554000", "133647.820000", "133649.078000", "133650.329000", "133651.602000", "133652.882000", "133654.080000", "133655.378000", "133656.588000", "133657.839000", "133659.107000", "133700.347000", "133701.619000", "133702.855000", "133704.107000", "133705.364000", "133706.628000", "133707.821000", "133709.070000", "133710.350000", "133711.578000", "133712.834000", "133714.105000", "133715.347000", "133716.601000", "133717.845000", "133719.096000", "133720.341000", "133721.592000", "133722.816000", "133724.066000", "133725.317000", "133726.573000", "133727.815000", "133729.105000", "133730.364000", "133731.581000", "133732.842000", "133734.124000", "133735.348000", "133736.595000", "133737.811000", "133739.067000", "133740.348000", "133741.580000", "133742.840000", "133744.071000", "133745.339000", "133746.540000", "133747.855000", "133749.101000", "133750.346000", "133751.592000", "133752.838000", "133754.119000", "133755.340000", "133756.576000", "133757.827000", "133759.112000", "133800.328000", "133801.578000", "133802.844000", "133804.131000", "133805.329000", "133806.625000", "133807.867000", "133809.104000", "133810.357000", "133811.566000", "133812.823000", "133814.110000", "133815.341000", "133816.600000", "133817.846000", "133819.105000", "133820.365000", "133821.589000", "133822.837000", "133824.099000", "133825.335000", "133826.582000", "133827.841000", "133829.071000", "133830.333000", "133831.601000", "133832.833000", "133834.078000", "133835.322000", "133836.595000", "133837.853000", "133839.104000", "133840.413000"],
      "InstanceCreationTime": ["133251.787000", "133252.836000", "133254.086000", "133255.382000", "133256.577000", "133257.829000", "133259.075000", "133300.323000", "133301.573000", "133302.835000", "133304.077000", "133305.352000", "133306.560000", "133307.836000", "133309.092000", "133310.332000", "133311.593000", "133312.815000", "133314.076000", "133315.340000", "133316.590000", "133317.814000", "133319.068000", "133320.320000", "133321.556000", "133322.836000", "133324.090000", "133325.323000", "133326.594000", "133327.859000", "133329.117000", "133330.332000", "133331.580000", "133332.834000", "133334.075000", "133335.330000", "133336.580000", "133337.841000", "133339.070000", "133340.321000", "133341.599000", "133342.818000", "133344.076000", "133345.334000", "133346.585000", "133347.823000", "133349.099000", "133350.321000", "133351.567000", "133352.820000", "133354.095000", "133355.323000", "133356.566000", "133357.835000", "133359.089000", "133400.331000", "133401.577000", "133402.822000", "133404.113000", "133405.341000", "133406.553000", "133407.822000", "133409.105000", "133410.325000", "133411.571000", "133412.848000", "133414.134000", "133415.352000", "133416.576000", "133417.789000", "133419.114000", "133420.336000", "133421.580000", "133422.840000", "133424.064000", "133425.335000", "133426.604000", "133427.839000", "133429.090000", "133430.321000", "133431.607000", "133432.827000", "133434.059000", "133435.343000", "133436.575000", "133437.796000", "133439.071000", "133440.339000", "133441.561000", "133442.808000", "133444.093000", "133445.379000", "133446.565000", "133447.824000", "133449.069000", "133450.331000", "133451.603000", "133452.846000", "133454.075000", "133455.336000", "133456.632000", "133457.842000", "133459.104000", "133500.352000", "133501.615000", "133502.871000", "133504.092000", "133505.353000", "133506.645000", "133507.835000", "133509.109000", "133510.349000", "133511.598000", "133512.845000", "133514.094000", "133515.374000", "133516.605000", "133517.851000", "133519.112000", "133520.336000", "133521.583000", "133522.845000", "133524.097000", "133525.348000", "133526.607000", "133527.858000", "133529.091000", "133530.349000", "133531.581000", "133532.838000", "133534.109000", "133535.355000", "133536.601000", "133537.840000", "133539.093000", "133540.312000", "133541.586000", "133542.839000", "133544.095000", "133545.341000", "133546.607000", "133547.844000", "133549.101000", "133550.339000", "133551.576000", "133552.835000", "133554.116000", "133555.325000", "133556.578000", "133557.861000", "133559.101000", "133600.354000", "133601.600000", "133602.819000", "133604.073000", "133605.351000", "133606.619000", "133608.044000", "133609.086000", "133610.357000", "133611.592000", "133612.868000", "133614.128000", "133615.375000", "133616.588000", "133617.829000", "133619.118000", "133620.319000", "133621.579000", "133622.811000", "133624.101000", "133625.289000", "133626.579000", "133627.836000", "133629.092000", "133630.370000", "133631.602000", "133632.841000", "133634.095000", "133635.340000", "133636.605000", "133637.847000", "133639.083000", "133640.336000", "133641.599000", "133642.856000", "133644.112000", "133645.337000", "133646.554000", "133647.820000", "133649.078000", "133650.329000", "133651.602000", "133652.882000", "133654.080000", "133655.378000", "133656.588000", "133657.839000", "133659.107000", "133700.347000", "133701.619000", "133702.855000", "133704.107000", "133705.364000", "133706.628000", "133707.821000", "133709.070000", "133710.350000", "133711.578000", "133712.834000", "133714.105000", "133715.347000", "133716.601000", "133717.845000", "133719.096000", "133720.341000", "133721.592000", "133722.816000", "133724.066000", "133725.317000", "133726.573000", "133727.815000", "133729.105000", "133730.364000", "133731.581000", "133732.842000", "133734.124000", "133735.348000", "133736.595000", "133737.811000", "133739.067000", "133740.348000", "133741.580000", "133742.840000", "133744.071000", "133745.339000", "133746.540000", "133747.855000", "133749.101000", "133750.346000", "133751.592000", "133752.838000", "133754.119000", "133755.340000", "133756.576000", "133757.827000", "133759.112000", "133800.328000", "133801.578000", "133802.844000", "133804.131000", "133805.329000", "133806.625000", "133807.867000", "133809.104000", "133810.357000", "133811.566000", "133812.823000", "133814.110000", "133815.341000", "133816.600000", "133817.846000", "133819.105000", "133820.365000", "133821.589000", "133822.837000", "133824.099000", "133825.335000", "133826.582000", "133827.841000", "133829.071000", "133830.333000", "133831.601000", "133832.833000", "133834.078000", "133835.322000", "133836.595000", "133837.853000", "133839.104000", "133840.413000"],
      "InstanceNumber": [1, 2, 3, 4, 5, 6, 7, 8, 9, 10, 11, 12, 13, 14, 15, 16, 17, 18, 19, 20, 21, 22, 23, 24, 25, 26, 27, 28, 29, 30, 31, 32, 33, 34, 35, 36, 37, 38, 39, 40, 41, 42, 43, 44, 45, 46, 47, 48, 49, 50, 51, 52, 53, 54, 55, 56, 57, 58, 59, 60, 61, 62, 63, 64, 65, 66, 67, 68, 69, 70, 71, 72, 73, 74, 75, 76, 77, 78, 79, 80, 81, 82, 83, 84, 85, 86, 87, 88, 89, 90, 91, 92, 93, 94, 95, 96, 97, 98, 99, 100, 101, 102, 103, 104, 105, 106, 107, 108, 109, 110, 111, 112, 113, 114, 115, 116, 117, 118, 119, 120, 121, 122, 123, 124, 125, 126, 127, 128, 129, 130, 131, 132, 133, 134, 135, 136, 137, 138, 139, 140, 141, 142, 143, 144, 145, 146, 147, 148, 149, 150, 151, 152, 153, 154, 155, 156, 157, 158, 159, 160, 161, 162, 163, 164, 165, 166, 167, 168, 169, 170, 171, 172, 173, 174, 175, 176, 177, 178, 179, 180, 181, 182, 183, 184, 185, 186, 187, 188, 189, 190, 191, 192, 193, 194, 195, 196, 197, 198, 199, 200, 201, 202, 203, 204, 205, 206, 207, 208, 209, 210, 211, 212, 213, 214, 215, 216, 217, 218, 219, 220, 221, 222, 223, 224, 225, 226, 227, 228, 229, 230, 231, 232, 233, 234, 235, 236, 237, 238, 239, 240, 241, 242, 243, 244, 245, 246, 247, 248, 249, 250, 251, 252, 253, 254, 255, 256, 257, 258, 259, 260, 261, 262, 263, 264, 265, 266, 267, 268, 269, 270, 271, 272, 273, 274, 275, 276, 277, 278, 279, 280],
      "LargestImagePixelValue": [1379, 1654, 1071, 1719, 1446, 1536, 1509, 1169, 1608, 1169, 1546, 1357, 1527, 1204, 1140, 1497, 1136, 1477, 1119, 1258, 1304, 1131, 1065, 1470, 1468, 1522, 1483, 1039, 1203, 1518, 1167, 1555, 1367, 1460, 1485, 1152, 1512, 1202, 1523, 1305, 1464, 1451, 1439, 1492, 1137, 1227, 1718, 1089, 1558, 1490, 1549, 1251, 1512, 1311, 966, 1479, 995, 1398, 1476, 1538, 1473, 1417, 1389, 1567, 1415, 1387, 1559, 1343, 1226, 1409, 1238, 1211, 1172, 1522, 1266, 1398, 1493, 1418, 1303, 1599, 1278, 978, 1561, 1116, 1554, 1239, 1361, 1288, 1007, 1701, 1520, 1538, 1247, 1239, 1559, 1095, 1530, 1428, 1350, 1548, 966, 1324, 1123, 1491, 1498, 1635, 1313, 1559, 1370, 1062, 1195, 1072, 1042, 1297, 1590, 1226, 1543, 1387, 1524, 1185, 1261, 1247, 1588, 1131, 1646, 1461, 1005, 1613, 1188, 1366, 1364, 1211, 1003, 1530, 1431, 1515, 1512, 1538, 1571, 1121, 1608, 1083, 1250, 1370, 1545, 1354, 1495, 1155, 1211, 1322, 1376, 1334, 964, 914, 1605, 1261, 1549, 1432, 1428, 1527, 1024, 1402, 1417, 1588, 1446, 1580, 1458, 1022, 1015, 1354, 1653, 1587, 1624, 1389, 1610, 1413, 1661, 1382, 1486, 1230, 995, 1202, 1558, 1243, 1556, 1418, 1504, 1381, 993, 1591, 1310, 1488, 1424, 1479, 1375, 1055, 1714, 1144, 1554, 1241, 1337, 1313, 1634, 1420, 1025, 1601, 1191, 1606, 1556, 1534, 1425, 1390, 1086, 1607, 1231, 1038, 1505, 1590, 1574, 1493, 1474, 1291, 1374, 1035, 1639, 1212, 1586, 1240, 1532, 1577, 1594, 1531, 1229, 1610, 1249, 1639, 1195, 1430, 1652, 1410, 1584, 1202, 1556, 1548, 1143, 1444, 1589, 1593, 1139, 1494, 1655, 1297, 1273, 1701, 1378, 952, 1386, 1064, 1522, 1525, 1557, 1589, 1373, 1483, 1469, 1621, 1457, 1704, 1552, 1332, 1656, 1082, 1255, 1490, 1459, 1013, 1697, 1467, 1618, 1569],
      "WindowCenter": [416.0, 417.0, 412.0, 416.0, 414.0, 414.0, 413.0, 410.0, 413.0, 411.0, 413.0, 412.0, 412.0, 410.0, 410.0, 413.0, 411.0, 413.0, 410.0, 412.0, 413.0, 412.0, 412.0, 414.0, 414.0, 414.0, 414.0, 410.0, 412.0, 415.0, 412.0, 415.0, 414.0, 415.0, 415.0, 412.0, 415.0, 413.0, 414.0, 412.0, 413.0, 414.0, 412.0, 413.0, 411.0, 412.0, 415.0, 410.0, 413.0, 414.0, 413.0, 411.0, 412.0, 412.0, 408.0, 414.0, 411.0, 414.0, 415.0, 414.0, 414.0, 413.0, 413.0, 414.0, 412.0, 412.0, 414.0, 412.0, 411.0, 413.0, 412.0, 412.0, 411.0, 414.0, 413.0, 414.0, 414.0, 413.0, 412.0, 414.0, 413.0, 410.0, 415.0, 412.0, 414.0, 412.0, 412.0, 412.0, 409.0, 416.0, 414.0, 414.0, 411.0, 412.0, 413.0, 410.0, 414.0, 413.0, 413.0, 414.0, 410.0, 413.0, 411.0, 413.0, 414.0, 415.0, 413.0, 413.0, 412.0, 408.0, 411.0, 410.0, 411.0, 413.0, 415.0, 412.0, 414.0, 413.0, 413.0, 411.0, 411.0, 412.0, 414.0, 411.0, 414.0, 413.0, 409.0, 414.0, 411.0, 412.0, 413.0, 412.0, 411.0, 415.0, 414.0, 414.0, 414.0, 413.0, 413.0, 409.0, 413.0, 409.0, 411.0, 412.0, 414.0, 413.0, 413.0, 410.0, 411.0, 412.0, 412.0, 412.0, 409.0, 409.0, 415.0, 413.0, 414.0, 414.0, 413.0, 414.0, 410.0, 413.0, 414.0, 414.0, 413.0, 413.0, 412.0, 409.0, 410.0, 413.0, 415.0, 415.0, 414.0, 413.0, 414.0, 413.0, 414.0, 412.0, 412.0, 411.0, 409.0, 411.0, 413.0, 411.0, 414.0, 413.0, 413.0, 413.0, 409.0, 415.0, 414.0, 414.0, 413.0, 412.0, 412.0, 409.0, 415.0, 410.0, 414.0, 411.0, 411.0, 412.0, 413.0, 413.0, 409.0, 414.0, 412.0, 415.0, 415.0, 414.0, 413.0, 413.0, 410.0, 414.0, 412.0, 409.0, 414.0, 415.0, 414.0, 413.0, 413.0, 411.0, 412.0, 410.0, 414.0, 412.0, 414.0, 412.0, 414.0, 414.0, 414.0, 414.0, 412.0, 414.0, 412.0, 414.0, 412.0, 414.0, 414.0, 413.0, 414.0, 412.0, 414.0, 414.0, 411.0, 414.0, 415.0, 415.0, 410.0, 414.0, 414.0, 412.0, 411.0, 413.0, 412.0, 408.0, 413.0, 410.0, 414.0, 414.0, 414.0, 415.0, 413.0, 413.0, 413.0, 413.0, 412.0, 414.0, 413.0, 411.0, 413.0, 409.0, 412.0, 414.0, 413.0, 410.0, 416.0, 414.0, 414.0, 414.0],
      "WindowWidth": [878.0, 878.0, 871.0, 876.0, 874.0, 872.0, 872.0, 867.0, 872.0, 868.0, 872.0, 870.0, 870.0, 866.0, 867.0, 871.0, 868.0, 871.0, 868.0, 870.0, 872.0, 871.0, 871.0, 874.0, 873.0, 873.0, 874.0, 867.0, 870.0, 875.0, 871.0, 875.0, 874.0, 875.0, 875.0, 870.0, 875.0, 872.0, 874.0, 870.0, 871.0, 872.0, 870.0, 872.0, 868.0, 870.0, 874.0, 868.0, 872.0, 872.0, 871.0, 869.0, 870.0, 869.0, 864.0, 873.0, 869.0, 873.0, 875.0, 873.0, 873.0, 871.0, 871.0, 873.0, 870.0, 870.0, 873.0, 871.0, 869.0, 872.0, 870.0, 869.0, 868.0, 873.0, 871.0, 872.0, 874.0, 871.0, 870.0, 872.0, 871.0, 868.0, 874.0, 870.0, 874.0, 870.0, 870.0, 870.0, 866.0, 876.0, 873.0, 874.0, 869.0, 870.0, 871.0, 867.0, 872.0, 871.0, 870.0, 872.0, 867.0, 871.0, 869.0, 872.0, 872.0, 874.0, 871.0, 871.0, 869.0, 864.0, 868.0, 867.0, 869.0, 872.0, 875.0, 870.0, 873.0, 871.0, 871.0, 868.0, 869.0, 870.0, 873.0, 868.0, 873.0, 871.0, 865.0, 873.0, 868.0, 870.0, 871.0, 871.0, 869.0, 874.0, 873.0, 872.0, 872.0, 870.0, 870.0, 865.0, 871.0, 865.0, 869.0, 870.0, 873.0, 870.0, 871.0, 867.0, 868.0, 869.0, 870.0, 870.0, 866.0, 866.0, 875.0, 871.0, 873.0, 872.0, 872.0, 873.0, 867.0, 871.0, 873.0, 872.0, 872.0, 870.0, 870.0, 865.0, 866.0, 872.0, 875.0, 874.0, 874.0, 871.0, 872.0, 871.0, 872.0, 869.0, 869.0, 867.0, 865.0, 868.0, 872.0, 869.0, 872.0, 871.0, 871.0, 870.0, 866.0, 874.0, 872.0, 872.0, 870.0, 870.0, 869.0, 865.0, 873.0, 868.0, 872.0, 868.0, 868.0, 869.0, 871.0, 871.0, 865.0, 873.0, 870.0, 874.0, 874.0, 872.0, 871.0, 871.0, 867.0, 873.0, 870.0, 866.0, 872.0, 874.0, 873.0, 871.0, 871.0, 869.0, 870.0, 867.0, 873.0, 869.0, 872.0, 869.0, 873.0, 873.0, 873.0, 872.0, 869.0, 873.0, 869.0, 873.0, 869.0, 873.0, 873.0, 871.0, 872.0, 869.0, 873.0, 873.0, 869.0, 872.0, 875.0, 874.0, 868.0, 873.0, 873.0, 869.0, 869.0, 871.0, 869.0, 864.0, 872.0, 868.0, 873.0, 873.0, 873.0, 874.0, 871.0, 872.0, 870.0, 871.0, 870.0, 871.0, 871.0, 868.0, 871.0, 866.0, 869.0, 873.0, 872.0, 868.0, 875.0, 873.0, 873.0, 872.0]
    },
    "slices": {}
  }
}