{
  "AcquisitionMatrixPE": 96,
  "AcquisitionNumber": 1,
  "AcquisitionTime": "14:31:33.397500",
  "BandwidthPerPixelPhaseEncode": 18.939,
  "BaseResolution": 96,
  "BodyPartExamined": "BRAIN",
  "ConsistencyInfo": "N4_VE11C_LATEST_20160120",
  "ConversionSoftware": "dcm2niix",
  "ConversionSoftwareVersion": "v1.0.20170923 (OpenJPEG build) GCC6.3.0",
  "DerivedVendorReportedEchoSpacing": 0.000550011,
  "DeviceSerialNumber": "66112",
  "DwellTime": 2.3e-06,
  "EchoTime": 0.033,
  "EchoTrainLength": 96,
  "EffectiveEchoSpacing": 0.000550011,
  "FlipAngle": 64,
  "ImageType": [
    "ORIGINAL",
    "PRIMARY",
    "FMRI",
    "NONE",
    "ND",
    "NORM",
    "MOSAIC"
],
  "InstitutionAddress": "Maynard_3_Hanover_NH_US_03755",
  "InstitutionName": "Dartmouth_College_-_PBS",
  "MagneticFieldStrength": 3,
  "Manufacturer": "Siemens",
  "ManufacturersModelName": "Prisma",
  "Modality": "MR",
  "MultibandAccelerationFactor": 4,
  "PartialFourier": 1,
  "PercentPhaseFOV": 100,
  "PhaseEncodingDirection": "j-",
  "PhaseEncodingSteps": 96,
  "PhaseResolution": 1,
  "ProcedureStepDescription": "Gobbini_Matteo_1017_famface-angles",
  "ProtocolName": "func_run-11_task-fam1back",
  "PulseSequenceDetails": "%SiemensSeq%_ep2d_bold",
  "ReceiveCoilActiveElements": "HEA;HEP",
  "ReceiveCoilName": "Head_32",
  "ReconMatrixPE": 96,
  "RepetitionTime": 1.25,
  "ScanOptions": "FS",
  "ScanningSequence": "EP",
  "SequenceName": "_epfid2d1_96",
  "SequenceVariant": "SK",
  "SeriesDescription": "func_run-11_task-fam1back",
  "SliceTiming": [0.8775, 0, 0.615, 0.0875, 0.7025, 0.175, 0.79, 0.3525, 0.9675, 0.44, 1.055, 0.5275, 1.1425, 0.2625, 0.8775, 0, 0.615, 0.0875, 0.7025, 0.175, 0.79, 0.3525, 0.9675, 0.44, 1.055, 0.5275, 1.1425, 0.2625, 0.8775, 0, 0.615, 0.0875, 0.7025, 0.175, 0.79, 0.3525, 0.9675, 0.44, 1.055, 0.5275, 1.1425, 0.2625, 0.8775, 0, 0.615, 0.0875, 0.7025, 0.175, 0.79, 0.3525, 0.9675, 0.44, 1.055, 0.5275, 1.1425, 0.2625],
  "SoftwareVersions": "syngo_MR_E11",
  "StationName": "AWP66112",
  "TaskName": "fam1back",
  "TotalReadoutTime": 0.0522511,
  "dcmmeta_affine": [
    [-2.4929685592651367, 0.14112453162670135, -0.12325407564640045, 117.64234924316406],
    [0.12596599757671356, 2.4797537326812744, 0.2914693355560303, -114.42278289794922],
    [-0.13870929181575775, -0.28443923592567444, 2.4798898696899414, -27.26930809020996],
    [0.0, 0.0, 0.0, 1.0]
],
  "dcmmeta_reorient_transform": [
    [0.0, -1.0, 0.0, 95.0],
    [1.0, 0.0, 0.0, 0.0],
    [0.0, 0.0, 1.0, 0.0],
    [0.0, 0.0, 0.0, 1.0]
],
  "dcmmeta_shape": [96, 96, 56, 280],
  "dcmmeta_slice_dim": 2,
  "dcmmeta_version": 0.6,
  "global": {
    "const": {
      "AccessionNumber": "A000383",
      "AcquisitionMatrix": [96, 0, 0, 96],
      "AngioFlag": "N",
      "BitsAllocated": 16,
      "BitsStored": 12,
      "BodyPartExamined": "BRAIN",
      "Columns": 768,
      "EchoNumbers": 1,
      "EchoTime": 33.0,
      "EchoTrainLength": 96,
      "FlipAngle": 64.0,
      "HighBit": 11,
      "ImageOrientationPatient": [0.99718742878056, -0.0503863988316, -0.0554837155821, 0.05644981002514, 0.9919014620432, 0.1137756939978],
      "ImagePositionPatient": [-1016.1044621136, -912.02646729015, -103.25629689871],
      "ImageType": [
        "ORIGINAL",
        "PRIMARY",
        "FMRI",
        "NONE",
        "ND",
        "NORM",
        "MOSAIC"
],
      "ImagedNucleus": "1H",
      "ImagingFrequency": 123.252304,
      "InPlanePhaseEncodingDirection": "COL",
      "MRAcquisitionType": "2D",
      "MagneticFieldStrength": 3.0,
      "Manufacturer": "SIEMENS",
      "ManufacturerModelName": "Prisma",
      "Modality": "MR",
      "NumberOfAverages": 1.0,
      "NumberOfPhaseEncodingSteps": 96,
      "PercentPhaseFieldOfView": 100.0,
      "PercentSampling": 100.0,
      "PerformedProcedureStepStartTime": "130433.400000",
      "PhotometricInterpretation": "MONOCHROME2",
      "PixelBandwidth": 2265.0,
      "PixelRepresentation": 0,
      "PixelSpacing": [2.5, 2.5],
      "PositionReferenceIndicator": "",
      "ProtocolName": "func_run-11_task-fam1back",
      "RepetitionTime": 1250.0,
      "Rows": 768,
      "SAR": 0.06336566567384,
      "SamplesPerPixel": 1,
      "ScanOptions": "FS",
      "ScanningSequence": "EP",
      "SequenceName": "*epfid2d1_96",
      "SequenceVariant": "SK",
      "SeriesDescription": "func_run-11_task-fam1back",
      "SeriesNumber": 78,
      "SeriesTime": "143134.911000",
      "SliceLocation": -46.190205762839,
      "SliceThickness": 2.5,
      "SmallestImagePixelValue": 0,
      "SoftwareVersions": "syngo MR E11",
      "SpacingBetweenSlices": 2.4999999625902,
      "SpecificCharacterSet": "ISO_IR 100",
      "StudyID": "1",
      "StudyTime": "130433.341000",
      "TransmitCoilName": "Body",
      "VariableFlipAngleFlag": "N",
      "WindowCenterWidthExplanation": "Algo1",
      "dBdt": 0.0},
    "slices": {}
  },
  "time": {
    "samples": {
      "AcquisitionNumber": [1, 2, 3, 4, 5, 6, 7, 8, 9, 10, 11, 12, 13, 14, 15, 16, 17, 18, 19, 20, 21, 22, 23, 24, 25, 26, 27, 28, 29, 30, 31, 32, 33, 34, 35, 36, 37, 38, 39, 40, 41, 42, 43, 44, 45, 46, 47, 48, 49, 50, 51, 52, 53, 54, 55, 56, 57, 58, 59, 60, 61, 62, 63, 64, 65, 66, 67, 68, 69, 70, 71, 72, 73, 74, 75, 76, 77, 78, 79, 80, 81, 82, 83, 84, 85, 86, 87, 88, 89, 90, 91, 92, 93, 94, 95, 96, 97, 98, 99, 100, 101, 102, 103, 104, 105, 106, 107, 108, 109, 110, 111, 112, 113, 114, 115, 116, 117, 118, 119, 120, 121, 122, 123, 124, 125, 126, 127, 128, 129, 130, 131, 132, 133, 134, 135, 136, 137, 138, 139, 140, 141, 142, 143, 144, 145, 146, 147, 148, 149, 150, 151, 152, 153, 154, 155, 156, 157, 158, 159, 160, 161, 162, 163, 164, 165, 166, 167, 168, 169, 170, 171, 172, 173, 174, 175, 176, 177, 178, 179, 180, 181, 182, 183, 184, 185, 186, 187, 188, 189, 190, 191, 192, 193, 194, 195, 196, 197, 198, 199, 200, 201, 202, 203, 204, 205, 206, 207, 208, 209, 210, 211, 212, 213, 214, 215, 216, 217, 218, 219, 220, 221, 222, 223, 224, 225, 226, 227, 228, 229, 230, 231, 232, 233, 234, 235, 236, 237, 238, 239, 240, 241, 242, 243, 244, 245, 246, 247, 248, 249, 250, 251, 252, 253, 254, 255, 256, 257, 258, 259, 260, 261, 262, 263, 264, 265, 266, 267, 268, 269, 270, 271, 272, 273, 274, 275, 276, 277, 278, 279, 280],
      "AcquisitionTime": ["143133.397500", "143134.647500", "143135.897500", "143137.147500", "143138.397500", "143139.647500", "143140.897500", "143142.147500", "143143.397500", "143144.647500", "143145.897500", "143147.147500", "143148.397500", "143149.647500", "143150.897500", "143152.147500", "143153.397500", "143154.647500", "143155.897500", "143157.147500", "143158.397500", "143159.647500", "143200.897500", "143202.147500", "143203.397500", "143204.647500", "143205.897500", "143207.147500", "143208.397500", "143209.647500", "143210.897500", "143212.147500", "143213.397500", "143214.647500", "143215.897500", "143217.147500", "143218.397500", "143219.647500", "143220.897500", "143222.147500", "143223.397500", "143224.647500", "143225.897500", "143227.147500", "143228.397500", "143229.647500", "143230.897500", "143232.147500", "143233.397500", "143234.647500", "143235.897500", "143237.147500", "143238.397500", "143239.647500", "143240.897500", "143242.147500", "143243.397500", "143244.647500", "143245.897500", "143247.147500", "143248.397500", "143249.647500", "143250.897500", "143252.147500", "143253.397500", "143254.647500", "143255.897500", "143257.147500", "143258.397500", "143259.647500", "143300.897500", "143302.147500", "143303.397500", "143304.647500", "143305.897500", "143307.147500", "143308.397500", "143309.647500", "143310.897500", "143312.147500", "143313.397500", "143314.647500", "143315.897500", "143317.147500", "143318.397500", "143319.647500", "143320.897500", "143322.147500", "143323.397500", "143324.647500", "143325.897500", "143327.147500", "143328.397500", "143329.647500", "143330.897500", "143332.147500", "143333.397500", "143334.647500", "143335.897500", "143337.147500", "143338.397500", "143339.647500", "143340.897500", "143342.147500", "143343.397500", "143344.647500", "143345.897500", "143347.147500", "143348.397500", "143349.647500", "143350.897500", "143352.147500", "143353.397500", "143354.647500", "143355.897500", "143357.147500", "143358.397500", "143359.647500", "143400.897500", "143402.147500", "143403.397500", "143404.647500", "143405.897500", "143407.147500", "143408.397500", "143409.647500", "143410.897500", "143412.147500", "143413.397500", "143414.647500", "143415.897500", "143417.147500", "143418.397500", "143419.647500", "143420.897500", "143422.147500", "143423.397500", "143424.647500", "143425.897500", "143427.147500", "143428.397500", "143429.647500", "143430.897500", "143432.147500", "143433.397500", "143434.647500", "143435.897500", "143437.147500", "143438.397500", "143439.647500", "143440.897500", "143442.147500", "143443.397500", "143444.647500", "143445.897500", "143447.147500", "143448.397500", "143449.647500", "143450.897500", "143452.147500", "143453.397500", "143454.647500", "143455.897500", "143457.147500", "143458.397500", "143459.647500", "143500.897500", "143502.147500", "143503.397500", "143504.647500", "143505.897500", "143507.147500", "143508.397500", "143509.647500", "143510.897500", "143512.147500", "143513.397500", "143514.647500", "143515.897500", "143517.147500", "143518.397500", "143519.647500", "143520.897500", "143522.147500", "143523.397500", "143524.647500", "143525.897500", "143527.147500", "143528.397500", "143529.647500", "143530.897500", "143532.147500", "143533.397500", "143534.647500", "143535.897500", "143537.147500", "143538.397500", "143539.647500", "143540.897500", "143542.147500", "143543.397500", "143544.647500", "143545.897500", "143547.147500", "143548.397500", "143549.647500", "143550.897500", "143552.147500", "143553.397500", "143554.647500", "143555.897500", "143557.147500", "143558.397500", "143559.647500", "143600.897500", "143602.147500", "143603.397500", "143604.647500", "143605.897500", "143607.147500", "143608.397500", "143609.647500", "143610.897500", "143612.147500", "143613.397500", "143614.647500", "143615.897500", "143617.147500", "143618.397500", "143619.647500", "143620.897500", "143622.147500", "143623.397500", "143624.647500", "143625.897500", "143627.147500", "143628.397500", "143629.647500", "143630.897500", "143632.147500", "143633.397500", "143634.647500", "143635.897500", "143637.147500", "143638.397500", "143639.647500", "143640.897500", "143642.147500", "143643.397500", "143644.647500", "143645.897500", "143647.147500", "143648.397500", "143649.647500", "143650.897500", "143652.147500", "143653.397500", "143654.647500", "143655.897500", "143657.147500", "143658.397500", "143659.647500", "143700.897500", "143702.147500", "143703.397500", "143704.647500", "143705.897500", "143707.147500", "143708.397500", "143709.647500", "143710.897500", "143712.147500", "143713.397500", "143714.647500", "143715.897500", "143717.147500", "143718.397500", "143719.647500", "143720.897500", "143722.147500"],
      "ContentTime": ["143134.916000", "143136.008000", "143137.256000", "143138.518000", "143139.791000", "143140.987000", "143142.275000", "143143.565000", "143144.767000", "143146.036000", "143147.265000", "143148.486000", "143149.781000", "143151.013000", "143152.250000", "143153.501000", "143154.777000", "143156.014000", "143157.275000", "143158.539000", "143159.770000", "143201.019000", "143202.278000", "143203.521000", "143204.775000", "143206.043000", "143207.273000", "143208.548000", "143209.760000", "143211.010000", "143212.264000", "143213.537000", "143214.771000", "143216.034000", "143217.225000", "143218.503000", "143219.773000", "143221.017000", "143222.279000", "143223.500000", "143224.786000", "143225.974000", "143227.272000", "143228.500000", "143229.742000", "143230.988000", "143232.261000", "143233.498000", "143234.796000", "143235.990000", "143237.301000", "143238.518000", "143239.745000", "143241.046000", "143242.248000", "143243.528000", "143244.755000", "143245.998000", "143247.258000", "143248.532000", "143249.780000", "143251.038000", "143252.279000", "143253.510000", "143254.754000", "143256.011000", "143257.296000", "143258.542000", "143259.750000", "143301.030000", "143302.258000", "143303.517000", "143304.758000", "143306.017000", "143307.278000", "143308.521000", "143309.754000", "143311.004000", "143312.266000", "143313.510000", "143314.769000", "143315.991000", "143317.261000", "143318.503000", "143319.765000", "143321.001000", "143322.280000", "143323.507000", "143324.776000", "143326.019000", "143327.271000", "143328.498000", "143329.723000", "143331.025000", "143332.267000", "143333.485000", "143334.754000", "143336.018000", "143337.261000", "143338.498000", "143339.906000", "143340.991000", "143342.277000", "143343.524000", "143344.781000", "143346.034000", "143347.254000", "143348.507000", "143349.754000", "143351.034000", "143352.297000", "143353.516000", "143354.776000", "143356.033000", "143357.293000", "143358.516000", "143359.767000", "143401.010000", "143402.271000", "143403.526000", "143404.770000", "143406.010000", "143407.260000", "143408.515000", "143409.761000", "143411.025000", "143412.276000", "143413.495000", "143414.773000", "143416.026000", "143417.256000", "143418.540000", "143419.816000", "143421.036000", "143422.268000", "143423.550000", "143424.770000", "143426.026000", "143427.281000", "143428.521000", "143429.752000", "143431.013000", "143432.293000", "143433.533000", "143434.781000", "143436.012000", "143437.275000", "143438.527000", "143439.747000", "143441.022000", "143442.248000", "143443.539000", "143444.771000", "143446.033000", "143447.250000", "143448.521000", "143449.763000", "143451.030000", "143452.263000", "143453.528000", "143454.783000", "143456.011000", "143457.278000", "143458.515000", "143459.784000", "143501.042000", "143502.274000", "143503.539000", "143504.764000", "143506.025000", "143507.261000", "143508.516000", "143509.775000", "143511.026000", "143512.270000", "143513.557000", "143514.775000", "143516.012000", "143517.294000", "143518.520000", "143519.786000", "143521.036000", "143522.251000", "143523.515000", "143524.779000", "143526.024000", "143527.261000", "143528.513000", "143529.761000", "143531.011000", "143532.250000", "143533.548000", "143534.816000", "143536.019000", "143537.237000", "143538.521000", "143539.776000", "143541.020000", "143542.268000", "143543.529000", "143544.776000", "143546.026000", "143547.308000", "143548.528000", "143549.760000", "143550.990000", "143552.229000", "143553.512000", "143554.743000", "143556.036000", "143557.252000", "143558.525000", "143559.747000", "143601.013000", "143602.261000", "143603.523000", "143604.754000", "143606.018000", "143607.279000", "143608.533000", "143609.796000", "143611.019000", "143612.267000", "143613.552000", "143614.753000", "143616.035000", "143617.353000", "143618.501000", "143619.767000", "143621.035000", "143622.260000", "143623.514000", "143624.760000", "143626.002000", "143627.267000", "143628.505000", "143629.776000", "143630.988000", "143632.271000", "143633.516000", "143634.765000", "143636.014000", "143637.266000", "143638.513000", "143639.771000", "143641.032000", "143642.298000", "143643.508000", "143644.755000", "143646.014000", "143647.243000", "143648.516000", "143649.791000", "143651.048000", "143652.252000", "143653.494000", "143654.760000", "143656.002000", "143657.262000", "143658.505000", "143659.758000", "143700.996000", "143702.284000", "143703.533000", "143704.731000", "143706.017000", "143707.273000", "143708.521000", "143709.764000", "143710.974000", "143712.273000", "143713.531000", "143714.786000", "143716.008000", "143717.266000", "143718.503000", "143719.774000", "143720.997000", "143722.291000", "143723.565000"],
      "InstanceCreationTime": ["143134.916000", "143136.008000", "143137.256000", "143138.518000", "143139.791000", "143140.987000", "143142.275000", "143143.565000", "143144.767000", "143146.036000", "143147.265000", "143148.486000", "143149.781000", "143151.013000", "143152.250000", "143153.501000", "143154.777000", "143156.014000", "143157.275000", "143158.539000", "143159.770000", "143201.019000", "143202.278000", "143203.521000", "143204.775000", "143206.043000", "143207.273000", "143208.548000", "143209.760000", "143211.010000", "143212.264000", "143213.537000", "143214.771000", "143216.034000", "143217.225000", "143218.503000", "143219.773000", "143221.017000", "143222.279000", "143223.500000", "143224.786000", "143225.974000", "143227.272000", "143228.500000", "143229.742000", "143230.988000", "143232.261000", "143233.498000", "143234.796000", "143235.990000", "143237.301000", "143238.518000", "143239.745000", "143241.046000", "143242.248000", "143243.528000", "143244.755000", "143245.998000", "143247.258000", "143248.532000", "143249.780000", "143251.038000", "143252.279000", "143253.510000", "143254.754000", "143256.011000", "143257.296000", "143258.542000", "143259.750000", "143301.030000", "143302.258000", "143303.517000", "143304.758000", "143306.017000", "143307.278000", "143308.521000", "143309.754000", "143311.004000", "143312.266000", "143313.510000", "143314.769000", "143315.991000", "143317.261000", "143318.503000", "143319.765000", "143321.001000", "143322.280000", "143323.507000", "143324.776000", "143326.019000", "143327.271000", "143328.498000", "143329.723000", "143331.025000", "143332.267000", "143333.485000", "143334.754000", "143336.018000", "143337.261000", "143338.498000", "143339.906000", "143340.991000", "143342.277000", "143343.524000", "143344.781000", "143346.034000", "143347.254000", "143348.507000", "143349.754000", "143351.034000", "143352.297000", "143353.516000", "143354.776000", "143356.033000", "143357.293000", "143358.516000", "143359.767000", "143401.010000", "143402.271000", "143403.526000", "143404.770000", "143406.010000", "143407.260000", "143408.515000", "143409.761000", "143411.025000", "143412.276000", "143413.495000", "143414.773000", "143416.026000", "143417.256000", "143418.540000", "143419.816000", "143421.036000", "143422.268000", "143423.550000", "143424.770000", "143426.026000", "143427.281000", "143428.521000", "143429.752000", "143431.013000", "143432.293000", "143433.533000", "143434.781000", "143436.012000", "143437.275000", "143438.527000", "143439.747000", "143441.022000", "143442.248000", "143443.539000", "143444.771000", "143446.033000", "143447.250000", "143448.521000", "143449.763000", "143451.030000", "143452.263000", "143453.528000", "143454.783000", "143456.011000", "143457.278000", "143458.515000", "143459.784000", "143501.042000", "143502.274000", "143503.539000", "143504.764000", "143506.025000", "143507.261000", "143508.516000", "143509.775000", "143511.026000", "143512.270000", "143513.557000", "143514.775000", "143516.012000", "143517.294000", "143518.520000", "143519.786000", "143521.036000", "143522.251000", "143523.515000", "143524.779000", "143526.024000", "143527.261000", "143528.513000", "143529.761000", "143531.011000", "143532.250000", "143533.548000", "143534.816000", "143536.019000", "143537.237000", "143538.521000", "143539.776000", "143541.020000", "143542.268000", "143543.529000", "143544.776000", "143546.026000", "143547.308000", "143548.528000", "143549.760000", "143550.990000", "143552.229000", "143553.512000", "143554.743000", "143556.036000", "143557.252000", "143558.525000", "143559.747000", "143601.013000", "143602.261000", "143603.523000", "143604.754000", "143606.018000", "143607.279000", "143608.533000", "143609.796000", "143611.019000", "143612.267000", "143613.552000", "143614.753000", "143616.035000", "143617.353000", "143618.501000", "143619.767000", "143621.035000", "143622.260000", "143623.514000", "143624.760000", "143626.002000", "143627.267000", "143628.505000", "143629.776000", "143630.988000", "143632.271000", "143633.516000", "143634.765000", "143636.014000", "143637.266000", "143638.513000", "143639.771000", "143641.032000", "143642.298000", "143643.508000", "143644.755000", "143646.014000", "143647.243000", "143648.516000", "143649.791000", "143651.048000", "143652.252000", "143653.494000", "143654.760000", "143656.002000", "143657.262000", "143658.505000", "143659.758000", "143700.996000", "143702.284000", "143703.533000", "143704.731000", "143706.017000", "143707.273000", "143708.521000", "143709.764000", "143710.974000", "143712.273000", "143713.531000", "143714.786000", "143716.008000", "143717.266000", "143718.503000", "143719.774000", "143720.997000", "143722.291000", "143723.565000"],
      "InstanceNumber": [1, 2, 3, 4, 5, 6, 7, 8, 9, 10, 11, 12, 13, 14, 15, 16, 17, 18, 19, 20, 21, 22, 23, 24, 25, 26, 27, 28, 29, 30, 31, 32, 33, 34, 35, 36, 37, 38, 39, 40, 41, 42, 43, 44, 45, 46, 47, 48, 49, 50, 51, 52, 53, 54, 55, 56, 57, 58, 59, 60, 61, 62, 63, 64, 65, 66, 67, 68, 69, 70, 71, 72, 73, 74, 75, 76, 77, 78, 79, 80, 81, 82, 83, 84, 85, 86, 87, 88, 89, 90, 91, 92, 93, 94, 95, 96, 97, 98, 99, 100, 101, 102, 103, 104, 105, 106, 107, 108, 109, 110, 111, 112, 113, 114, 115, 116, 117, 118, 119, 120, 121, 122, 123, 124, 125, 126, 127, 128, 129, 130, 131, 132, 133, 134, 135, 136, 137, 138, 139, 140, 141, 142, 143, 144, 145, 146, 147, 148, 149, 150, 151, 152, 153, 154, 155, 156, 157, 158, 159, 160, 161, 162, 163, 164, 165, 166, 167, 168, 169, 170, 171, 172, 173, 174, 175, 176, 177, 178, 179, 180, 181, 182, 183, 184, 185, 186, 187, 188, 189, 190, 191, 192, 193, 194, 195, 196, 197, 198, 199, 200, 201, 202, 203, 204, 205, 206, 207, 208, 209, 210, 211, 212, 213, 214, 215, 216, 217, 218, 219, 220, 221, 222, 223, 224, 225, 226, 227, 228, 229, 230, 231, 232, 233, 234, 235, 236, 237, 238, 239, 240, 241, 242, 243, 244, 245, 246, 247, 248, 249, 250, 251, 252, 253, 254, 255, 256, 257, 258, 259, 260, 261, 262, 263, 264, 265, 266, 267, 268, 269, 270, 271, 272, 273, 274, 275, 276, 277, 278, 279, 280],
      "LargestImagePixelValue": [1132, 1411, 1552, 1390, 1340, 1940, 1909, 1324, 1491, 1031, 926, 1304, 936, 900, 899, 1158, 1331, 1619, 1533, 1318, 1155, 922, 1272, 1465, 1260, 1646, 1094, 1200, 1133, 1132, 1030, 1250, 1001, 1380, 1372, 1241, 1083, 1115, 1464, 1060, 1420, 1236, 1733, 1309, 1049, 1308, 897, 1078, 890, 1072, 1475, 1616, 1202, 1848, 1526, 1135, 997, 1045, 1037, 1133, 1166, 1551, 1557, 1544, 1409, 945, 1380, 980, 975, 1405, 1081, 1239, 1459, 1720, 1481, 1236, 1086, 1398, 901, 1105, 986, 1550, 1411, 1268, 1398, 1155, 917, 897, 1055, 931, 1450, 1631, 1406, 1544, 1022, 924, 997, 904, 1254, 1340, 1532, 1769, 1923, 1538, 1094, 1262, 1458, 1313, 1803, 1340, 1393, 942, 1029, 1156, 1255, 1493, 1740, 1215, 1519, 1275, 1109, 1398, 1052, 1406, 1328, 991, 1089, 906, 933, 1230, 1467, 1497, 1393, 897, 1195, 1230, 1238, 1025, 1088, 1077, 1086, 1293, 1265, 969, 1289, 1408, 943, 1040, 1407, 986, 1300, 1107, 938, 932, 1495, 1514, 1162, 1373, 1031, 951, 919, 948, 950, 1221, 976, 952, 1675, 1650, 1065, 1242, 988, 1003, 1293, 1429, 1863, 1948, 1831, 1798, 1233, 929, 917, 955, 1464, 1349, 1141, 1045, 1188, 932, 1003, 1060, 1227, 1365, 1597, 1276, 1037, 1334, 1090, 1189, 995, 1284, 1084, 995, 1278, 937, 1344, 1479, 1130, 1178, 949, 1349, 1431, 976, 1249, 1717, 906, 936, 911, 1230, 1096, 1240, 1164, 953, 935, 971, 880, 1009, 1363, 1481, 1432, 1656, 1402, 1944, 1447, 1102, 948, 1449, 1301, 1050, 1062, 1253, 1415, 1308, 1125, 959, 923, 955, 1222, 1105, 1368, 1054, 1367, 911, 1389, 1274, 1236, 1217, 1237, 1883, 1245, 1255, 956, 1153, 1008, 1375, 1029, 896, 962, 1137, 884, 917, 1582, 1320, 1382, 1488, 1600, 1359, 903, 889, 1230, 1475],
      "WindowCenter": [414.0, 415.0, 417.0, 415.0, 414.0, 417.0, 416.0, 412.0, 413.0, 409.0, 407.0, 412.0, 409.0, 408.0, 409.0, 412.0, 414.0, 415.0, 414.0, 412.0, 412.0, 410.0, 413.0, 415.0, 412.0, 415.0, 410.0, 411.0, 411.0, 411.0, 410.0, 412.0, 410.0, 414.0, 413.0, 412.0, 411.0, 411.0, 413.0, 410.0, 413.0, 412.0, 415.0, 412.0, 409.0, 412.0, 408.0, 411.0, 409.0, 411.0, 415.0, 415.0, 412.0, 415.0, 413.0, 410.0, 408.0, 410.0, 410.0, 411.0, 412.0, 415.0, 414.0, 414.0, 413.0, 409.0, 413.0, 409.0, 410.0, 414.0, 411.0, 411.0, 413.0, 415.0, 413.0, 411.0, 409.0, 412.0, 408.0, 410.0, 410.0, 414.0, 413.0, 412.0, 412.0, 409.0, 407.0, 407.0, 410.0, 410.0, 414.0, 415.0, 412.0, 412.0, 408.0, 407.0, 409.0, 409.0, 413.0, 414.0, 415.0, 415.0, 414.0, 414.0, 411.0, 412.0, 413.0, 412.0, 414.0, 411.0, 412.0, 407.0, 410.0, 411.0, 412.0, 414.0, 414.0, 411.0, 413.0, 412.0, 410.0, 412.0, 408.0, 411.0, 411.0, 408.0, 410.0, 407.0, 409.0, 412.0, 413.0, 414.0, 413.0, 407.0, 410.0, 411.0, 412.0, 409.0, 410.0, 409.0, 411.0, 412.0, 412.0, 409.0, 412.0, 413.0, 409.0, 410.0, 413.0, 408.0, 412.0, 409.0, 408.0, 409.0, 413.0, 413.0, 410.0, 411.0, 408.0, 407.0, 407.0, 408.0, 408.0, 411.0, 409.0, 409.0, 416.0, 416.0, 410.0, 411.0, 409.0, 410.0, 412.0, 413.0, 414.0, 413.0, 413.0, 412.0, 409.0, 405.0, 406.0, 408.0, 413.0, 411.0, 410.0, 408.0, 410.0, 407.0, 408.0, 410.0, 413.0, 412.0, 413.0, 410.0, 408.0, 411.0, 409.0, 411.0, 409.0, 411.0, 409.0, 409.0, 412.0, 408.0, 412.0, 413.0, 411.0, 411.0, 406.0, 413.0, 413.0, 409.0, 411.0, 413.0, 406.0, 407.0, 408.0, 413.0, 410.0, 411.0, 410.0, 407.0, 408.0, 409.0, 406.0, 411.0, 415.0, 414.0, 413.0, 415.0, 412.0, 413.0, 411.0, 408.0, 406.0, 412.0, 412.0, 410.0, 410.0, 412.0, 413.0, 411.0, 409.0, 406.0, 407.0, 408.0, 411.0, 411.0, 414.0, 410.0, 412.0, 407.0, 411.0, 412.0, 412.0, 411.0, 410.0, 414.0, 411.0, 411.0, 409.0, 411.0, 409.0, 412.0, 408.0, 407.0, 408.0, 411.0, 408.0, 411.0, 416.0, 413.0, 414.0, 414.0, 413.0, 411.0, 406.0, 407.0, 412.0, 412.0],
      "WindowWidth": [876.0, 876.0, 878.0, 874.0, 874.0, 878.0, 876.0, 870.0, 871.0, 865.0, 863.0, 869.0, 865.0, 865.0, 866.0, 871.0, 874.0, 875.0, 872.0, 869.0, 870.0, 867.0, 872.0, 874.0, 871.0, 874.0, 867.0, 868.0, 868.0, 869.0, 868.0, 871.0, 867.0, 873.0, 871.0, 870.0, 869.0, 868.0, 872.0, 868.0, 872.0, 870.0, 874.0, 870.0, 865.0, 869.0, 865.0, 869.0, 866.0, 870.0, 874.0, 875.0, 870.0, 874.0, 872.0, 867.0, 865.0, 868.0, 868.0, 869.0, 870.0, 874.0, 872.0, 872.0, 871.0, 866.0, 871.0, 866.0, 867.0, 873.0, 869.0, 868.0, 872.0, 874.0, 870.0, 868.0, 865.0, 870.0, 864.0, 867.0, 867.0, 874.0, 872.0, 869.0, 870.0, 865.0, 863.0, 863.0, 868.0, 868.0, 874.0, 874.0, 870.0, 870.0, 864.0, 863.0, 866.0, 867.0, 872.0, 873.0, 874.0, 874.0, 872.0, 872.0, 868.0, 869.0, 872.0, 870.0, 872.0, 868.0, 869.0, 862.0, 868.0, 869.0, 871.0, 873.0, 872.0, 869.0, 871.0, 869.0, 867.0, 869.0, 863.0, 868.0, 867.0, 865.0, 868.0, 863.0, 865.0, 870.0, 872.0, 872.0, 871.0, 862.0, 866.0, 868.0, 869.0, 866.0, 866.0, 866.0, 869.0, 871.0, 870.0, 866.0, 869.0, 871.0, 866.0, 867.0, 871.0, 864.0, 869.0, 865.0, 864.0, 866.0, 872.0, 872.0, 867.0, 868.0, 863.0, 862.0, 862.0, 863.0, 865.0, 869.0, 865.0, 867.0, 877.0, 876.0, 867.0, 868.0, 866.0, 867.0, 871.0, 871.0, 872.0, 871.0, 869.0, 869.0, 864.0, 859.0, 860.0, 864.0, 871.0, 869.0, 867.0, 864.0, 867.0, 863.0, 863.0, 868.0, 871.0, 871.0, 870.0, 866.0, 863.0, 867.0, 866.0, 868.0, 866.0, 868.0, 865.0, 866.0, 870.0, 865.0, 870.0, 872.0, 869.0, 869.0, 860.0, 872.0, 872.0, 866.0, 868.0, 871.0, 861.0, 863.0, 864.0, 871.0, 868.0, 868.0, 866.0, 863.0, 865.0, 865.0, 861.0, 869.0, 875.0, 873.0, 872.0, 874.0, 870.0, 871.0, 866.0, 863.0, 860.0, 868.0, 870.0, 867.0, 868.0, 871.0, 871.0, 867.0, 864.0, 861.0, 862.0, 865.0, 868.0, 868.0, 873.0, 867.0, 869.0, 863.0, 868.0, 869.0, 870.0, 869.0, 867.0, 872.0, 868.0, 868.0, 865.0, 869.0, 865.0, 868.0, 863.0, 862.0, 865.0, 869.0, 865.0, 870.0, 876.0, 872.0, 873.0, 872.0, 871.0, 868.0, 861.0, 863.0, 870.0, 870.0]
    },
    "slices": {}
  }
}