{
  "AcquisitionMatrixPE": 96,
  "AcquisitionNumber": 1,
  "AcquisitionTime": "14:06:26.462500",
  "BandwidthPerPixelPhaseEncode": 18.939,
  "BaseResolution": 96,
  "BodyPartExamined": "BRAIN",
  "ConsistencyInfo": "N4_VE11C_LATEST_20160120",
  "ConversionSoftware": "dcm2niix",
  "ConversionSoftwareVersion": "v1.0.20170923 (OpenJPEG build) GCC6.3.0",
  "DerivedVendorReportedEchoSpacing": 0.000550011,
  "DeviceSerialNumber": "66112",
  "DwellTime": 2.3e-06,
  "EchoTime": 0.033,
  "EchoTrainLength": 96,
  "EffectiveEchoSpacing": 0.000550011,
  "FlipAngle": 64,
  "ImageType": [
    "ORIGINAL",
    "PRIMARY",
    "FMRI",
    "NONE",
    "ND",
    "NORM",
    "MOSAIC"
],
  "InstitutionAddress": "Maynard_3_Hanover_NH_US_03755",
  "InstitutionName": "Dartmouth_College_-_PBS",
  "MagneticFieldStrength": 3,
  "Manufacturer": "Siemens",
  "ManufacturersModelName": "Prisma",
  "Modality": "MR",
  "MultibandAccelerationFactor": 4,
  "PartialFourier": 1,
  "PercentPhaseFOV": 100,
  "PhaseEncodingDirection": "j-",
  "PhaseEncodingSteps": 96,
  "PhaseResolution": 1,
  "ProcedureStepDescription": "Gobbini_Matteo_1017_famface-angles",
  "ProtocolName": "func_run-07_task-str1back",
  "PulseSequenceDetails": "%SiemensSeq%_ep2d_bold",
  "ReceiveCoilActiveElements": "HEA;HEP",
  "ReceiveCoilName": "Head_32",
  "ReconMatrixPE": 96,
  "RepetitionTime": 1.25,
  "ScanOptions": "FS",
  "ScanningSequence": "EP",
  "SequenceName": "_epfid2d1_96",
  "SequenceVariant": "SK",
  "SeriesDescription": "func_run-07_task-str1back",
  "SliceTiming": [0.88, 0, 0.615, 0.0875, 0.7025, 0.175, 0.79, 0.3525, 0.9675, 0.44, 1.055, 0.5275, 1.1425, 0.265, 0.88, 0, 0.615, 0.0875, 0.7025, 0.175, 0.79, 0.3525, 0.9675, 0.44, 1.055, 0.5275, 1.1425, 0.265, 0.88, 0, 0.615, 0.0875, 0.7025, 0.175, 0.79, 0.3525, 0.9675, 0.44, 1.055, 0.5275, 1.1425, 0.265, 0.88, 0, 0.615, 0.0875, 0.7025, 0.175, 0.79, 0.3525, 0.9675, 0.44, 1.055, 0.5275, 1.1425, 0.265],
  "SoftwareVersions": "syngo_MR_E11",
  "StationName": "AWP66112",
  "TaskName": "str1back",
  "TotalReadoutTime": 0.0522511,
  "dcmmeta_affine": [
    [-2.4929685592651367, 0.14112453162670135, -0.12325407564640045, 117.64234924316406],
    [0.12596599757671356, 2.4797537326812744, 0.2914693355560303, -114.42278289794922],
    [-0.13870929181575775, -0.28443923592567444, 2.4798898696899414, -27.26930809020996],
    [0.0, 0.0, 0.0, 1.0]
],
  "dcmmeta_reorient_transform": [
    [0.0, -1.0, 0.0, 95.0],
    [1.0, 0.0, 0.0, 0.0],
    [0.0, 0.0, 1.0, 0.0],
    [0.0, 0.0, 0.0, 1.0]
],
  "dcmmeta_shape": [96, 96, 56, 280],
  "dcmmeta_slice_dim": 2,
  "dcmmeta_version": 0.6,
  "global": {
    "const": {
      "AccessionNumber": "A000383",
      "AcquisitionMatrix": [96, 0, 0, 96],
      "AngioFlag": "N",
      "BitsAllocated": 16,
      "BitsStored": 12,
      "BodyPartExamined": "BRAIN",
      "Columns": 768,
      "EchoNumbers": 1,
      "EchoTime": 33.0,
      "EchoTrainLength": 96,
      "FlipAngle": 64.0,
      "HighBit": 11,
      "ImageOrientationPatient": [0.99718742878056, -0.0503863988316, -0.0554837155821, 0.05644981002514, 0.9919014620432, 0.1137756939978],
      "ImagePositionPatient": [-1016.1044621136, -912.02646729015, -103.25629689871],
      "ImageType": [
        "ORIGINAL",
        "PRIMARY",
        "FMRI",
        "NONE",
        "ND",
        "NORM",
        "MOSAIC"
],
      "ImagedNucleus": "1H",
      "ImagingFrequency": 123.252306,
      "InPlanePhaseEncodingDirection": "COL",
      "MRAcquisitionType": "2D",
      "MagneticFieldStrength": 3.0,
      "Manufacturer": "SIEMENS",
      "ManufacturerModelName": "Prisma",
      "Modality": "MR",
      "NumberOfAverages": 1.0,
      "NumberOfPhaseEncodingSteps": 96,
      "PercentPhaseFieldOfView": 100.0,
      "PercentSampling": 100.0,
      "PerformedProcedureStepStartTime": "130433.400000",
      "PhotometricInterpretation": "MONOCHROME2",
      "PixelBandwidth": 2265.0,
      "PixelRepresentation": 0,
      "PixelSpacing": [2.5, 2.5],
      "PositionReferenceIndicator": "",
      "ProtocolName": "func_run-07_task-str1back",
      "RepetitionTime": 1250.0,
      "Rows": 768,
      "SAR": 0.06336566567384,
      "SamplesPerPixel": 1,
      "ScanOptions": "FS",
      "ScanningSequence": "EP",
      "SequenceName": "*epfid2d1_96",
      "SequenceVariant": "SK",
      "SeriesDescription": "func_run-07_task-str1back",
      "SeriesNumber": 50,
      "SeriesTime": "140627.874000",
      "SliceLocation": -46.190205762839,
      "SliceThickness": 2.5,
      "SmallestImagePixelValue": 0,
      "SoftwareVersions": "syngo MR E11",
      "SpacingBetweenSlices": 2.4999999625902,
      "SpecificCharacterSet": "ISO_IR 100",
      "StudyID": "1",
      "StudyTime": "130433.341000",
      "TransmitCoilName": "Body",
      "VariableFlipAngleFlag": "N",
      "WindowCenterWidthExplanation": "Algo1",
      "dBdt": 0.0},
    "slices": {}
  },
  "time": {
    "samples": {
      "AcquisitionNumber": [1, 2, 3, 4, 5, 6, 7, 8, 9, 10, 11, 12, 13, 14, 15, 16, 17, 18, 19, 20, 21, 22, 23, 24, 25, 26, 27, 28, 29, 30, 31, 32, 33, 34, 35, 36, 37, 38, 39, 40, 41, 42, 43, 44, 45, 46, 47, 48, 49, 50, 51, 52, 53, 54, 55, 56, 57, 58, 59, 60, 61, 62, 63, 64, 65, 66, 67, 68, 69, 70, 71, 72, 73, 74, 75, 76, 77, 78, 79, 80, 81, 82, 83, 84, 85, 86, 87, 88, 89, 90, 91, 92, 93, 94, 95, 96, 97, 98, 99, 100, 101, 102, 103, 104, 105, 106, 107, 108, 109, 110, 111, 112, 113, 114, 115, 116, 117, 118, 119, 120, 121, 122, 123, 124, 125, 126, 127, 128, 129, 130, 131, 132, 133, 134, 135, 136, 137, 138, 139, 140, 141, 142, 143, 144, 145, 146, 147, 148, 149, 150, 151, 152, 153, 154, 155, 156, 157, 158, 159, 160, 161, 162, 163, 164, 165, 166, 167, 168, 169, 170, 171, 172, 173, 174, 175, 176, 177, 178, 179, 180, 181, 182, 183, 184, 185, 186, 187, 188, 189, 190, 191, 192, 193, 194, 195, 196, 197, 198, 199, 200, 201, 202, 203, 204, 205, 206, 207, 208, 209, 210, 211, 212, 213, 214, 215, 216, 217, 218, 219, 220, 221, 222, 223, 224, 225, 226, 227, 228, 229, 230, 231, 232, 233, 234, 235, 236, 237, 238, 239, 240, 241, 242, 243, 244, 245, 246, 247, 248, 249, 250, 251, 252, 253, 254, 255, 256, 257, 258, 259, 260, 261, 262, 263, 264, 265, 266, 267, 268, 269, 270, 271, 272, 273, 274, 275, 276, 277, 278, 279, 280],
      "AcquisitionTime": ["140626.462500", "140627.712500", "140628.962500", "140630.212500", "140631.462500", "140632.712500", "140633.962500", "140635.212500", "140636.462500", "140637.712500", "140638.962500", "140640.212500", "140641.462500", "140642.712500", "140643.962500", "140645.212500", "140646.462500", "140647.712500", "140648.962500", "140650.212500", "140651.462500", "140652.712500", "140653.962500", "140655.212500", "140656.462500", "140657.712500", "140658.962500", "140700.212500", "140701.462500", "140702.712500", "140703.962500", "140705.212500", "140706.462500", "140707.712500", "140708.962500", "140710.212500", "140711.462500", "140712.712500", "140713.962500", "140715.212500", "140716.462500", "140717.712500", "140718.962500", "140720.212500", "140721.462500", "140722.712500", "140723.962500", "140725.212500", "140726.462500", "140727.712500", "140728.962500", "140730.212500", "140731.462500", "140732.712500", "140733.962500", "140735.212500", "140736.462500", "140737.712500", "140738.962500", "140740.212500", "140741.462500", "140742.712500", "140743.962500", "140745.212500", "140746.462500", "140747.712500", "140748.962500", "140750.212500", "140751.462500", "140752.712500", "140753.962500", "140755.212500", "140756.462500", "140757.712500", "140758.962500", "140800.212500", "140801.462500", "140802.712500", "140803.962500", "140805.212500", "140806.462500", "140807.712500", "140808.962500", "140810.212500", "140811.462500", "140812.712500", "140813.962500", "140815.212500", "140816.462500", "140817.712500", "140818.962500", "140820.212500", "140821.462500", "140822.712500", "140823.962500", "140825.212500", "140826.462500", "140827.712500", "140828.962500", "140830.212500", "140831.462500", "140832.712500", "140833.962500", "140835.212500", "140836.462500", "140837.712500", "140838.962500", "140840.212500", "140841.462500", "140842.712500", "140843.962500", "140845.212500", "140846.462500", "140847.712500", "140848.962500", "140850.212500", "140851.462500", "140852.712500", "140853.962500", "140855.212500", "140856.462500", "140857.712500", "140858.962500", "140900.212500", "140901.462500", "140902.712500", "140903.962500", "140905.212500", "140906.462500", "140907.712500", "140908.962500", "140910.212500", "140911.462500", "140912.712500", "140913.962500", "140915.212500", "140916.462500", "140917.712500", "140918.962500", "140920.212500", "140921.462500", "140922.712500", "140923.962500", "140925.212500", "140926.462500", "140927.712500", "140928.962500", "140930.212500", "140931.462500", "140932.712500", "140933.962500", "140935.212500", "140936.462500", "140937.712500", "140938.962500", "140940.212500", "140941.462500", "140942.712500", "140943.962500", "140945.212500", "140946.462500", "140947.712500", "140948.962500", "140950.212500", "140951.462500", "140952.712500", "140953.962500", "140955.212500", "140956.462500", "140957.712500", "140958.962500", "141000.212500", "141001.462500", "141002.712500", "141003.962500", "141005.212500", "141006.462500", "141007.712500", "141008.962500", "141010.212500", "141011.462500", "141012.712500", "141013.962500", "141015.212500", "141016.462500", "141017.712500", "141018.962500", "141020.212500", "141021.462500", "141022.712500", "141023.962500", "141025.212500", "141026.462500", "141027.712500", "141028.962500", "141030.212500", "141031.462500", "141032.712500", "141033.962500", "141035.212500", "141036.462500", "141037.712500", "141038.962500", "141040.212500", "141041.462500", "141042.712500", "141043.962500", "141045.212500", "141046.462500", "141047.712500", "141048.962500", "141050.212500", "141051.462500", "141052.712500", "141053.962500", "141055.212500", "141056.462500", "141057.712500", "141058.962500", "141100.212500", "141101.462500", "141102.712500", "141103.962500", "141105.212500", "141106.462500", "141107.712500", "141108.962500", "141110.212500", "141111.462500", "141112.712500", "141113.962500", "141115.212500", "141116.462500", "141117.712500", "141118.962500", "141120.212500", "141121.462500", "141122.712500", "141123.962500", "141125.212500", "141126.462500", "141127.712500", "141128.962500", "141130.212500", "141131.462500", "141132.712500", "141133.962500", "141135.212500", "141136.462500", "141137.712500", "141138.962500", "141140.212500", "141141.462500", "141142.712500", "141143.962500", "141145.212500", "141146.462500", "141147.712500", "141148.962500", "141150.212500", "141151.462500", "141152.712500", "141153.962500", "141155.212500", "141156.462500", "141157.712500", "141158.962500", "141200.212500", "141201.462500", "141202.712500", "141203.962500", "141205.212500", "141206.462500", "141207.712500", "141208.962500", "141210.212500", "141211.462500", "141212.712500", "141213.962500", "141215.212500"],
      "ContentTime": ["140627.877000", "140628.965000", "140630.192000", "140631.468000", "140632.701000", "140633.936000", "140635.230000", "140636.487000", "140637.723000", "140638.920000", "140640.193000", "140641.457000", "140642.710000", "140643.935000", "140645.204000", "140646.453000", "140647.703000", "140648.930000", "140650.185000", "140651.451000", "140652.701000", "140653.949000", "140655.222000", "140656.464000", "140657.705000", "140658.936000", "140700.192000", "140701.458000", "140702.689000", "140703.955000", "140705.284000", "140706.446000", "140707.696000", "140708.968000", "140710.191000", "140711.457000", "140712.710000", "140713.935000", "140715.219000", "140716.468000", "140717.728000", "140718.974000", "140720.219000", "140721.462000", "140722.705000", "140723.963000", "140725.213000", "140726.429000", "140727.691000", "140728.924000", "140730.206000", "140731.444000", "140732.730000", "140733.975000", "140735.208000", "140736.467000", "140737.684000", "140738.922000", "140740.189000", "140741.469000", "140742.685000", "140743.938000", "140745.211000", "140746.453000", "140747.695000", "140748.938000", "140750.208000", "140751.443000", "140752.684000", "140753.955000", "140755.204000", "140756.456000", "140757.711000", "140758.940000", "140800.174000", "140801.456000", "140802.719000", "140803.960000", "140805.209000", "140806.423000", "140807.697000", "140808.967000", "140810.197000", "140811.435000", "140812.678000", "140813.929000", "140815.199000", "140816.434000", "140817.689000", "140818.943000", "140820.212000", "140821.472000", "140822.692000", "140823.945000", "140825.226000", "140826.411000", "140827.687000", "140828.942000", "140830.196000", "140831.456000", "140832.746000", "140833.967000", "140835.222000", "140836.460000", "140837.716000", "140838.970000", "140840.206000", "140841.457000", "140842.708000", "140843.939000", "140845.211000", "140846.479000", "140847.673000", "140848.973000", "140850.230000", "140851.475000", "140852.725000", "140853.976000", "140855.217000", "140856.494000", "140857.750000", "140858.967000", "140900.187000", "140901.473000", "140902.720000", "140903.954000", "140905.195000", "140906.471000", "140907.724000", "140908.925000", "140910.209000", "140911.461000", "140912.732000", "140913.975000", "140915.193000", "140916.498000", "140917.704000", "140918.962000", "140920.193000", "140921.465000", "140922.712000", "140923.973000", "140925.200000", "140926.444000", "140927.717000", "140928.956000", "140930.225000", "140931.421000", "140932.718000", "140933.963000", "140935.223000", "140936.482000", "140937.733000", "140938.969000", "140940.202000", "140941.483000", "140942.696000", "140943.954000", "140945.224000", "140946.454000", "140947.706000", "140948.953000", "140950.197000", "140951.445000", "140952.718000", "140953.960000", "140955.225000", "140956.453000", "140957.716000", "140958.963000", "141000.209000", "141001.461000", "141002.717000", "141003.945000", "141005.200000", "141006.404000", "141007.736000", "141008.974000", "141010.210000", "141011.433000", "141012.707000", "141013.950000", "141015.210000", "141016.461000", "141017.707000", "141018.969000", "141020.154000", "141021.447000", "141022.709000", "141023.949000", "141025.231000", "141026.441000", "141027.726000", "141028.961000", "141030.221000", "141031.474000", "141032.735000", "141033.970000", "141035.209000", "141036.474000", "141037.703000", "141038.953000", "141040.192000", "141041.473000", "141042.709000", "141043.958000", "141045.217000", "141046.416000", "141047.717000", "141048.948000", "141050.208000", "141051.453000", "141052.685000", "141053.964000", "141055.224000", "141056.463000", "141057.715000", "141058.964000", "141100.220000", "141101.478000", "141102.704000", "141103.941000", "141105.159000", "141106.449000", "141107.722000", "141108.980000", "141110.208000", "141111.465000", "141112.693000", "141113.964000", "141115.216000", "141116.468000", "141117.719000", "141118.948000", "141120.187000", "141121.457000", "141122.702000", "141123.925000", "141125.150000", "141126.447000", "141127.727000", "141128.930000", "141130.236000", "141131.460000", "141132.708000", "141133.952000", "141135.198000", "141136.451000", "141137.713000", "141138.974000", "141140.204000", "141141.443000", "141142.673000", "141143.946000", "141145.223000", "141146.472000", "141147.715000", "141148.947000", "141150.198000", "141151.473000", "141152.696000", "141153.955000", "141155.219000", "141156.457000", "141157.720000", "141158.962000", "141200.187000", "141201.473000", "141202.728000", "141203.965000", "141205.209000", "141206.473000", "141207.695000", "141208.972000", "141210.194000", "141211.453000", "141212.730000", "141213.964000", "141215.246000", "141216.510000"],
      "InstanceCreationTime": ["140627.877000", "140628.965000", "140630.192000", "140631.468000", "140632.701000", "140633.936000", "140635.230000", "140636.487000", "140637.723000", "140638.920000", "140640.193000", "140641.457000", "140642.710000", "140643.935000", "140645.204000", "140646.453000", "140647.703000", "140648.930000", "140650.185000", "140651.451000", "140652.701000", "140653.949000", "140655.222000", "140656.464000", "140657.705000", "140658.936000", "140700.192000", "140701.458000", "140702.689000", "140703.955000", "140705.284000", "140706.446000", "140707.696000", "140708.968000", "140710.191000", "140711.457000", "140712.710000", "140713.935000", "140715.219000", "140716.468000", "140717.728000", "140718.974000", "140720.219000", "140721.462000", "140722.705000", "140723.963000", "140725.213000", "140726.429000", "140727.691000", "140728.924000", "140730.206000", "140731.444000", "140732.730000", "140733.975000", "140735.208000", "140736.467000", "140737.684000", "140738.922000", "140740.189000", "140741.469000", "140742.685000", "140743.938000", "140745.211000", "140746.453000", "140747.695000", "140748.938000", "140750.208000", "140751.443000", "140752.684000", "140753.955000", "140755.204000", "140756.456000", "140757.711000", "140758.940000", "140800.174000", "140801.456000", "140802.719000", "140803.960000", "140805.209000", "140806.423000", "140807.697000", "140808.967000", "140810.197000", "140811.435000", "140812.678000", "140813.929000", "140815.199000", "140816.434000", "140817.689000", "140818.943000", "140820.212000", "140821.472000", "140822.692000", "140823.945000", "140825.226000", "140826.411000", "140827.687000", "140828.942000", "140830.196000", "140831.456000", "140832.746000", "140833.967000", "140835.222000", "140836.460000", "140837.716000", "140838.970000", "140840.206000", "140841.457000", "140842.708000", "140843.939000", "140845.211000", "140846.479000", "140847.673000", "140848.973000", "140850.230000", "140851.475000", "140852.725000", "140853.976000", "140855.217000", "140856.494000", "140857.750000", "140858.967000", "140900.187000", "140901.473000", "140902.720000", "140903.954000", "140905.195000", "140906.471000", "140907.724000", "140908.925000", "140910.209000", "140911.461000", "140912.732000", "140913.975000", "140915.193000", "140916.498000", "140917.704000", "140918.962000", "140920.193000", "140921.465000", "140922.712000", "140923.973000", "140925.200000", "140926.444000", "140927.717000", "140928.956000", "140930.225000", "140931.421000", "140932.718000", "140933.963000", "140935.223000", "140936.482000", "140937.733000", "140938.969000", "140940.202000", "140941.483000", "140942.696000", "140943.954000", "140945.224000", "140946.454000", "140947.706000", "140948.953000", "140950.197000", "140951.445000", "140952.718000", "140953.960000", "140955.225000", "140956.453000", "140957.716000", "140958.963000", "141000.209000", "141001.461000", "141002.717000", "141003.945000", "141005.200000", "141006.404000", "141007.736000", "141008.974000", "141010.210000", "141011.433000", "141012.707000", "141013.950000", "141015.210000", "141016.461000", "141017.707000", "141018.969000", "141020.154000", "141021.447000", "141022.709000", "141023.949000", "141025.231000", "141026.441000", "141027.726000", "141028.961000", "141030.221000", "141031.474000", "141032.735000", "141033.970000", "141035.209000", "141036.474000", "141037.703000", "141038.953000", "141040.192000", "141041.473000", "141042.709000", "141043.958000", "141045.217000", "141046.416000", "141047.717000", "141048.948000", "141050.208000", "141051.453000", "141052.685000", "141053.964000", "141055.224000", "141056.463000", "141057.715000", "141058.964000", "141100.220000", "141101.478000", "141102.704000", "141103.941000", "141105.159000", "141106.449000", "141107.722000", "141108.980000", "141110.208000", "141111.465000", "141112.693000", "141113.964000", "141115.216000", "141116.468000", "141117.719000", "141118.948000", "141120.187000", "141121.457000", "141122.702000", "141123.925000", "141125.150000", "141126.447000", "141127.727000", "141128.930000", "141130.236000", "141131.460000", "141132.708000", "141133.952000", "141135.198000", "141136.451000", "141137.713000", "141138.974000", "141140.204000", "141141.443000", "141142.673000", "141143.946000", "141145.223000", "141146.472000", "141147.715000", "141148.947000", "141150.198000", "141151.473000", "141152.696000", "141153.955000", "141155.219000", "141156.457000", "141157.720000", "141158.962000", "141200.187000", "141201.473000", "141202.728000", "141203.965000", "141205.209000", "141206.473000", "141207.695000", "141208.972000", "141210.194000", "141211.453000", "141212.730000", "141213.964000", "141215.246000", "141216.510000"],
      "InstanceNumber": [1, 2, 3, 4, 5, 6, 7, 8, 9, 10, 11, 12, 13, 14, 15, 16, 17, 18, 19, 20, 21, 22, 23, 24, 25, 26, 27, 28, 29, 30, 31, 32, 33, 34, 35, 36, 37, 38, 39, 40, 41, 42, 43, 44, 45, 46, 47, 48, 49, 50, 51, 52, 53, 54, 55, 56, 57, 58, 59, 60, 61, 62, 63, 64, 65, 66, 67, 68, 69, 70, 71, 72, 73, 74, 75, 76, 77, 78, 79, 80, 81, 82, 83, 84, 85, 86, 87, 88, 89, 90, 91, 92, 93, 94, 95, 96, 97, 98, 99, 100, 101, 102, 103, 104, 105, 106, 107, 108, 109, 110, 111, 112, 113, 114, 115, 116, 117, 118, 119, 120, 121, 122, 123, 124, 125, 126, 127, 128, 129, 130, 131, 132, 133, 134, 135, 136, 137, 138, 139, 140, 141, 142, 143, 144, 145, 146, 147, 148, 149, 150, 151, 152, 153, 154, 155, 156, 157, 158, 159, 160, 161, 162, 163, 164, 165, 166, 167, 168, 169, 170, 171, 172, 173, 174, 175, 176, 177, 178, 179, 180, 181, 182, 183, 184, 185, 186, 187, 188, 189, 190, 191, 192, 193, 194, 195, 196, 197, 198, 199, 200, 201, 202, 203, 204, 205, 206, 207, 208, 209, 210, 211, 212, 213, 214, 215, 216, 217, 218, 219, 220, 221, 222, 223, 224, 225, 226, 227, 228, 229, 230, 231, 232, 233, 234, 235, 236, 237, 238, 239, 240, 241, 242, 243, 244, 245, 246, 247, 248, 249, 250, 251, 252, 253, 254, 255, 256, 257, 258, 259, 260, 261, 262, 263, 264, 265, 266, 267, 268, 269, 270, 271, 272, 273, 274, 275, 276, 277, 278, 279, 280],
      "LargestImagePixelValue": [1957, 1718, 1753, 1507, 1578, 963, 1434, 1158, 1413, 1454, 968, 1614, 1341, 1416, 1047, 1027, 1199, 1050, 1486, 1496, 1254, 1546, 1337, 1488, 1315, 1003, 1501, 1509, 1104, 1502, 1347, 1572, 1448, 976, 1508, 1168, 1568, 1313, 1457, 1508, 1395, 1380, 1459, 968, 1445, 964, 1502, 1297, 1325, 1283, 1426, 1571, 1424, 1443, 1111, 1361, 1481, 1253, 1482, 1405, 1430, 1402, 1245, 1429, 1144, 1333, 1526, 1030, 1504, 1182, 1378, 1385, 1298, 1529, 1349, 1511, 1326, 1431, 1397, 1376, 1149, 1084, 1016, 943, 1062, 1434, 1471, 1531, 1612, 1554, 1205, 1242, 1228, 1548, 1381, 1461, 1544, 1199, 1513, 1202, 1165, 1192, 1149, 1286, 1247, 982, 1652, 992, 1170, 1582, 1191, 1580, 1561, 1669, 1877, 1221, 1432, 1353, 1448, 1572, 1099, 1488, 1209, 1450, 1193, 1263, 1281, 1056, 1416, 1295, 1491, 1256, 1484, 1372, 1134, 1554, 988, 1119, 1480, 1006, 1678, 1428, 1410, 1261, 922, 1331, 1082, 1605, 1529, 1432, 1271, 977, 1411, 989, 1287, 1406, 1440, 1428, 1626, 1101, 1502, 1248, 1357, 1161, 1343, 1351, 1352, 1372, 994, 1271, 967, 1286, 1473, 1084, 1537, 1412, 1379, 1307, 1319, 1334, 1403, 1120, 1025, 1154, 1079, 1410, 1449, 1438, 1417, 1142, 1173, 1183, 1277, 1356, 1186, 1325, 1174, 1154, 1320, 1393, 1595, 953, 1462, 1329, 1419, 1610, 1071, 1354, 1304, 1553, 1569, 1125, 1092, 1357, 1355, 1392, 1556, 1211, 1550, 1236, 1325, 1542, 1083, 1161, 1372, 1521, 1626, 1085, 1528, 1338, 1217, 965, 1477, 1258, 1405, 1109, 1357, 1465, 1121, 1384, 1317, 987, 1495, 1395, 1217, 1507, 1110, 1451, 1266, 1570, 1274, 1288, 1469, 1136, 1420, 1178, 1417, 1280, 1508, 1194, 1154, 1566, 1163, 1451, 1324, 1469, 1501, 1073, 1376, 1214, 1405, 913, 1112, 1285, 1274, 1783, 1548, 1456, 1685, 1079],
      "WindowCenter": [419.0, 416.0, 415.0, 413.0, 413.0, 408.0, 413.0, 411.0, 413.0, 414.0, 409.0, 414.0, 413.0, 413.0, 410.0, 410.0, 412.0, 411.0, 415.0, 415.0, 413.0, 414.0, 413.0, 414.0, 413.0, 410.0, 414.0, 415.0, 411.0, 414.0, 413.0, 414.0, 413.0, 409.0, 413.0, 411.0, 414.0, 412.0, 413.0, 413.0, 413.0, 413.0, 413.0, 409.0, 413.0, 409.0, 414.0, 413.0, 413.0, 412.0, 413.0, 414.0, 413.0, 413.0, 410.0, 413.0, 413.0, 412.0, 413.0, 413.0, 413.0, 413.0, 412.0, 413.0, 411.0, 413.0, 414.0, 410.0, 414.0, 411.0, 413.0, 413.0, 412.0, 413.0, 413.0, 414.0, 412.0, 413.0, 412.0, 412.0, 410.0, 410.0, 410.0, 409.0, 412.0, 414.0, 414.0, 414.0, 414.0, 414.0, 411.0, 412.0, 412.0, 414.0, 413.0, 413.0, 414.0, 411.0, 413.0, 410.0, 411.0, 411.0, 411.0, 412.0, 413.0, 410.0, 415.0, 411.0, 411.0, 415.0, 413.0, 414.0, 415.0, 414.0, 415.0, 411.0, 413.0, 413.0, 413.0, 414.0, 409.0, 412.0, 411.0, 412.0, 411.0, 411.0, 412.0, 410.0, 413.0, 413.0, 413.0, 412.0, 413.0, 412.0, 411.0, 414.0, 409.0, 411.0, 414.0, 410.0, 414.0, 414.0, 413.0, 412.0, 408.0, 413.0, 411.0, 415.0, 414.0, 412.0, 411.0, 409.0, 413.0, 410.0, 413.0, 414.0, 414.0, 413.0, 415.0, 410.0, 413.0, 412.0, 413.0, 411.0, 412.0, 412.0, 412.0, 412.0, 409.0, 413.0, 410.0, 413.0, 414.0, 410.0, 413.0, 413.0, 412.0, 412.0, 412.0, 412.0, 413.0, 410.0, 410.0, 411.0, 411.0, 414.0, 414.0, 414.0, 412.0, 410.0, 411.0, 412.0, 413.0, 413.0, 412.0, 413.0, 412.0, 412.0, 413.0, 411.0, 416.0, 410.0, 414.0, 414.0, 414.0, 415.0, 411.0, 414.0, 413.0, 414.0, 414.0, 410.0, 410.0, 413.0, 413.0, 414.0, 414.0, 412.0, 414.0, 412.0, 412.0, 414.0, 410.0, 411.0, 414.0, 413.0, 414.0, 410.0, 413.0, 412.0, 411.0, 409.0, 414.0, 412.0, 413.0, 411.0, 413.0, 413.0, 411.0, 413.0, 413.0, 409.0, 414.0, 414.0, 411.0, 414.0, 411.0, 414.0, 412.0, 414.0, 413.0, 412.0, 414.0, 411.0, 414.0, 412.0, 413.0, 412.0, 413.0, 411.0, 411.0, 415.0, 411.0, 413.0, 413.0, 413.0, 413.0, 410.0, 413.0, 412.0, 413.0, 409.0, 411.0, 413.0, 413.0, 415.0, 414.0, 413.0, 415.0, 410.0],
      "WindowWidth": [883.0, 876.0, 875.0, 871.0, 871.0, 865.0, 870.0, 869.0, 872.0, 873.0, 865.0, 872.0, 871.0, 871.0, 866.0, 867.0, 869.0, 869.0, 875.0, 874.0, 872.0, 873.0, 871.0, 873.0, 871.0, 867.0, 873.0, 874.0, 870.0, 873.0, 871.0, 872.0, 871.0, 865.0, 871.0, 868.0, 872.0, 870.0, 872.0, 872.0, 872.0, 871.0, 871.0, 865.0, 872.0, 867.0, 873.0, 871.0, 871.0, 870.0, 872.0, 872.0, 871.0, 871.0, 867.0, 871.0, 872.0, 870.0, 872.0, 871.0, 871.0, 872.0, 869.0, 870.0, 869.0, 871.0, 873.0, 868.0, 872.0, 869.0, 871.0, 871.0, 871.0, 872.0, 870.0, 872.0, 870.0, 871.0, 869.0, 870.0, 867.0, 867.0, 867.0, 867.0, 870.0, 874.0, 872.0, 874.0, 873.0, 872.0, 868.0, 870.0, 869.0, 872.0, 872.0, 872.0, 873.0, 869.0, 871.0, 867.0, 867.0, 868.0, 868.0, 870.0, 871.0, 867.0, 875.0, 868.0, 869.0, 875.0, 872.0, 874.0, 874.0, 873.0, 875.0, 868.0, 870.0, 871.0, 870.0, 872.0, 866.0, 870.0, 868.0, 870.0, 868.0, 869.0, 870.0, 867.0, 872.0, 871.0, 872.0, 870.0, 871.0, 870.0, 868.0, 872.0, 866.0, 868.0, 874.0, 868.0, 874.0, 872.0, 871.0, 869.0, 864.0, 871.0, 869.0, 874.0, 873.0, 870.0, 868.0, 865.0, 871.0, 868.0, 871.0, 873.0, 874.0, 872.0, 874.0, 868.0, 872.0, 870.0, 871.0, 869.0, 870.0, 871.0, 870.0, 870.0, 866.0, 871.0, 867.0, 871.0, 872.0, 868.0, 872.0, 871.0, 870.0, 870.0, 870.0, 870.0, 871.0, 867.0, 867.0, 869.0, 869.0, 873.0, 872.0, 872.0, 870.0, 867.0, 869.0, 870.0, 871.0, 872.0, 870.0, 871.0, 870.0, 870.0, 872.0, 867.0, 877.0, 867.0, 874.0, 873.0, 873.0, 875.0, 869.0, 872.0, 872.0, 873.0, 873.0, 868.0, 868.0, 871.0, 871.0, 873.0, 873.0, 870.0, 872.0, 870.0, 870.0, 873.0, 868.0, 869.0, 872.0, 872.0, 873.0, 867.0, 872.0, 869.0, 869.0, 866.0, 872.0, 870.0, 871.0, 868.0, 872.0, 871.0, 868.0, 871.0, 872.0, 867.0, 873.0, 872.0, 869.0, 873.0, 869.0, 872.0, 870.0, 872.0, 871.0, 869.0, 872.0, 869.0, 872.0, 870.0, 871.0, 870.0, 872.0, 869.0, 869.0, 874.0, 869.0, 871.0, 871.0, 871.0, 872.0, 867.0, 871.0, 870.0, 872.0, 866.0, 869.0, 873.0, 872.0, 875.0, 873.0, 871.0, 873.0, 868.0]
    },
    "slices": {}
  }
}