{
  "AcquisitionMatrixPE": 96,
  "AcquisitionNumber": 1,
  "AcquisitionTime": "13:52:3.112500",
  "BandwidthPerPixelPhaseEncode": 18.939,
  "BaseResolution": 96,
  "BodyPartExamined": "BRAIN",
  "ConsistencyInfo": "N4_VE11C_LATEST_20160120",
  "ConversionSoftware": "dcm2niix",
  "ConversionSoftwareVersion": "v1.0.20170923 (OpenJPEG build) GCC6.3.0",
  "DerivedVendorReportedEchoSpacing": 0.000550011,
  "DeviceSerialNumber": "66112",
  "DwellTime": 2.3e-06,
  "EchoTime": 0.033,
  "EchoTrainLength": 96,
  "EffectiveEchoSpacing": 0.000550011,
  "FlipAngle": 64,
  "ImageType": [
    "ORIGINAL",
    "PRIMARY",
    "FMRI",
    "NONE",
    "ND",
    "NORM",
    "MOSAIC"
],
  "InstitutionAddress": "Maynard_3_Hanover_NH_US_03755",
  "InstitutionName": "Dartmouth_College_-_PBS",
  "MagneticFieldStrength": 3,
  "Manufacturer": "Siemens",
  "ManufacturersModelName": "Prisma",
  "Modality": "MR",
  "MultibandAccelerationFactor": 4,
  "PartialFourier": 1,
  "PercentPhaseFOV": 100,
  "PhaseEncodingDirection": "j-",
  "PhaseEncodingSteps": 96,
  "PhaseResolution": 1,
  "ProcedureStepDescription": "Gobbini_Matteo_1017_famface-angles",
  "ProtocolName": "func_run-05_task-fam1back",
  "PulseSequenceDetails": "%SiemensSeq%_ep2d_bold",
  "ReceiveCoilActiveElements": "HEA;HEP",
  "ReceiveCoilName": "Head_32",
  "ReconMatrixPE": 96,
  "RepetitionTime": 1.25,
  "ScanOptions": "FS",
  "ScanningSequence": "EP",
  "SequenceName": "_epfid2d1_96",
  "SequenceVariant": "SK",
  "SeriesDescription": "func_run-05_task-fam1back",
  "SliceTiming": [0.8775, 0, 0.6125, 0.0875, 0.7025, 0.175, 0.79, 0.35, 0.965, 0.4375, 1.0525, 0.525, 1.14, 0.2625, 0.8775, 0, 0.6125, 0.0875, 0.7025, 0.175, 0.79, 0.35, 0.965, 0.4375, 1.0525, 0.525, 1.14, 0.2625, 0.8775, 0, 0.6125, 0.0875, 0.7025, 0.175, 0.79, 0.35, 0.965, 0.4375, 1.0525, 0.525, 1.14, 0.2625, 0.8775, 0, 0.6125, 0.0875, 0.7025, 0.175, 0.79, 0.35, 0.965, 0.4375, 1.0525, 0.525, 1.14, 0.2625],
  "SoftwareVersions": "syngo_MR_E11",
  "StationName": "AWP66112",
  "TaskName": "fam1back",
  "TotalReadoutTime": 0.0522511,
  "dcmmeta_affine": [
    [-2.4929685592651367, 0.14112453162670135, -0.12325407564640045, 117.64234924316406],
    [0.12596599757671356, 2.4797537326812744, 0.2914693355560303, -114.42278289794922],
    [-0.13870929181575775, -0.28443923592567444, 2.4798898696899414, -27.26930809020996],
    [0.0, 0.0, 0.0, 1.0]
],
  "dcmmeta_reorient_transform": [
    [0.0, -1.0, 0.0, 95.0],
    [1.0, 0.0, 0.0, 0.0],
    [0.0, 0.0, 1.0, 0.0],
    [0.0, 0.0, 0.0, 1.0]
],
  "dcmmeta_shape": [96, 96, 56, 280],
  "dcmmeta_slice_dim": 2,
  "dcmmeta_version": 0.6,
  "global": {
    "const": {
      "AccessionNumber": "A000383",
      "AcquisitionMatrix": [96, 0, 0, 96],
      "AngioFlag": "N",
      "BitsAllocated": 16,
      "BitsStored": 12,
      "BodyPartExamined": "BRAIN",
      "Columns": 768,
      "EchoNumbers": 1,
      "EchoTime": 33.0,
      "EchoTrainLength": 96,
      "FlipAngle": 64.0,
      "HighBit": 11,
      "ImageOrientationPatient": [0.99718742878056, -0.0503863988316, -0.0554837155821, 0.05644981002514, 0.9919014620432, 0.1137756939978],
      "ImagePositionPatient": [-1016.1044621136, -912.02646729015, -103.25629689871],
      "ImageType": [
        "ORIGINAL",
        "PRIMARY",
        "FMRI",
        "NONE",
        "ND",
        "NORM",
        "MOSAIC"
],
      "ImagedNucleus": "1H",
      "ImagingFrequency": 123.252303,
      "InPlanePhaseEncodingDirection": "COL",
      "MRAcquisitionType": "2D",
      "MagneticFieldStrength": 3.0,
      "Manufacturer": "SIEMENS",
      "ManufacturerModelName": "Prisma",
      "Modality": "MR",
      "NumberOfAverages": 1.0,
      "NumberOfPhaseEncodingSteps": 96,
      "PercentPhaseFieldOfView": 100.0,
      "PercentSampling": 100.0,
      "PerformedProcedureStepStartTime": "130433.400000",
      "PhotometricInterpretation": "MONOCHROME2",
      "PixelBandwidth": 2265.0,
      "PixelRepresentation": 0,
      "PixelSpacing": [2.5, 2.5],
      "PositionReferenceIndicator": "",
      "ProtocolName": "func_run-05_task-fam1back",
      "RepetitionTime": 1250.0,
      "Rows": 768,
      "SAR": 0.06336566567384,
      "SamplesPerPixel": 1,
      "ScanOptions": "FS",
      "ScanningSequence": "EP",
      "SequenceName": "*epfid2d1_96",
      "SequenceVariant": "SK",
      "SeriesDescription": "func_run-05_task-fam1back",
      "SeriesNumber": 36,
      "SeriesTime": "135204.508000",
      "SliceLocation": -46.190205762839,
      "SliceThickness": 2.5,
      "SmallestImagePixelValue": 0,
      "SoftwareVersions": "syngo MR E11",
      "SpacingBetweenSlices": 2.4999999625902,
      "SpecificCharacterSet": "ISO_IR 100",
      "StudyID": "1",
      "StudyTime": "130433.341000",
      "TransmitCoilName": "Body",
      "VariableFlipAngleFlag": "N",
      "WindowCenterWidthExplanation": "Algo1",
      "dBdt": 0.0},
    "slices": {}
  },
  "time": {
    "samples": {
      "AcquisitionNumber": [1, 2, 3, 4, 5, 6, 7, 8, 9, 10, 11, 12, 13, 14, 15, 16, 17, 18, 19, 20, 21, 22, 23, 24, 25, 26, 27, 28, 29, 30, 31, 32, 33, 34, 35, 36, 37, 38, 39, 40, 41, 42, 43, 44, 45, 46, 47, 48, 49, 50, 51, 52, 53, 54, 55, 56, 57, 58, 59, 60, 61, 62, 63, 64, 65, 66, 67, 68, 69, 70, 71, 72, 73, 74, 75, 76, 77, 78, 79, 80, 81, 82, 83, 84, 85, 86, 87, 88, 89, 90, 91, 92, 93, 94, 95, 96, 97, 98, 99, 100, 101, 102, 103, 104, 105, 106, 107, 108, 109, 110, 111, 112, 113, 114, 115, 116, 117, 118, 119, 120, 121, 122, 123, 124, 125, 126, 127, 128, 129, 130, 131, 132, 133, 134, 135, 136, 137, 138, 139, 140, 141, 142, 143, 144, 145, 146, 147, 148, 149, 150, 151, 152, 153, 154, 155, 156, 157, 158, 159, 160, 161, 162, 163, 164, 165, 166, 167, 168, 169, 170, 171, 172, 173, 174, 175, 176, 177, 178, 179, 180, 181, 182, 183, 184, 185, 186, 187, 188, 189, 190, 191, 192, 193, 194, 195, 196, 197, 198, 199, 200, 201, 202, 203, 204, 205, 206, 207, 208, 209, 210, 211, 212, 213, 214, 215, 216, 217, 218, 219, 220, 221, 222, 223, 224, 225, 226, 227, 228, 229, 230, 231, 232, 233, 234, 235, 236, 237, 238, 239, 240, 241, 242, 243, 244, 245, 246, 247, 248, 249, 250, 251, 252, 253, 254, 255, 256, 257, 258, 259, 260, 261, 262, 263, 264, 265, 266, 267, 268, 269, 270, 271, 272, 273, 274, 275, 276, 277, 278, 279, 280],
      "AcquisitionTime": ["135203.112500", "135204.362500", "135205.612500", "135206.862500", "135208.112500", "135209.362500", "135210.612500", "135211.862500", "135213.112500", "135214.362500", "135215.612500", "135216.862500", "135218.112500", "135219.362500", "135220.612500", "135221.862500", "135223.112500", "135224.362500", "135225.612500", "135226.862500", "135228.112500", "135229.362500", "135230.612500", "135231.862500", "135233.112500", "135234.362500", "135235.612500", "135236.862500", "135238.112500", "135239.362500", "135240.612500", "135241.862500", "135243.112500", "135244.362500", "135245.612500", "135246.862500", "135248.112500", "135249.362500", "135250.612500", "135251.862500", "135253.112500", "135254.362500", "135255.612500", "135256.862500", "135258.112500", "135259.362500", "135300.612500", "135301.862500", "135303.112500", "135304.362500", "135305.612500", "135306.862500", "135308.112500", "135309.362500", "135310.612500", "135311.862500", "135313.112500", "135314.362500", "135315.612500", "135316.862500", "135318.112500", "135319.362500", "135320.612500", "135321.862500", "135323.112500", "135324.362500", "135325.612500", "135326.862500", "135328.112500", "135329.362500", "135330.612500", "135331.862500", "135333.112500", "135334.362500", "135335.612500", "135336.862500", "135338.112500", "135339.362500", "135340.612500", "135341.862500", "135343.112500", "135344.362500", "135345.612500", "135346.862500", "135348.112500", "135349.362500", "135350.612500", "135351.862500", "135353.112500", "135354.362500", "135355.612500", "135356.862500", "135358.112500", "135359.362500", "135400.612500", "135401.862500", "135403.112500", "135404.362500", "135405.612500", "135406.862500", "135408.112500", "135409.362500", "135410.612500", "135411.862500", "135413.112500", "135414.362500", "135415.612500", "135416.862500", "135418.112500", "135419.362500", "135420.612500", "135421.862500", "135423.112500", "135424.362500", "135425.612500", "135426.862500", "135428.112500", "135429.362500", "135430.612500", "135431.862500", "135433.112500", "135434.362500", "135435.612500", "135436.862500", "135438.112500", "135439.362500", "135440.612500", "135441.862500", "135443.112500", "135444.362500", "135445.612500", "135446.862500", "135448.112500", "135449.362500", "135450.612500", "135451.862500", "135453.112500", "135454.362500", "135455.612500", "135456.862500", "135458.112500", "135459.362500", "135500.612500", "135501.862500", "135503.112500", "135504.362500", "135505.612500", "135506.862500", "135508.112500", "135509.362500", "135510.612500", "135511.862500", "135513.112500", "135514.362500", "135515.612500", "135516.862500", "135518.112500", "135519.362500", "135520.612500", "135521.862500", "135523.112500", "135524.362500", "135525.612500", "135526.862500", "135528.112500", "135529.362500", "135530.612500", "135531.862500", "135533.112500", "135534.362500", "135535.612500", "135536.862500", "135538.112500", "135539.362500", "135540.612500", "135541.862500", "135543.112500", "135544.362500", "135545.612500", "135546.862500", "135548.112500", "135549.362500", "135550.612500", "135551.862500", "135553.112500", "135554.362500", "135555.612500", "135556.862500", "135558.112500", "135559.362500", "135600.612500", "135601.862500", "135603.112500", "135604.362500", "135605.612500", "135606.862500", "135608.112500", "135609.362500", "135610.612500", "135611.862500", "135613.112500", "135614.362500", "135615.612500", "135616.862500", "135618.112500", "135619.362500", "135620.612500", "135621.862500", "135623.112500", "135624.362500", "135625.612500", "135626.862500", "135628.112500", "135629.362500", "135630.612500", "135631.862500", "135633.112500", "135634.362500", "135635.612500", "135636.862500", "135638.112500", "135639.362500", "135640.612500", "135641.862500", "135643.112500", "135644.362500", "135645.612500", "135646.862500", "135648.112500", "135649.362500", "135650.612500", "135651.862500", "135653.112500", "135654.362500", "135655.612500", "135656.862500", "135658.112500", "135659.362500", "135700.612500", "135701.862500", "135703.112500", "135704.362500", "135705.612500", "135706.862500", "135708.112500", "135709.362500", "135710.612500", "135711.862500", "135713.112500", "135714.362500", "135715.612500", "135716.862500", "135718.112500", "135719.362500", "135720.612500", "135721.862500", "135723.112500", "135724.362500", "135725.612500", "135726.862500", "135728.112500", "135729.362500", "135730.612500", "135731.862500", "135733.112500", "135734.362500", "135735.612500", "135736.862500", "135738.112500", "135739.362500", "135740.612500", "135741.862500", "135743.112500", "135744.362500", "135745.612500", "135746.862500", "135748.112500", "135749.362500", "135750.612500", "135751.862500"],
      "ContentTime": ["135204.513000", "135205.590000", "135206.833000", "135208.094000", "135209.376000", "135210.589000", "135211.856000", "135213.099000", "135214.356000", "135215.625000", "135216.843000", "135218.086000", "135219.361000", "135220.599000", "135221.837000", "135223.113000", "135224.351000", "135225.579000", "135226.844000", "135228.086000", "135229.373000", "135230.589000", "135231.842000", "135233.095000", "135234.314000", "135235.619000", "135236.816000", "135238.094000", "135239.308000", "135240.584000", "135241.819000", "135243.060000", "135244.351000", "135245.606000", "135246.840000", "135248.098000", "135249.351000", "135250.621000", "135251.872000", "135253.097000", "135254.349000", "135255.598000", "135256.829000", "135258.094000", "135259.341000", "135300.559000", "135301.864000", "135303.094000", "135304.323000", "135305.596000", "135306.814000", "135308.068000", "135309.335000", "135310.579000", "135311.835000", "135313.085000", "135314.358000", "135315.601000", "135316.836000", "135318.154000", "135319.314000", "135320.583000", "135321.823000", "135323.087000", "135324.334000", "135325.584000", "135326.853000", "135328.101000", "135329.337000", "135330.582000", "135331.885000", "135333.078000", "135334.335000", "135335.586000", "135336.842000", "135338.065000", "135339.335000", "135340.583000", "135341.825000", "135343.072000", "135344.332000", "135345.583000", "135346.833000", "135348.085000", "135349.337000", "135350.588000", "135351.850000", "135353.123000", "135354.340000", "135355.626000", "135356.857000", "135358.100000", "135359.319000", "135400.571000", "135401.812000", "135403.106000", "135404.330000", "135405.584000", "135406.816000", "135408.075000", "135409.352000", "135410.670000", "135411.846000", "135413.099000", "135414.378000", "135415.567000", "135416.848000", "135418.129000", "135419.339000", "135420.564000", "135421.859000", "135423.097000", "135424.347000", "135425.579000", "135426.855000", "135428.081000", "135429.347000", "135430.595000", "135431.834000", "135433.067000", "135434.347000", "135435.593000", "135436.838000", "135438.094000", "135439.315000", "135440.604000", "135441.860000", "135443.127000", "135444.328000", "135445.556000", "135446.871000", "135448.049000", "135449.330000", "135450.616000", "135451.852000", "135453.107000", "135454.314000", "135455.584000", "135456.857000", "135458.083000", "135459.348000", "135500.578000", "135501.840000", "135503.083000", "135504.335000", "135505.606000", "135506.858000", "135508.109000", "135509.337000", "135510.595000", "135511.844000", "135513.158000", "135514.358000", "135515.582000", "135516.836000", "135518.077000", "135519.353000", "135520.561000", "135521.857000", "135523.074000", "135524.353000", "135525.612000", "135526.854000", "135528.106000", "135529.340000", "135530.630000", "135531.869000", "135533.075000", "135534.331000", "135535.617000", "135536.841000", "135538.068000", "135539.322000", "135540.588000", "135541.829000", "135543.077000", "135544.362000", "135545.587000", "135546.822000", "135548.077000", "135549.353000", "135550.567000", "135551.858000", "135553.087000", "135554.344000", "135555.593000", "135556.825000", "135558.096000", "135559.348000", "135600.578000", "135601.859000", "135603.098000", "135604.395000", "135605.596000", "135606.862000", "135608.101000", "135609.348000", "135610.603000", "135611.842000", "135613.074000", "135614.359000", "135615.603000", "135616.802000", "135618.111000", "135619.313000", "135620.577000", "135621.840000", "135623.077000", "135624.354000", "135625.604000", "135626.843000", "135628.085000", "135629.408000", "135630.588000", "135631.788000", "135633.141000", "135634.413000", "135635.615000", "135636.836000", "135638.102000", "135639.345000", "135640.613000", "135641.847000", "135643.081000", "135644.354000", "135645.599000", "135646.843000", "135648.087000", "135649.342000", "135650.589000", "135651.866000", "135653.092000", "135654.335000", "135655.607000", "135656.846000", "135658.079000", "135659.316000", "135700.608000", "135701.853000", "135703.062000", "135704.357000", "135705.578000", "135706.871000", "135708.115000", "135709.370000", "135710.584000", "135711.848000", "135713.107000", "135714.358000", "135715.626000", "135716.855000", "135718.096000", "135719.363000", "135720.628000", "135721.911000", "135723.124000", "135724.349000", "135725.585000", "135726.851000", "135728.101000", "135729.361000", "135730.607000", "135731.863000", "135733.100000", "135734.331000", "135735.590000", "135736.831000", "135738.089000", "135739.349000", "135740.589000", "135741.856000", "135743.079000", "135744.361000", "135745.655000", "135746.845000", "135748.097000", "135749.351000", "135750.575000", "135751.829000", "135753.153000"],
      "InstanceCreationTime": ["135204.513000", "135205.590000", "135206.833000", "135208.094000", "135209.376000", "135210.589000", "135211.856000", "135213.099000", "135214.356000", "135215.625000", "135216.843000", "135218.086000", "135219.361000", "135220.599000", "135221.837000", "135223.113000", "135224.351000", "135225.579000", "135226.844000", "135228.086000", "135229.373000", "135230.589000", "135231.842000", "135233.095000", "135234.314000", "135235.619000", "135236.816000", "135238.094000", "135239.308000", "135240.584000", "135241.819000", "135243.060000", "135244.351000", "135245.606000", "135246.840000", "135248.098000", "135249.351000", "135250.621000", "135251.872000", "135253.097000", "135254.349000", "135255.598000", "135256.829000", "135258.094000", "135259.341000", "135300.559000", "135301.864000", "135303.094000", "135304.323000", "135305.596000", "135306.814000", "135308.068000", "135309.335000", "135310.579000", "135311.835000", "135313.085000", "135314.358000", "135315.601000", "135316.836000", "135318.154000", "135319.314000", "135320.583000", "135321.823000", "135323.087000", "135324.334000", "135325.584000", "135326.853000", "135328.101000", "135329.337000", "135330.582000", "135331.885000", "135333.078000", "135334.335000", "135335.586000", "135336.842000", "135338.065000", "135339.335000", "135340.583000", "135341.825000", "135343.072000", "135344.332000", "135345.583000", "135346.833000", "135348.085000", "135349.337000", "135350.588000", "135351.850000", "135353.123000", "135354.340000", "135355.626000", "135356.857000", "135358.100000", "135359.319000", "135400.571000", "135401.812000", "135403.106000", "135404.330000", "135405.584000", "135406.816000", "135408.075000", "135409.352000", "135410.670000", "135411.846000", "135413.099000", "135414.378000", "135415.567000", "135416.848000", "135418.129000", "135419.339000", "135420.564000", "135421.859000", "135423.097000", "135424.347000", "135425.579000", "135426.855000", "135428.081000", "135429.347000", "135430.595000", "135431.834000", "135433.067000", "135434.347000", "135435.593000", "135436.838000", "135438.094000", "135439.315000", "135440.604000", "135441.860000", "135443.127000", "135444.328000", "135445.556000", "135446.871000", "135448.049000", "135449.330000", "135450.616000", "135451.852000", "135453.107000", "135454.314000", "135455.584000", "135456.857000", "135458.083000", "135459.348000", "135500.578000", "135501.840000", "135503.083000", "135504.335000", "135505.606000", "135506.858000", "135508.109000", "135509.337000", "135510.595000", "135511.844000", "135513.158000", "135514.358000", "135515.582000", "135516.836000", "135518.077000", "135519.353000", "135520.561000", "135521.857000", "135523.074000", "135524.353000", "135525.612000", "135526.854000", "135528.106000", "135529.340000", "135530.630000", "135531.869000", "135533.075000", "135534.331000", "135535.617000", "135536.841000", "135538.068000", "135539.322000", "135540.588000", "135541.829000", "135543.077000", "135544.362000", "135545.587000", "135546.822000", "135548.077000", "135549.353000", "135550.567000", "135551.858000", "135553.087000", "135554.344000", "135555.593000", "135556.825000", "135558.096000", "135559.348000", "135600.578000", "135601.859000", "135603.098000", "135604.395000", "135605.596000", "135606.862000", "135608.101000", "135609.348000", "135610.603000", "135611.842000", "135613.074000", "135614.359000", "135615.603000", "135616.802000", "135618.111000", "135619.313000", "135620.577000", "135621.840000", "135623.077000", "135624.354000", "135625.604000", "135626.843000", "135628.085000", "135629.408000", "135630.588000", "135631.788000", "135633.141000", "135634.413000", "135635.615000", "135636.836000", "135638.102000", "135639.345000", "135640.613000", "135641.847000", "135643.081000", "135644.354000", "135645.599000", "135646.843000", "135648.087000", "135649.342000", "135650.589000", "135651.866000", "135653.092000", "135654.335000", "135655.607000", "135656.846000", "135658.079000", "135659.316000", "135700.608000", "135701.853000", "135703.062000", "135704.357000", "135705.578000", "135706.871000", "135708.115000", "135709.370000", "135710.584000", "135711.848000", "135713.107000", "135714.358000", "135715.626000", "135716.855000", "135718.096000", "135719.363000", "135720.628000", "135721.911000", "135723.124000", "135724.349000", "135725.585000", "135726.851000", "135728.101000", "135729.361000", "135730.607000", "135731.863000", "135733.100000", "135734.331000", "135735.590000", "135736.831000", "135738.089000", "135739.349000", "135740.589000", "135741.856000", "135743.079000", "135744.361000", "135745.655000", "135746.845000", "135748.097000", "135749.351000", "135750.575000", "135751.829000", "135753.153000"],
      "InstanceNumber": [1, 2, 3, 4, 5, 6, 7, 8, 9, 10, 11, 12, 13, 14, 15, 16, 17, 18, 19, 20, 21, 22, 23, 24, 25, 26, 27, 28, 29, 30, 31, 32, 33, 34, 35, 36, 37, 38, 39, 40, 41, 42, 43, 44, 45, 46, 47, 48, 49, 50, 51, 52, 53, 54, 55, 56, 57, 58, 59, 60, 61, 62, 63, 64, 65, 66, 67, 68, 69, 70, 71, 72, 73, 74, 75, 76, 77, 78, 79, 80, 81, 82, 83, 84, 85, 86, 87, 88, 89, 90, 91, 92, 93, 94, 95, 96, 97, 98, 99, 100, 101, 102, 103, 104, 105, 106, 107, 108, 109, 110, 111, 112, 113, 114, 115, 116, 117, 118, 119, 120, 121, 122, 123, 124, 125, 126, 127, 128, 129, 130, 131, 132, 133, 134, 135, 136, 137, 138, 139, 140, 141, 142, 143, 144, 145, 146, 147, 148, 149, 150, 151, 152, 153, 154, 155, 156, 157, 158, 159, 160, 161, 162, 163, 164, 165, 166, 167, 168, 169, 170, 171, 172, 173, 174, 175, 176, 177, 178, 179, 180, 181, 182, 183, 184, 185, 186, 187, 188, 189, 190, 191, 192, 193, 194, 195, 196, 197, 198, 199, 200, 201, 202, 203, 204, 205, 206, 207, 208, 209, 210, 211, 212, 213, 214, 215, 216, 217, 218, 219, 220, 221, 222, 223, 224, 225, 226, 227, 228, 229, 230, 231, 232, 233, 234, 235, 236, 237, 238, 239, 240, 241, 242, 243, 244, 245, 246, 247, 248, 249, 250, 251, 252, 253, 254, 255, 256, 257, 258, 259, 260, 261, 262, 263, 264, 265, 266, 267, 268, 269, 270, 271, 272, 273, 274, 275, 276, 277, 278, 279, 280],
      "LargestImagePixelValue": [1744, 1526, 1088, 1628, 1351, 1593, 1403, 1652, 1628, 1253, 1673, 1279, 1550, 1369, 1498, 1670, 1526, 1078, 1051, 1519, 1026, 1676, 1694, 1519, 1432, 1600, 1219, 1639, 1494, 1022, 1671, 1194, 1475, 1478, 1318, 1625, 1286, 1256, 1449, 1669, 1525, 1257, 1532, 1033, 1688, 1053, 1531, 1025, 1010, 1687, 1310, 1525, 1425, 1570, 1514, 1094, 1771, 1164, 1338, 1416, 959, 1660, 1130, 1432, 1704, 1464, 1457, 1287, 1644, 982, 1579, 1187, 1198, 1745, 1271, 1658, 1500, 1149, 1476, 1532, 1397, 1699, 1318, 1545, 1295, 1371, 1384, 997, 1537, 1343, 1111, 1671, 1594, 1337, 1554, 1007, 1331, 1686, 1225, 1099, 1709, 1482, 1573, 1423, 1005, 1722, 1135, 1126, 1606, 1387, 1657, 1238, 1534, 1305, 1401, 1687, 1383, 1445, 1062, 1427, 1460, 1376, 1218, 1284, 1434, 1681, 1451, 1556, 1040, 1593, 1068, 1694, 1513, 1152, 1572, 1169, 1575, 1558, 1375, 1255, 1398, 1554, 1427, 1551, 1634, 1213, 1649, 1117, 1271, 1020, 1118, 1667, 1115, 1321, 1692, 1671, 1249, 1435, 1403, 1453, 1508, 1554, 1239, 1609, 1578, 1712, 1031, 1554, 1124, 1018, 1734, 1537, 1628, 1626, 1171, 1688, 1170, 1382, 1413, 1494, 1614, 1150, 1614, 1322, 1653, 1084, 1575, 1187, 1022, 1660, 1511, 1181, 1349, 1241, 1647, 1524, 1030, 1736, 1449, 1253, 1320, 995, 1618, 1251, 1494, 1481, 1320, 1740, 1224, 1557, 1620, 1300, 1114, 1531, 1493, 1026, 1702, 1096, 1281, 1599, 1173, 1558, 1345, 1425, 1562, 1048, 1297, 1353, 1615, 1508, 1613, 1471, 1063, 1740, 1066, 1243, 1523, 1049, 1339, 1418, 1626, 1556, 1515, 1356, 1430, 1650, 1373, 1153, 1614, 1503, 1020, 1611, 1407, 1601, 1440, 1118, 1636, 1176, 1323, 1640, 1203, 1515, 1124, 1449, 1498, 1042, 1697, 1487, 1353, 1423, 1659, 1140, 1749, 1227, 1181, 1257, 990, 1596, 1065, 1491],
      "WindowCenter": [417.0, 415.0, 411.0, 415.0, 414.0, 414.0, 413.0, 414.0, 413.0, 411.0, 413.0, 411.0, 413.0, 411.0, 413.0, 413.0, 413.0, 410.0, 410.0, 414.0, 409.0, 414.0, 415.0, 413.0, 413.0, 413.0, 411.0, 414.0, 414.0, 409.0, 415.0, 412.0, 414.0, 414.0, 413.0, 413.0, 412.0, 411.0, 414.0, 415.0, 414.0, 411.0, 412.0, 408.0, 413.0, 409.0, 413.0, 409.0, 409.0, 415.0, 413.0, 413.0, 413.0, 413.0, 413.0, 410.0, 414.0, 410.0, 411.0, 412.0, 408.0, 413.0, 406.0, 414.0, 414.0, 413.0, 413.0, 411.0, 414.0, 408.0, 413.0, 411.0, 411.0, 414.0, 411.0, 413.0, 412.0, 410.0, 412.0, 413.0, 412.0, 413.0, 410.0, 412.0, 410.0, 411.0, 411.0, 408.0, 413.0, 412.0, 410.0, 414.0, 414.0, 412.0, 413.0, 408.0, 411.0, 414.0, 411.0, 410.0, 414.0, 413.0, 413.0, 412.0, 409.0, 414.0, 411.0, 410.0, 414.0, 412.0, 413.0, 410.0, 413.0, 411.0, 411.0, 413.0, 412.0, 412.0, 409.0, 412.0, 412.0, 412.0, 411.0, 412.0, 413.0, 414.0, 413.0, 413.0, 409.0, 413.0, 410.0, 414.0, 413.0, 410.0, 413.0, 410.0, 413.0, 413.0, 412.0, 410.0, 411.0, 413.0, 413.0, 413.0, 413.0, 410.0, 412.0, 409.0, 410.0, 408.0, 410.0, 413.0, 410.0, 411.0, 414.0, 415.0, 412.0, 413.0, 413.0, 413.0, 413.0, 414.0, 411.0, 413.0, 413.0, 413.0, 408.0, 413.0, 410.0, 409.0, 414.0, 413.0, 413.0, 413.0, 409.0, 412.0, 410.0, 411.0, 413.0, 413.0, 413.0, 409.0, 412.0, 410.0, 412.0, 408.0, 412.0, 410.0, 409.0, 413.0, 413.0, 410.0, 411.0, 411.0, 414.0, 413.0, 409.0, 414.0, 413.0, 411.0, 412.0, 410.0, 414.0, 412.0, 414.0, 413.0, 411.0, 414.0, 411.0, 413.0, 413.0, 410.0, 409.0, 413.0, 412.0, 408.0, 414.0, 410.0, 411.0, 413.0, 410.0, 413.0, 411.0, 412.0, 413.0, 408.0, 411.0, 412.0, 414.0, 413.0, 413.0, 412.0, 408.0, 413.0, 409.0, 411.0, 413.0, 409.0, 413.0, 414.0, 415.0, 413.0, 414.0, 412.0, 412.0, 414.0, 412.0, 410.0, 414.0, 412.0, 409.0, 413.0, 412.0, 413.0, 412.0, 410.0, 413.0, 410.0, 412.0, 413.0, 410.0, 412.0, 409.0, 412.0, 413.0, 409.0, 414.0, 412.0, 411.0, 412.0, 413.0, 410.0, 413.0, 409.0, 409.0, 410.0, 409.0, 413.0, 409.0, 413.0],
      "WindowWidth": [879.0, 875.0, 868.0, 874.0, 873.0, 873.0, 872.0, 872.0, 871.0, 867.0, 870.0, 867.0, 870.0, 868.0, 870.0, 871.0, 871.0, 867.0, 867.0, 873.0, 866.0, 873.0, 874.0, 871.0, 871.0, 872.0, 868.0, 873.0, 872.0, 866.0, 874.0, 870.0, 872.0, 873.0, 871.0, 872.0, 869.0, 869.0, 872.0, 874.0, 872.0, 868.0, 869.0, 863.0, 871.0, 866.0, 871.0, 866.0, 866.0, 874.0, 871.0, 872.0, 871.0, 871.0, 871.0, 867.0, 872.0, 866.0, 868.0, 869.0, 863.0, 871.0, 858.0, 873.0, 872.0, 871.0, 871.0, 869.0, 872.0, 863.0, 870.0, 868.0, 868.0, 872.0, 868.0, 871.0, 870.0, 866.0, 870.0, 871.0, 870.0, 871.0, 867.0, 869.0, 867.0, 868.0, 867.0, 864.0, 870.0, 870.0, 868.0, 872.0, 872.0, 869.0, 870.0, 863.0, 868.0, 872.0, 868.0, 867.0, 872.0, 871.0, 871.0, 869.0, 865.0, 872.0, 868.0, 868.0, 873.0, 870.0, 871.0, 867.0, 870.0, 868.0, 868.0, 871.0, 870.0, 870.0, 865.0, 870.0, 869.0, 870.0, 867.0, 869.0, 871.0, 872.0, 871.0, 871.0, 866.0, 871.0, 866.0, 873.0, 871.0, 867.0, 870.0, 866.0, 870.0, 870.0, 869.0, 866.0, 868.0, 870.0, 871.0, 870.0, 871.0, 866.0, 870.0, 865.0, 867.0, 864.0, 866.0, 871.0, 866.0, 869.0, 872.0, 874.0, 870.0, 872.0, 871.0, 871.0, 871.0, 873.0, 869.0, 871.0, 871.0, 871.0, 864.0, 871.0, 866.0, 866.0, 873.0, 871.0, 871.0, 870.0, 865.0, 870.0, 866.0, 869.0, 871.0, 870.0, 872.0, 866.0, 869.0, 865.0, 868.0, 863.0, 870.0, 866.0, 865.0, 871.0, 871.0, 867.0, 868.0, 868.0, 872.0, 871.0, 866.0, 872.0, 871.0, 868.0, 870.0, 867.0, 873.0, 870.0, 872.0, 872.0, 869.0, 872.0, 868.0, 870.0, 872.0, 867.0, 865.0, 870.0, 869.0, 864.0, 872.0, 867.0, 868.0, 871.0, 867.0, 870.0, 868.0, 869.0, 870.0, 864.0, 868.0, 870.0, 873.0, 871.0, 871.0, 869.0, 864.0, 871.0, 866.0, 868.0, 870.0, 866.0, 871.0, 873.0, 875.0, 872.0, 872.0, 869.0, 870.0, 872.0, 869.0, 867.0, 872.0, 870.0, 865.0, 871.0, 869.0, 871.0, 869.0, 866.0, 871.0, 867.0, 870.0, 871.0, 867.0, 869.0, 865.0, 870.0, 870.0, 866.0, 872.0, 869.0, 868.0, 869.0, 871.0, 866.0, 870.0, 865.0, 865.0, 866.0, 865.0, 871.0, 866.0, 871.0]
    },
    "slices": {}
  }
}