{
  "AcquisitionMatrixPE": 96,
  "AcquisitionNumber": 1,
  "AcquisitionTime": "13:39:25.777500",
  "BandwidthPerPixelPhaseEncode": 18.939,
  "BaseResolution": 96,
  "BodyPartExamined": "BRAIN",
  "ConsistencyInfo": "N4_VE11C_LATEST_20160120",
  "ConversionSoftware": "dcm2niix",
  "ConversionSoftwareVersion": "v1.0.20170923 (OpenJPEG build) GCC6.3.0",
  "DerivedVendorReportedEchoSpacing": 0.000550011,
  "DeviceSerialNumber": "66112",
  "DwellTime": 2.3e-06,
  "EchoTime": 0.033,
  "EchoTrainLength": 96,
  "EffectiveEchoSpacing": 0.000550011,
  "FlipAngle": 64,
  "ImageType": [
    "ORIGINAL",
    "PRIMARY",
    "FMRI",
    "NONE",
    "ND",
    "NORM",
    "MOSAIC"
],
  "InstitutionAddress": "Maynard_3_Hanover_NH_US_03755",
  "InstitutionName": "Dartmouth_College_-_PBS",
  "MagneticFieldStrength": 3,
  "Manufacturer": "Siemens",
  "ManufacturersModelName": "Prisma",
  "Modality": "MR",
  "MultibandAccelerationFactor": 4,
  "PartialFourier": 1,
  "PercentPhaseFOV": 100,
  "PhaseEncodingDirection": "j-",
  "PhaseEncodingSteps": 96,
  "PhaseResolution": 1,
  "ProcedureStepDescription": "Gobbini_Matteo_1017_famface-angles",
  "ProtocolName": "func_run-03_task-fam1back",
  "PulseSequenceDetails": "%SiemensSeq%_ep2d_bold",
  "ReceiveCoilActiveElements": "HEA;HEP",
  "ReceiveCoilName": "Head_32",
  "ReconMatrixPE": 96,
  "RepetitionTime": 1.25,
  "ScanOptions": "FS",
  "ScanningSequence": "EP",
  "SequenceName": "_epfid2d1_96",
  "SequenceVariant": "SK",
  "SeriesDescription": "func_run-03_task-fam1back",
  "SliceTiming": [0.8775, 0, 0.615, 0.0875, 0.7025, 0.175, 0.79, 0.35, 0.965, 0.44, 1.0525, 0.5275, 1.1425, 0.2625, 0.8775, 0, 0.615, 0.0875, 0.7025, 0.175, 0.79, 0.35, 0.965, 0.44, 1.0525, 0.5275, 1.1425, 0.2625, 0.8775, 0, 0.615, 0.0875, 0.7025, 0.175, 0.79, 0.35, 0.965, 0.44, 1.0525, 0.5275, 1.1425, 0.2625, 0.8775, 0, 0.615, 0.0875, 0.7025, 0.175, 0.79, 0.35, 0.965, 0.44, 1.0525, 0.5275, 1.1425, 0.2625],
  "SoftwareVersions": "syngo_MR_E11",
  "StationName": "AWP66112",
  "TaskName": "fam1back",
  "TotalReadoutTime": 0.0522511,
  "dcmmeta_affine": [
    [-2.4929685592651367, 0.14112453162670135, -0.12325407564640045, 117.64234924316406],
    [0.12596599757671356, 2.4797537326812744, 0.2914693355560303, -114.42278289794922],
    [-0.13870929181575775, -0.28443923592567444, 2.4798898696899414, -27.26930809020996],
    [0.0, 0.0, 0.0, 1.0]
],
  "dcmmeta_reorient_transform": [
    [0.0, -1.0, 0.0, 95.0],
    [1.0, 0.0, 0.0, 0.0],
    [0.0, 0.0, 1.0, 0.0],
    [0.0, 0.0, 0.0, 1.0]
],
  "dcmmeta_shape": [96, 96, 56, 280],
  "dcmmeta_slice_dim": 2,
  "dcmmeta_version": 0.6,
  "global": {
    "const": {
      "AccessionNumber": "A000383",
      "AcquisitionMatrix": [96, 0, 0, 96],
      "AngioFlag": "N",
      "BitsAllocated": 16,
      "BitsStored": 12,
      "BodyPartExamined": "BRAIN",
      "Columns": 768,
      "EchoNumbers": 1,
      "EchoTime": 33.0,
      "EchoTrainLength": 96,
      "FlipAngle": 64.0,
      "HighBit": 11,
      "ImageOrientationPatient": [0.99718742878056, -0.0503863988316, -0.0554837155821, 0.05644981002514, 0.9919014620432, 0.1137756939978],
      "ImagePositionPatient": [-1016.1044621136, -912.02646729015, -103.25629689871],
      "ImageType": [
        "ORIGINAL",
        "PRIMARY",
        "FMRI",
        "NONE",
        "ND",
        "NORM",
        "MOSAIC"
],
      "ImagedNucleus": "1H",
      "ImagingFrequency": 123.252299,
      "InPlanePhaseEncodingDirection": "COL",
      "MRAcquisitionType": "2D",
      "MagneticFieldStrength": 3.0,
      "Manufacturer": "SIEMENS",
      "ManufacturerModelName": "Prisma",
      "Modality": "MR",
      "NumberOfAverages": 1.0,
      "NumberOfPhaseEncodingSteps": 96,
      "PercentPhaseFieldOfView": 100.0,
      "PercentSampling": 100.0,
      "PerformedProcedureStepStartTime": "130433.400000",
      "PhotometricInterpretation": "MONOCHROME2",
      "PixelBandwidth": 2265.0,
      "PixelRepresentation": 0,
      "PixelSpacing": [2.5, 2.5],
      "PositionReferenceIndicator": "",
      "ProtocolName": "func_run-03_task-fam1back",
      "RepetitionTime": 1250.0,
      "Rows": 768,
      "SAR": 0.06336566567384,
      "SamplesPerPixel": 1,
      "ScanOptions": "FS",
      "ScanningSequence": "EP",
      "SequenceName": "*epfid2d1_96",
      "SequenceVariant": "SK",
      "SeriesDescription": "func_run-03_task-fam1back",
      "SeriesNumber": 22,
      "SeriesTime": "133927.459000",
      "SliceLocation": -46.190205762839,
      "SliceThickness": 2.5,
      "SmallestImagePixelValue": 0,
      "SoftwareVersions": "syngo MR E11",
      "SpacingBetweenSlices": 2.4999999625902,
      "SpecificCharacterSet": "ISO_IR 100",
      "StudyID": "1",
      "StudyTime": "130433.341000",
      "TransmitCoilName": "Body",
      "VariableFlipAngleFlag": "N",
      "WindowCenterWidthExplanation": "Algo1",
      "dBdt": 0.0},
    "slices": {}
  },
  "time": {
    "samples": {
      "AcquisitionNumber": [1, 2, 3, 4, 5, 6, 7, 8, 9, 10, 11, 12, 13, 14, 15, 16, 17, 18, 19, 20, 21, 22, 23, 24, 25, 26, 27, 28, 29, 30, 31, 32, 33, 34, 35, 36, 37, 38, 39, 40, 41, 42, 43, 44, 45, 46, 47, 48, 49, 50, 51, 52, 53, 54, 55, 56, 57, 58, 59, 60, 61, 62, 63, 64, 65, 66, 67, 68, 69, 70, 71, 72, 73, 74, 75, 76, 77, 78, 79, 80, 81, 82, 83, 84, 85, 86, 87, 88, 89, 90, 91, 92, 93, 94, 95, 96, 97, 98, 99, 100, 101, 102, 103, 104, 105, 106, 107, 108, 109, 110, 111, 112, 113, 114, 115, 116, 117, 118, 119, 120, 121, 122, 123, 124, 125, 126, 127, 128, 129, 130, 131, 132, 133, 134, 135, 136, 137, 138, 139, 140, 141, 142, 143, 144, 145, 146, 147, 148, 149, 150, 151, 152, 153, 154, 155, 156, 157, 158, 159, 160, 161, 162, 163, 164, 165, 166, 167, 168, 169, 170, 171, 172, 173, 174, 175, 176, 177, 178, 179, 180, 181, 182, 183, 184, 185, 186, 187, 188, 189, 190, 191, 192, 193, 194, 195, 196, 197, 198, 199, 200, 201, 202, 203, 204, 205, 206, 207, 208, 209, 210, 211, 212, 213, 214, 215, 216, 217, 218, 219, 220, 221, 222, 223, 224, 225, 226, 227, 228, 229, 230, 231, 232, 233, 234, 235, 236, 237, 238, 239, 240, 241, 242, 243, 244, 245, 246, 247, 248, 249, 250, 251, 252, 253, 254, 255, 256, 257, 258, 259, 260, 261, 262, 263, 264, 265, 266, 267, 268, 269, 270, 271, 272, 273, 274, 275, 276, 277, 278, 279, 280],
      "AcquisitionTime": ["133925.777500", "133927.027500", "133928.277500", "133929.527500", "133930.777500", "133932.027500", "133933.277500", "133934.527500", "133935.777500", "133937.027500", "133938.277500", "133939.527500", "133940.777500", "133942.027500", "133943.277500", "133944.527500", "133945.777500", "133947.027500", "133948.277500", "133949.527500", "133950.777500", "133952.027500", "133953.277500", "133954.527500", "133955.777500", "133957.027500", "133958.277500", "133959.527500", "134000.777500", "134002.027500", "134003.277500", "134004.527500", "134005.777500", "134007.027500", "134008.277500", "134009.527500", "134010.777500", "134012.027500", "134013.277500", "134014.527500", "134015.777500", "134017.027500", "134018.277500", "134019.527500", "134020.777500", "134022.027500", "134023.277500", "134024.527500", "134025.777500", "134027.027500", "134028.277500", "134029.527500", "134030.777500", "134032.027500", "134033.277500", "134034.527500", "134035.777500", "134037.027500", "134038.277500", "134039.527500", "134040.777500", "134042.027500", "134043.277500", "134044.527500", "134045.777500", "134047.027500", "134048.277500", "134049.527500", "134050.777500", "134052.027500", "134053.277500", "134054.527500", "134055.777500", "134057.027500", "134058.277500", "134059.527500", "134100.777500", "134102.027500", "134103.277500", "134104.527500", "134105.777500", "134107.027500", "134108.277500", "134109.527500", "134110.777500", "134112.027500", "134113.277500", "134114.527500", "134115.777500", "134117.027500", "134118.277500", "134119.527500", "134120.777500", "134122.027500", "134123.277500", "134124.527500", "134125.777500", "134127.027500", "134128.277500", "134129.527500", "134130.777500", "134132.027500", "134133.277500", "134134.527500", "134135.777500", "134137.027500", "134138.277500", "134139.527500", "134140.777500", "134142.027500", "134143.277500", "134144.527500", "134145.777500", "134147.027500", "134148.277500", "134149.527500", "134150.777500", "134152.027500", "134153.277500", "134154.527500", "134155.777500", "134157.027500", "134158.277500", "134159.527500", "134200.777500", "134202.027500", "134203.277500", "134204.527500", "134205.777500", "134207.027500", "134208.277500", "134209.527500", "134210.777500", "134212.027500", "134213.277500", "134214.527500", "134215.777500", "134217.027500", "134218.277500", "134219.527500", "134220.777500", "134222.027500", "134223.277500", "134224.527500", "134225.777500", "134227.027500", "134228.277500", "134229.527500", "134230.777500", "134232.027500", "134233.277500", "134234.527500", "134235.777500", "134237.027500", "134238.277500", "134239.527500", "134240.777500", "134242.027500", "134243.277500", "134244.527500", "134245.777500", "134247.027500", "134248.277500", "134249.527500", "134250.777500", "134252.027500", "134253.277500", "134254.527500", "134255.777500", "134257.027500", "134258.277500", "134259.527500", "134300.777500", "134302.027500", "134303.277500", "134304.527500", "134305.777500", "134307.027500", "134308.277500", "134309.527500", "134310.777500", "134312.027500", "134313.277500", "134314.527500", "134315.777500", "134317.027500", "134318.277500", "134319.527500", "134320.777500", "134322.027500", "134323.277500", "134324.527500", "134325.777500", "134327.027500", "134328.277500", "134329.527500", "134330.777500", "134332.027500", "134333.277500", "134334.527500", "134335.777500", "134337.027500", "134338.277500", "134339.527500", "134340.777500", "134342.027500", "134343.277500", "134344.527500", "134345.777500", "134347.027500", "134348.277500", "134349.527500", "134350.777500", "134352.027500", "134353.277500", "134354.527500", "134355.777500", "134357.027500", "134358.277500", "134359.527500", "134400.777500", "134402.027500", "134403.277500", "134404.527500", "134405.777500", "134407.027500", "134408.277500", "134409.527500", "134410.777500", "134412.027500", "134413.277500", "134414.527500", "134415.777500", "134417.027500", "134418.277500", "134419.527500", "134420.777500", "134422.027500", "134423.277500", "134424.527500", "134425.777500", "134427.027500", "134428.277500", "134429.527500", "134430.777500", "134432.027500", "134433.277500", "134434.527500", "134435.777500", "134437.027500", "134438.277500", "134439.527500", "134440.777500", "134442.027500", "134443.277500", "134444.527500", "134445.777500", "134447.027500", "134448.277500", "134449.527500", "134450.777500", "134452.027500", "134453.277500", "134454.527500", "134455.777500", "134457.027500", "134458.277500", "134459.527500", "134500.777500", "134502.027500", "134503.277500", "134504.527500", "134505.777500", "134507.027500", "134508.277500", "134509.527500", "134510.777500", "134512.027500", "134513.277500", "134514.527500"],
      "ContentTime": ["133927.463000", "133928.540000", "133929.789000", "133931.041000", "133932.280000", "133933.509000", "133934.795000", "133936.033000", "133937.264000", "133938.552000", "133939.768000", "133941.025000", "133942.276000", "133943.522000", "133944.750000", "133946.031000", "133947.296000", "133948.479000", "133949.803000", "133951.011000", "133952.293000", "133953.520000", "133954.774000", "133956.015000", "133957.287000", "133958.515000", "133959.753000", "134001.012000", "134002.249000", "134003.527000", "134004.794000", "134006.079000", "134007.282000", "134008.539000", "134009.787000", "134011.014000", "134012.312000", "134013.523000", "134014.772000", "134016.019000", "134017.335000", "134018.539000", "134019.766000", "134021.035000", "134022.285000", "134023.543000", "134024.791000", "134026.035000", "134027.291000", "134028.513000", "134029.765000", "134031.017000", "134032.270000", "134033.523000", "134034.763000", "134036.021000", "134037.285000", "134038.526000", "134039.774000", "134041.016000", "134042.290000", "134043.563000", "134044.767000", "134046.034000", "134047.269000", "134048.510000", "134049.816000", "134051.036000", "134052.245000", "134053.562000", "134054.782000", "134056.060000", "134057.251000", "134058.590000", "134059.767000", "134101.025000", "134102.246000", "134103.516000", "134104.768000", "134106.016000", "134107.263000", "134108.520000", "134109.809000", "134111.023000", "134112.278000", "134113.523000", "134114.785000", "134115.998000", "134117.273000", "134118.543000", "134119.800000", "134121.022000", "134122.258000", "134123.522000", "134124.785000", "134126.013000", "134127.259000", "134128.535000", "134129.775000", "134131.038000", "134132.281000", "134133.538000", "134134.780000", "134136.016000", "134137.299000", "134138.533000", "134139.814000", "134141.030000", "134142.285000", "134143.535000", "134144.776000", "134146.007000", "134147.325000", "134148.560000", "134149.783000", "134151.063000", "134152.299000", "134153.497000", "134154.745000", "134156.018000", "134157.285000", "134158.548000", "134159.792000", "134201.047000", "134202.289000", "134203.519000", "134204.802000", "134206.034000", "134207.270000", "134208.532000", "134209.794000", "134211.047000", "134212.282000", "134213.570000", "134214.772000", "134216.019000", "134217.295000", "134218.516000", "134219.798000", "134221.031000", "134222.285000", "134223.573000", "134224.813000", "134226.020000", "134227.304000", "134228.548000", "134229.814000", "134231.069000", "134232.299000", "134233.552000", "134234.785000", "134236.036000", "134237.286000", "134238.544000", "134239.790000", "134241.045000", "134242.282000", "134243.567000", "134244.799000", "134246.046000", "134247.264000", "134248.509000", "134249.786000", "134251.031000", "134252.297000", "134253.487000", "134254.778000", "134256.020000", "134257.298000", "134258.545000", "134259.784000", "134301.040000", "134302.289000", "134303.510000", "134304.767000", "134306.037000", "134307.291000", "134308.552000", "134309.852000", "134311.038000", "134312.304000", "134313.538000", "134314.788000", "134316.040000", "134317.268000", "134318.541000", "134319.830000", "134321.010000", "134322.295000", "134323.533000", "134324.792000", "134326.043000", "134327.282000", "134328.541000", "134329.821000", "134331.036000", "134332.265000", "134333.532000", "134334.787000", "134336.027000", "134337.317000", "134338.543000", "134339.778000", "134341.034000", "134342.302000", "134343.541000", "134344.782000", "134346.056000", "134347.301000", "134348.522000", "134349.760000", "134351.046000", "134352.277000", "134353.525000", "134354.798000", "134356.020000", "134357.271000", "134358.534000", "134359.783000", "134401.008000", "134402.263000", "134403.545000", "134404.805000", "134406.019000", "134407.308000", "134408.548000", "134409.825000", "134411.041000", "134412.289000", "134413.515000", "134414.794000", "134416.035000", "134417.281000", "134418.543000", "134419.774000", "134421.044000", "134422.249000", "134423.538000", "134424.828000", "134426.032000", "134427.293000", "134428.521000", "134429.761000", "134431.022000", "134432.278000", "134433.525000", "134434.781000", "134436.023000", "134437.262000", "134438.546000", "134439.782000", "134440.994000", "134442.291000", "134443.539000", "134444.777000", "134446.054000", "134447.300000", "134448.544000", "134449.734000", "134451.049000", "134452.307000", "134453.528000", "134454.760000", "134456.041000", "134457.293000", "134458.549000", "134459.770000", "134501.040000", "134502.275000", "134503.565000", "134504.803000", "134506.048000", "134507.292000", "134508.567000", "134509.764000", "134511.033000", "134512.311000", "134513.561000", "134514.763000", "134516.085000"],
      "InstanceCreationTime": ["133927.463000", "133928.540000", "133929.789000", "133931.041000", "133932.280000", "133933.509000", "133934.795000", "133936.033000", "133937.264000", "133938.552000", "133939.768000", "133941.025000", "133942.276000", "133943.522000", "133944.750000", "133946.031000", "133947.296000", "133948.479000", "133949.803000", "133951.011000", "133952.293000", "133953.520000", "133954.774000", "133956.015000", "133957.287000", "133958.515000", "133959.753000", "134001.012000", "134002.249000", "134003.527000", "134004.794000", "134006.079000", "134007.282000", "134008.539000", "134009.787000", "134011.014000", "134012.312000", "134013.523000", "134014.772000", "134016.019000", "134017.335000", "134018.539000", "134019.766000", "134021.035000", "134022.285000", "134023.543000", "134024.791000", "134026.035000", "134027.291000", "134028.513000", "134029.765000", "134031.017000", "134032.270000", "134033.523000", "134034.763000", "134036.021000", "134037.285000", "134038.526000", "134039.774000", "134041.016000", "134042.290000", "134043.563000", "134044.767000", "134046.034000", "134047.269000", "134048.510000", "134049.816000", "134051.036000", "134052.245000", "134053.562000", "134054.782000", "134056.060000", "134057.251000", "134058.590000", "134059.767000", "134101.025000", "134102.246000", "134103.516000", "134104.768000", "134106.016000", "134107.263000", "134108.520000", "134109.809000", "134111.023000", "134112.278000", "134113.523000", "134114.785000", "134115.998000", "134117.273000", "134118.543000", "134119.800000", "134121.022000", "134122.258000", "134123.522000", "134124.785000", "134126.013000", "134127.259000", "134128.535000", "134129.775000", "134131.038000", "134132.281000", "134133.538000", "134134.780000", "134136.016000", "134137.299000", "134138.533000", "134139.814000", "134141.030000", "134142.285000", "134143.535000", "134144.776000", "134146.007000", "134147.325000", "134148.560000", "134149.783000", "134151.063000", "134152.299000", "134153.497000", "134154.745000", "134156.018000", "134157.285000", "134158.548000", "134159.792000", "134201.047000", "134202.289000", "134203.519000", "134204.802000", "134206.034000", "134207.270000", "134208.532000", "134209.794000", "134211.047000", "134212.282000", "134213.570000", "134214.772000", "134216.019000", "134217.295000", "134218.516000", "134219.798000", "134221.031000", "134222.285000", "134223.573000", "134224.813000", "134226.020000", "134227.304000", "134228.548000", "134229.814000", "134231.069000", "134232.299000", "134233.552000", "134234.785000", "134236.036000", "134237.286000", "134238.544000", "134239.790000", "134241.045000", "134242.282000", "134243.567000", "134244.799000", "134246.046000", "134247.264000", "134248.509000", "134249.786000", "134251.031000", "134252.297000", "134253.487000", "134254.778000", "134256.020000", "134257.298000", "134258.545000", "134259.784000", "134301.040000", "134302.289000", "134303.510000", "134304.767000", "134306.037000", "134307.291000", "134308.552000", "134309.852000", "134311.038000", "134312.304000", "134313.538000", "134314.788000", "134316.040000", "134317.268000", "134318.541000", "134319.830000", "134321.010000", "134322.295000", "134323.533000", "134324.792000", "134326.043000", "134327.282000", "134328.541000", "134329.821000", "134331.036000", "134332.265000", "134333.532000", "134334.787000", "134336.027000", "134337.317000", "134338.543000", "134339.778000", "134341.034000", "134342.302000", "134343.541000", "134344.782000", "134346.056000", "134347.301000", "134348.522000", "134349.760000", "134351.046000", "134352.277000", "134353.525000", "134354.798000", "134356.020000", "134357.271000", "134358.534000", "134359.783000", "134401.008000", "134402.263000", "134403.545000", "134404.805000", "134406.019000", "134407.308000", "134408.548000", "134409.825000", "134411.041000", "134412.289000", "134413.515000", "134414.794000", "134416.035000", "134417.281000", "134418.543000", "134419.774000", "134421.044000", "134422.249000", "134423.538000", "134424.828000", "134426.032000", "134427.293000", "134428.521000", "134429.761000", "134431.022000", "134432.278000", "134433.525000", "134434.781000", "134436.023000", "134437.262000", "134438.546000", "134439.782000", "134440.994000", "134442.291000", "134443.539000", "134444.777000", "134446.054000", "134447.300000", "134448.544000", "134449.734000", "134451.049000", "134452.307000", "134453.528000", "134454.760000", "134456.041000", "134457.293000", "134458.549000", "134459.770000", "134501.040000", "134502.275000", "134503.565000", "134504.803000", "134506.048000", "134507.292000", "134508.567000", "134509.764000", "134511.033000", "134512.311000", "134513.561000", "134514.763000", "134516.085000"],
      "InstanceNumber": [1, 2, 3, 4, 5, 6, 7, 8, 9, 10, 11, 12, 13, 14, 15, 16, 17, 18, 19, 20, 21, 22, 23, 24, 25, 26, 27, 28, 29, 30, 31, 32, 33, 34, 35, 36, 37, 38, 39, 40, 41, 42, 43, 44, 45, 46, 47, 48, 49, 50, 51, 52, 53, 54, 55, 56, 57, 58, 59, 60, 61, 62, 63, 64, 65, 66, 67, 68, 69, 70, 71, 72, 73, 74, 75, 76, 77, 78, 79, 80, 81, 82, 83, 84, 85, 86, 87, 88, 89, 90, 91, 92, 93, 94, 95, 96, 97, 98, 99, 100, 101, 102, 103, 104, 105, 106, 107, 108, 109, 110, 111, 112, 113, 114, 115, 116, 117, 118, 119, 120, 121, 122, 123, 124, 125, 126, 127, 128, 129, 130, 131, 132, 133, 134, 135, 136, 137, 138, 139, 140, 141, 142, 143, 144, 145, 146, 147, 148, 149, 150, 151, 152, 153, 154, 155, 156, 157, 158, 159, 160, 161, 162, 163, 164, 165, 166, 167, 168, 169, 170, 171, 172, 173, 174, 175, 176, 177, 178, 179, 180, 181, 182, 183, 184, 185, 186, 187, 188, 189, 190, 191, 192, 193, 194, 195, 196, 197, 198, 199, 200, 201, 202, 203, 204, 205, 206, 207, 208, 209, 210, 211, 212, 213, 214, 215, 216, 217, 218, 219, 220, 221, 222, 223, 224, 225, 226, 227, 228, 229, 230, 231, 232, 233, 234, 235, 236, 237, 238, 239, 240, 241, 242, 243, 244, 245, 246, 247, 248, 249, 250, 251, 252, 253, 254, 255, 256, 257, 258, 259, 260, 261, 262, 263, 264, 265, 266, 267, 268, 269, 270, 271, 272, 273, 274, 275, 276, 277, 278, 279, 280],
      "LargestImagePixelValue": [1449, 1625, 1215, 1017, 1369, 1620, 1535, 1651, 1564, 1226, 1688, 1393, 1640, 1325, 1591, 1486, 1193, 1620, 1030, 1535, 1446, 1732, 1647, 1245, 1216, 1432, 1501, 1387, 1514, 1723, 1437, 1593, 1154, 1401, 1361, 1747, 1491, 1720, 1491, 1275, 1652, 1375, 1513, 1571, 1563, 1505, 1146, 1189, 1558, 1230, 1453, 1498, 1319, 1642, 1132, 1663, 1569, 1564, 1232, 946, 1581, 1076, 1670, 1342, 1644, 1314, 1533, 1538, 1582, 1280, 1423, 1517, 1406, 1445, 1769, 1473, 1378, 1071, 1611, 1216, 1765, 2008, 1552, 1231, 1055, 1257, 1610, 1480, 1564, 1358, 1474, 1562, 1519, 1513, 1361, 1176, 1598, 1442, 1579, 960, 1629, 1396, 1271, 1518, 1220, 939, 1579, 1034, 1689, 1430, 1460, 1614, 1115, 1643, 1463, 1580, 1576, 1496, 1652, 1174, 1041, 1548, 1387, 1505, 1330, 1444, 1313, 1607, 1528, 1636, 1541, 1141, 1641, 1119, 1269, 1364, 1522, 1647, 1214, 1352, 1594, 1281, 1639, 1470, 1154, 1601, 1230, 953, 1629, 1077, 1187, 1614, 1342, 1563, 1173, 1316, 1344, 1129, 1100, 1362, 1079, 1603, 1341, 1535, 1663, 1200, 1739, 1583, 1429, 1607, 1165, 1556, 1322, 1577, 1338, 1138, 1487, 1024, 1552, 1243, 1648, 1428, 1096, 1623, 1233, 1570, 1373, 1284, 993, 1589, 1390, 1550, 1609, 1153, 1328, 943, 1520, 1085, 1567, 1625, 1646, 1606, 1464, 1599, 1044, 1626, 1215, 1070, 1633, 1173, 1490, 1533, 1547, 1504, 1097, 1567, 1029, 1642, 1026, 1329, 1235, 1584, 1067, 1725, 1438, 1572, 1151, 1341, 1273, 1460, 1505, 1494, 1534, 1461, 1311, 1451, 1312, 1067, 1495, 1606, 1642, 1505, 1024, 1682, 1328, 1277, 1496, 1075, 1514, 1479, 1589, 1600, 1465, 1539, 1252, 1226, 1375, 1625, 1363, 1728, 1489, 1097, 1306, 1083, 1534, 1670, 1138, 1476, 1050, 1382, 1008, 980, 1644, 1227, 1477, 1423, 1368, 1671, 1396, 1431],
      "WindowCenter": [415.0, 415.0, 411.0, 410.0, 414.0, 415.0, 415.0, 414.0, 413.0, 411.0, 414.0, 413.0, 414.0, 412.0, 413.0, 413.0, 411.0, 413.0, 409.0, 413.0, 413.0, 414.0, 414.0, 411.0, 411.0, 413.0, 413.0, 412.0, 413.0, 415.0, 413.0, 414.0, 411.0, 413.0, 413.0, 415.0, 413.0, 414.0, 413.0, 412.0, 414.0, 412.0, 412.0, 413.0, 412.0, 412.0, 409.0, 411.0, 413.0, 411.0, 413.0, 413.0, 412.0, 414.0, 411.0, 414.0, 414.0, 413.0, 410.0, 408.0, 414.0, 411.0, 414.0, 412.0, 414.0, 412.0, 414.0, 414.0, 413.0, 412.0, 412.0, 412.0, 412.0, 413.0, 415.0, 413.0, 413.0, 410.0, 414.0, 411.0, 414.0, 415.0, 410.0, 409.0, 409.0, 412.0, 413.0, 412.0, 412.0, 411.0, 411.0, 412.0, 412.0, 411.0, 412.0, 409.0, 413.0, 413.0, 413.0, 408.0, 414.0, 412.0, 411.0, 413.0, 410.0, 407.0, 413.0, 410.0, 414.0, 413.0, 413.0, 414.0, 410.0, 414.0, 413.0, 413.0, 413.0, 412.0, 412.0, 409.0, 408.0, 413.0, 412.0, 413.0, 411.0, 412.0, 412.0, 413.0, 413.0, 413.0, 413.0, 409.0, 412.0, 409.0, 410.0, 412.0, 413.0, 414.0, 411.0, 412.0, 414.0, 412.0, 414.0, 413.0, 410.0, 413.0, 410.0, 407.0, 413.0, 409.0, 409.0, 412.0, 411.0, 412.0, 409.0, 410.0, 411.0, 409.0, 411.0, 413.0, 411.0, 414.0, 413.0, 414.0, 415.0, 411.0, 413.0, 412.0, 411.0, 412.0, 409.0, 412.0, 411.0, 412.0, 411.0, 409.0, 412.0, 409.0, 413.0, 411.0, 414.0, 412.0, 410.0, 413.0, 411.0, 413.0, 412.0, 411.0, 409.0, 413.0, 413.0, 413.0, 413.0, 410.0, 412.0, 408.0, 413.0, 410.0, 414.0, 414.0, 413.0, 412.0, 412.0, 412.0, 408.0, 413.0, 411.0, 410.0, 413.0, 411.0, 412.0, 413.0, 412.0, 412.0, 409.0, 413.0, 408.0, 413.0, 409.0, 412.0, 411.0, 413.0, 410.0, 414.0, 412.0, 412.0, 409.0, 412.0, 412.0, 413.0, 413.0, 413.0, 413.0, 412.0, 411.0, 412.0, 411.0, 409.0, 413.0, 413.0, 414.0, 413.0, 408.0, 413.0, 412.0, 412.0, 413.0, 410.0, 413.0, 413.0, 413.0, 413.0, 412.0, 412.0, 410.0, 410.0, 411.0, 412.0, 411.0, 413.0, 411.0, 409.0, 411.0, 409.0, 413.0, 414.0, 410.0, 412.0, 409.0, 411.0, 409.0, 410.0, 415.0, 412.0, 413.0, 412.0, 412.0, 413.0, 412.0, 412.0],
      "WindowWidth": [876.0, 874.0, 869.0, 867.0, 873.0, 875.0, 874.0, 873.0, 872.0, 868.0, 872.0, 871.0, 872.0, 869.0, 871.0, 870.0, 868.0, 871.0, 865.0, 871.0, 872.0, 873.0, 873.0, 869.0, 868.0, 871.0, 870.0, 870.0, 871.0, 874.0, 872.0, 872.0, 868.0, 871.0, 871.0, 874.0, 872.0, 872.0, 872.0, 869.0, 872.0, 870.0, 870.0, 871.0, 870.0, 869.0, 865.0, 867.0, 871.0, 868.0, 870.0, 870.0, 870.0, 872.0, 868.0, 873.0, 872.0, 870.0, 867.0, 864.0, 873.0, 869.0, 874.0, 870.0, 872.0, 869.0, 872.0, 873.0, 872.0, 869.0, 869.0, 869.0, 870.0, 870.0, 874.0, 871.0, 871.0, 866.0, 872.0, 869.0, 872.0, 874.0, 865.0, 864.0, 866.0, 869.0, 871.0, 869.0, 869.0, 867.0, 867.0, 868.0, 869.0, 868.0, 868.0, 865.0, 870.0, 870.0, 871.0, 864.0, 872.0, 869.0, 868.0, 870.0, 866.0, 863.0, 871.0, 867.0, 873.0, 871.0, 870.0, 872.0, 867.0, 872.0, 872.0, 871.0, 871.0, 869.0, 870.0, 865.0, 864.0, 871.0, 870.0, 871.0, 868.0, 869.0, 869.0, 871.0, 871.0, 870.0, 870.0, 865.0, 869.0, 865.0, 867.0, 870.0, 870.0, 872.0, 868.0, 870.0, 872.0, 869.0, 872.0, 870.0, 867.0, 871.0, 866.0, 862.0, 871.0, 865.0, 865.0, 869.0, 867.0, 869.0, 865.0, 867.0, 867.0, 866.0, 868.0, 872.0, 869.0, 873.0, 872.0, 873.0, 874.0, 868.0, 871.0, 870.0, 867.0, 869.0, 865.0, 868.0, 867.0, 868.0, 867.0, 865.0, 869.0, 865.0, 870.0, 868.0, 872.0, 870.0, 866.0, 871.0, 868.0, 871.0, 869.0, 868.0, 865.0, 871.0, 871.0, 871.0, 872.0, 867.0, 869.0, 864.0, 871.0, 867.0, 873.0, 872.0, 871.0, 870.0, 869.0, 869.0, 864.0, 871.0, 867.0, 866.0, 871.0, 868.0, 870.0, 870.0, 869.0, 869.0, 865.0, 870.0, 864.0, 871.0, 865.0, 869.0, 868.0, 871.0, 866.0, 872.0, 870.0, 870.0, 865.0, 869.0, 869.0, 871.0, 871.0, 870.0, 870.0, 870.0, 868.0, 869.0, 868.0, 865.0, 870.0, 871.0, 872.0, 870.0, 865.0, 871.0, 869.0, 869.0, 870.0, 866.0, 871.0, 872.0, 871.0, 871.0, 869.0, 870.0, 866.0, 865.0, 868.0, 869.0, 869.0, 870.0, 868.0, 865.0, 867.0, 865.0, 871.0, 873.0, 867.0, 870.0, 865.0, 867.0, 865.0, 868.0, 874.0, 870.0, 872.0, 869.0, 870.0, 870.0, 869.0, 870.0]
    },
    "slices": {}
  }
}