{
  "AcquisitionMatrixPE": 96,
  "AcquisitionNumber": 1,
  "AcquisitionTime": "13:58:55.775000",
  "BandwidthPerPixelPhaseEncode": 18.939,
  "BaseResolution": 96,
  "BodyPartExamined": "BRAIN",
  "ConsistencyInfo": "N4_VE11C_LATEST_20160120",
  "ConversionSoftware": "dcm2niix",
  "ConversionSoftwareVersion": "v1.0.20170923 (OpenJPEG build) GCC6.3.0",
  "DerivedVendorReportedEchoSpacing": 0.000550011,
  "DeviceSerialNumber": "66112",
  "DwellTime": 2.3e-06,
  "EchoTime": 0.033,
  "EchoTrainLength": 96,
  "EffectiveEchoSpacing": 0.000550011,
  "FlipAngle": 64,
  "ImageType": [
    "ORIGINAL",
    "PRIMARY",
    "FMRI",
    "NONE",
    "ND",
    "NORM",
    "MOSAIC"
],
  "InstitutionAddress": "Maynard_3_Hanover_NH_US_03755",
  "InstitutionName": "Dartmouth_College_-_PBS",
  "MagneticFieldStrength": 3,
  "Manufacturer": "Siemens",
  "ManufacturersModelName": "Prisma",
  "Modality": "MR",
  "MultibandAccelerationFactor": 4,
  "PartialFourier": 1,
  "PercentPhaseFOV": 100,
  "PhaseEncodingDirection": "j-",
  "PhaseEncodingSteps": 96,
  "PhaseResolution": 1,
  "ProcedureStepDescription": "Gobbini_Matteo_1017_famface-angles",
  "ProtocolName": "func_run-06_task-localizer",
  "PulseSequenceDetails": "%SiemensSeq%_ep2d_bold",
  "ReceiveCoilActiveElements": "HEA;HEP",
  "ReceiveCoilName": "Head_32",
  "ReconMatrixPE": 96,
  "RepetitionTime": 1.25,
  "ScanOptions": "FS",
  "ScanningSequence": "EP",
  "SequenceName": "_epfid2d1_96",
  "SequenceVariant": "SK",
  "SeriesDescription": "func_run-06_task-localizer",
  "SliceTiming": [0.88, 0, 0.615, 0.0875, 0.7025, 0.1775, 0.7925, 0.3525, 0.9675, 0.44, 1.055, 0.5275, 1.1425, 0.265, 0.88, 0, 0.615, 0.0875, 0.7025, 0.1775, 0.7925, 0.3525, 0.9675, 0.44, 1.055, 0.5275, 1.1425, 0.265, 0.88, 0, 0.615, 0.0875, 0.7025, 0.1775, 0.7925, 0.3525, 0.9675, 0.44, 1.055, 0.5275, 1.1425, 0.265, 0.88, 0, 0.615, 0.0875, 0.7025, 0.1775, 0.7925, 0.3525, 0.9675, 0.44, 1.055, 0.5275, 1.1425, 0.265],
  "SoftwareVersions": "syngo_MR_E11",
  "StationName": "AWP66112",
  "TaskName": "localizer",
  "TotalReadoutTime": 0.0522511,
  "dcmmeta_affine": [
    [-2.4929685592651367, 0.14112453162670135, -0.12325407564640045, 117.64234924316406],
    [0.12596599757671356, 2.4797537326812744, 0.2914693355560303, -114.42278289794922],
    [-0.13870929181575775, -0.28443923592567444, 2.4798898696899414, -27.26930809020996],
    [0.0, 0.0, 0.0, 1.0]
],
  "dcmmeta_reorient_transform": [
    [0.0, -1.0, 0.0, 95.0],
    [1.0, 0.0, 0.0, 0.0],
    [0.0, 0.0, 1.0, 0.0],
    [0.0, 0.0, 0.0, 1.0]
],
  "dcmmeta_shape": [96, 96, 56, 325],
  "dcmmeta_slice_dim": 2,
  "dcmmeta_version": 0.6,
  "global": {
    "const": {
      "AccessionNumber": "A000383",
      "AcquisitionMatrix": [96, 0, 0, 96],
      "AngioFlag": "N",
      "BitsAllocated": 16,
      "BitsStored": 12,
      "BodyPartExamined": "BRAIN",
      "Columns": 768,
      "EchoNumbers": 1,
      "EchoTime": 33.0,
      "EchoTrainLength": 96,
      "FlipAngle": 64.0,
      "HighBit": 11,
      "ImageOrientationPatient": [0.99718742878056, -0.0503863988316, -0.0554837155821, 0.05644981002514, 0.9919014620432, 0.1137756939978],
      "ImagePositionPatient": [-1016.1044621136, -912.02646729015, -103.25629689871],
      "ImageType": [
        "ORIGINAL",
        "PRIMARY",
        "FMRI",
        "NONE",
        "ND",
        "NORM",
        "MOSAIC"
],
      "ImagedNucleus": "1H",
      "ImagingFrequency": 123.252304,
      "InPlanePhaseEncodingDirection": "COL",
      "MRAcquisitionType": "2D",
      "MagneticFieldStrength": 3.0,
      "Manufacturer": "SIEMENS",
      "ManufacturerModelName": "Prisma",
      "Modality": "MR",
      "NumberOfAverages": 1.0,
      "NumberOfPhaseEncodingSteps": 96,
      "PercentPhaseFieldOfView": 100.0,
      "PercentSampling": 100.0,
      "PerformedProcedureStepStartTime": "130433.400000",
      "PhotometricInterpretation": "MONOCHROME2",
      "PixelBandwidth": 2265.0,
      "PixelRepresentation": 0,
      "PixelSpacing": [2.5, 2.5],
      "PositionReferenceIndicator": "",
      "ProtocolName": "func_run-06_task-localizer",
      "RepetitionTime": 1250.0,
      "Rows": 768,
      "SAR": 0.06345183876469,
      "SamplesPerPixel": 1,
      "ScanOptions": "FS",
      "ScanningSequence": "EP",
      "SequenceName": "*epfid2d1_96",
      "SequenceVariant": "SK",
      "SeriesDescription": "func_run-06_task-localizer",
      "SeriesNumber": 43,
      "SeriesTime": "135857.181000",
      "SliceLocation": -46.190205762839,
      "SliceThickness": 2.5,
      "SmallestImagePixelValue": 0,
      "SoftwareVersions": "syngo MR E11",
      "SpacingBetweenSlices": 2.4999999625902,
      "SpecificCharacterSet": "ISO_IR 100",
      "StudyID": "1",
      "StudyTime": "130433.341000",
      "TransmitCoilName": "Body",
      "VariableFlipAngleFlag": "N",
      "WindowCenterWidthExplanation": "Algo1",
      "dBdt": 0.0},
    "slices": {}
  },
  "time": {
    "samples": {
      "AcquisitionNumber": [1, 2, 3, 4, 5, 6, 7, 8, 9, 10, 11, 12, 13, 14, 15, 16, 17, 18, 19, 20, 21, 22, 23, 24, 25, 26, 27, 28, 29, 30, 31, 32, 33, 34, 35, 36, 37, 38, 39, 40, 41, 42, 43, 44, 45, 46, 47, 48, 49, 50, 51, 52, 53, 54, 55, 56, 57, 58, 59, 60, 61, 62, 63, 64, 65, 66, 67, 68, 69, 70, 71, 72, 73, 74, 75, 76, 77, 78, 79, 80, 81, 82, 83, 84, 85, 86, 87, 88, 89, 90, 91, 92, 93, 94, 95, 96, 97, 98, 99, 100, 101, 102, 103, 104, 105, 106, 107, 108, 109, 110, 111, 112, 113, 114, 115, 116, 117, 118, 119, 120, 121, 122, 123, 124, 125, 126, 127, 128, 129, 130, 131, 132, 133, 134, 135, 136, 137, 138, 139, 140, 141, 142, 143, 144, 145, 146, 147, 148, 149, 150, 151, 152, 153, 154, 155, 156, 157, 158, 159, 160, 161, 162, 163, 164, 165, 166, 167, 168, 169, 170, 171, 172, 173, 174, 175, 176, 177, 178, 179, 180, 181, 182, 183, 184, 185, 186, 187, 188, 189, 190, 191, 192, 193, 194, 195, 196, 197, 198, 199, 200, 201, 202, 203, 204, 205, 206, 207, 208, 209, 210, 211, 212, 213, 214, 215, 216, 217, 218, 219, 220, 221, 222, 223, 224, 225, 226, 227, 228, 229, 230, 231, 232, 233, 234, 235, 236, 237, 238, 239, 240, 241, 242, 243, 244, 245, 246, 247, 248, 249, 250, 251, 252, 253, 254, 255, 256, 257, 258, 259, 260, 261, 262, 263, 264, 265, 266, 267, 268, 269, 270, 271, 272, 273, 274, 275, 276, 277, 278, 279, 280, 281, 282, 283, 284, 285, 286, 287, 288, 289, 290, 291, 292, 293, 294, 295, 296, 297, 298, 299, 300, 301, 302, 303, 304, 305, 306, 307, 308, 309, 310, 311, 312, 313, 314, 315, 316, 317, 318, 319, 320, 321, 322, 323, 324, 325],
      "AcquisitionTime": ["135855.775000", "135857.025000", "135858.275000", "135859.525000", "135900.775000", "135902.025000", "135903.275000", "135904.525000", "135905.775000", "135907.025000", "135908.275000", "135909.525000", "135910.775000", "135912.025000", "135913.275000", "135914.525000", "135915.775000", "135917.025000", "135918.275000", "135919.525000", "135920.775000", "135922.025000", "135923.275000", "135924.525000", "135925.775000", "135927.025000", "135928.275000", "135929.525000", "135930.775000", "135932.025000", "135933.275000", "135934.525000", "135935.775000", "135937.025000", "135938.275000", "135939.525000", "135940.775000", "135942.025000", "135943.275000", "135944.525000", "135945.775000", "135947.025000", "135948.275000", "135949.525000", "135950.775000", "135952.025000", "135953.275000", "135954.525000", "135955.775000", "135957.025000", "135958.275000", "135959.525000", "140000.775000", "140002.025000", "140003.275000", "140004.525000", "140005.775000", "140007.025000", "140008.275000", "140009.525000", "140010.775000", "140012.025000", "140013.275000", "140014.525000", "140015.775000", "140017.025000", "140018.275000", "140019.525000", "140020.775000", "140022.025000", "140023.275000", "140024.525000", "140025.775000", "140027.025000", "140028.275000", "140029.525000", "140030.775000", "140032.025000", "140033.275000", "140034.525000", "140035.775000", "140037.025000", "140038.275000", "140039.525000", "140040.775000", "140042.025000", "140043.275000", "140044.525000", "140045.775000", "140047.025000", "140048.275000", "140049.525000", "140050.775000", "140052.025000", "140053.275000", "140054.525000", "140055.775000", "140057.025000", "140058.275000", "140059.525000", "140100.775000", "140102.025000", "140103.275000", "140104.525000", "140105.775000", "140107.025000", "140108.275000", "140109.525000", "140110.775000", "140112.025000", "140113.275000", "140114.525000", "140115.775000", "140117.025000", "140118.275000", "140119.525000", "140120.775000", "140122.025000", "140123.275000", "140124.525000", "140125.775000", "140127.025000", "140128.275000", "140129.525000", "140130.775000", "140132.025000", "140133.275000", "140134.525000", "140135.775000", "140137.025000", "140138.275000", "140139.525000", "140140.775000", "140142.025000", "140143.275000", "140144.525000", "140145.775000", "140147.025000", "140148.275000", "140149.525000", "140150.775000", "140152.025000", "140153.275000", "140154.525000", "140155.775000", "140157.025000", "140158.275000", "140159.525000", "140200.775000", "140202.025000", "140203.275000", "140204.525000", "140205.775000", "140207.025000", "140208.275000", "140209.525000", "140210.775000", "140212.025000", "140213.275000", "140214.525000", "140215.775000", "140217.025000", "140218.275000", "140219.525000", "140220.775000", "140222.025000", "140223.275000", "140224.525000", "140225.775000", "140227.025000", "140228.275000", "140229.525000", "140230.775000", "140232.025000", "140233.275000", "140234.525000", "140235.775000", "140237.025000", "140238.275000", "140239.525000", "140240.775000", "140242.025000", "140243.275000", "140244.525000", "140245.775000", "140247.025000", "140248.275000", "140249.525000", "140250.775000", "140252.025000", "140253.275000", "140254.525000", "140255.775000", "140257.025000", "140258.275000", "140259.525000", "140300.775000", "140302.025000", "140303.275000", "140304.525000", "140305.775000", "140307.025000", "140308.275000", "140309.525000", "140310.775000", "140312.025000", "140313.275000", "140314.525000", "140315.775000", "140317.025000", "140318.275000", "140319.525000", "140320.775000", "140322.025000", "140323.275000", "140324.525000", "140325.775000", "140327.025000", "140328.275000", "140329.525000", "140330.775000", "140332.025000", "140333.275000", "140334.525000", "140335.775000", "140337.025000", "140338.275000", "140339.525000", "140340.775000", "140342.025000", "140343.275000", "140344.525000", "140345.775000", "140347.025000", "140348.275000", "140349.525000", "140350.775000", "140352.025000", "140353.275000", "140354.525000", "140355.775000", "140357.025000", "140358.275000", "140359.525000", "140400.775000", "140402.025000", "140403.275000", "140404.525000", "140405.775000", "140407.025000", "140408.275000", "140409.525000", "140410.775000", "140412.025000", "140413.275000", "140414.525000", "140415.775000", "140417.025000", "140418.275000", "140419.525000", "140420.775000", "140422.025000", "140423.275000", "140424.525000", "140425.775000", "140427.025000", "140428.275000", "140429.525000", "140430.775000", "140432.025000", "140433.275000", "140434.525000", "140435.775000", "140437.025000", "140438.275000", "140439.525000", "140440.775000", "140442.025000", "140443.275000", "140444.525000", "140445.775000", "140447.025000", "140448.275000", "140449.525000", "140450.775000", "140452.025000", "140453.275000", "140454.525000", "140455.775000", "140457.025000", "140458.275000", "140459.525000", "140500.775000", "140502.025000", "140503.275000", "140504.525000", "140505.775000", "140507.025000", "140508.275000", "140509.525000", "140510.775000", "140512.025000", "140513.275000", "140514.525000", "140515.775000", "140517.025000", "140518.275000", "140519.525000", "140520.775000", "140522.025000", "140523.275000", "140524.525000", "140525.775000", "140527.025000", "140528.275000", "140529.525000", "140530.775000", "140532.025000", "140533.275000", "140534.525000", "140535.775000", "140537.025000", "140538.275000", "140539.525000", "140540.775000"],
      "ContentTime": ["135857.184000", "135858.327000", "135859.574000", "135900.839000", "135902.070000", "135903.316000", "135904.663000", "135905.813000", "135907.093000", "135908.327000", "135909.594000", "135910.802000", "135912.099000", "135913.318000", "135914.535000", "135915.895000", "135917.094000", "135918.358000", "135919.590000", "135920.904000", "135922.054000", "135923.327000", "135924.574000", "135925.814000", "135927.070000", "135928.307000", "135929.572000", "135930.827000", "135932.032000", "135933.318000", "135934.547000", "135935.825000", "135937.053000", "135938.305000", "135939.563000", "135940.827000", "135942.070000", "135943.320000", "135944.575000", "135945.822000", "135947.091000", "135948.350000", "135949.555000", "135950.811000", "135952.048000", "135953.319000", "135954.591000", "135955.819000", "135957.066000", "135958.297000", "135959.566000", "140000.851000", "140002.083000", "140003.335000", "140004.591000", "140005.816000", "140007.085000", "140008.336000", "140009.589000", "140010.829000", "140012.030000", "140013.334000", "140014.584000", "140015.843000", "140017.080000", "140018.369000", "140019.581000", "140020.859000", "140022.089000", "140023.314000", "140024.575000", "140025.887000", "140027.028000", "140028.328000", "140029.576000", "140030.813000", "140032.087000", "140033.334000", "140034.581000", "140035.845000", "140037.045000", "140038.322000", "140039.580000", "140040.805000", "140042.071000", "140043.331000", "140044.564000", "140045.802000", "140047.077000", "140048.330000", "140049.576000", "140050.800000", "140052.046000", "140053.314000", "140054.548000", "140055.856000", "140057.075000", "140058.350000", "140059.556000", "140100.812000", "140102.093000", "140103.380000", "140104.607000", "140105.821000", "140107.088000", "140108.333000", "140109.590000", "140110.850000", "140112.082000", "140113.336000", "140114.595000", "140115.842000", "140117.087000", "140118.338000", "140119.592000", "140120.840000", "140122.095000", "140123.330000", "140124.582000", "140125.848000", "140127.085000", "140128.314000", "140129.558000", "140130.811000", "140132.125000", "140133.368000", "140134.618000", "140135.838000", "140137.094000", "140138.339000", "140139.526000", "140140.837000", "140142.042000", "140143.341000", "140144.574000", "140145.823000", "140147.078000", "140148.325000", "140149.557000", "140150.845000", "140152.055000", "140153.309000", "140154.592000", "140155.843000", "140157.087000", "140158.328000", "140159.585000", "140200.837000", "140202.095000", "140203.333000", "140204.603000", "140205.861000", "140207.083000", "140208.331000", "140209.601000", "140210.796000", "140212.094000", "140213.320000", "140214.604000", "140215.820000", "140217.086000", "140218.300000", "140219.568000", "140220.834000", "140222.033000", "140223.336000", "140224.573000", "140225.825000", "140227.074000", "140228.363000", "140229.603000", "140230.811000", "140232.084000", "140233.313000", "140234.550000", "140235.813000", "140237.080000", "140238.316000", "140239.594000", "140240.820000", "140242.085000", "140243.317000", "140244.576000", "140245.832000", "140247.119000", "140248.365000", "140249.654000", "140250.827000", "140252.105000", "140253.353000", "140254.555000", "140255.852000", "140257.094000", "140258.321000", "140259.593000", "140300.811000", "140302.054000", "140303.337000", "140304.561000", "140305.787000", "140307.079000", "140308.334000", "140309.576000", "140310.859000", "140312.092000", "140313.354000", "140314.596000", "140315.836000", "140317.130000", "140318.301000", "140319.575000", "140320.822000", "140322.058000", "140323.305000", "140324.598000", "140325.857000", "140327.074000", "140328.346000", "140329.578000", "140330.814000", "140332.068000", "140333.316000", "140334.566000", "140335.852000", "140337.079000", "140338.315000", "140339.614000", "140340.851000", "140342.061000", "140343.351000", "140344.579000", "140345.809000", "140347.074000", "140348.335000", "140349.542000", "140350.828000", "140352.109000", "140353.348000", "140354.549000", "140355.852000", "140357.069000", "140358.330000", "140359.581000", "140400.830000", "140402.093000", "140403.386000", "140404.545000", "140405.826000", "140407.089000", "140408.337000", "140409.592000", "140410.830000", "140412.072000", "140413.341000", "140414.586000", "140415.838000", "140417.124000", "140418.347000", "140419.594000", "140420.832000", "140422.061000", "140423.339000", "140424.549000", "140425.850000", "140427.065000", "140428.329000", "140429.584000", "140430.812000", "140432.115000", "140433.315000", "140434.570000", "140435.864000", "140437.086000", "140438.330000", "140439.573000", "140440.794000", "140442.051000", "140443.317000", "140444.546000", "140445.837000", "140447.059000", "140448.355000", "140449.588000", "140450.818000", "140452.073000", "140453.335000", "140454.587000", "140455.829000", "140457.090000", "140458.327000", "140459.591000", "140500.838000", "140502.099000", "140503.339000", "140504.581000", "140505.833000", "140507.087000", "140508.318000", "140509.573000", "140510.834000", "140512.075000", "140513.332000", "140514.573000", "140515.831000", "140517.049000", "140518.320000", "140519.575000", "140520.819000", "140522.065000", "140523.333000", "140524.550000", "140525.840000", "140527.061000", "140528.331000", "140529.582000", "140530.837000", "140532.050000", "140533.355000", "140534.577000", "140535.830000", "140537.107000", "140538.333000", "140539.562000", "140540.822000", "140542.153000"],
      "InstanceCreationTime": ["135857.184000", "135858.327000", "135859.574000", "135900.839000", "135902.070000", "135903.316000", "135904.663000", "135905.813000", "135907.093000", "135908.327000", "135909.594000", "135910.802000", "135912.099000", "135913.318000", "135914.535000", "135915.895000", "135917.094000", "135918.358000", "135919.590000", "135920.904000", "135922.054000", "135923.327000", "135924.574000", "135925.814000", "135927.070000", "135928.307000", "135929.572000", "135930.827000", "135932.032000", "135933.318000", "135934.547000", "135935.825000", "135937.053000", "135938.305000", "135939.563000", "135940.827000", "135942.070000", "135943.320000", "135944.575000", "135945.822000", "135947.091000", "135948.350000", "135949.555000", "135950.811000", "135952.048000", "135953.319000", "135954.591000", "135955.819000", "135957.066000", "135958.297000", "135959.566000", "140000.851000", "140002.083000", "140003.335000", "140004.591000", "140005.816000", "140007.085000", "140008.336000", "140009.589000", "140010.829000", "140012.030000", "140013.334000", "140014.584000", "140015.843000", "140017.080000", "140018.369000", "140019.581000", "140020.859000", "140022.089000", "140023.314000", "140024.575000", "140025.887000", "140027.028000", "140028.328000", "140029.576000", "140030.813000", "140032.087000", "140033.334000", "140034.581000", "140035.845000", "140037.045000", "140038.322000", "140039.580000", "140040.805000", "140042.071000", "140043.331000", "140044.564000", "140045.802000", "140047.077000", "140048.330000", "140049.576000", "140050.800000", "140052.046000", "140053.314000", "140054.548000", "140055.856000", "140057.075000", "140058.350000", "140059.556000", "140100.812000", "140102.093000", "140103.380000", "140104.607000", "140105.821000", "140107.088000", "140108.333000", "140109.590000", "140110.850000", "140112.082000", "140113.336000", "140114.595000", "140115.842000", "140117.087000", "140118.338000", "140119.592000", "140120.840000", "140122.095000", "140123.330000", "140124.582000", "140125.848000", "140127.085000", "140128.314000", "140129.558000", "140130.811000", "140132.125000", "140133.368000", "140134.618000", "140135.838000", "140137.094000", "140138.339000", "140139.526000", "140140.837000", "140142.042000", "140143.341000", "140144.574000", "140145.823000", "140147.078000", "140148.325000", "140149.557000", "140150.845000", "140152.055000", "140153.309000", "140154.592000", "140155.843000", "140157.087000", "140158.328000", "140159.585000", "140200.837000", "140202.095000", "140203.333000", "140204.603000", "140205.861000", "140207.083000", "140208.331000", "140209.601000", "140210.796000", "140212.094000", "140213.320000", "140214.604000", "140215.820000", "140217.086000", "140218.300000", "140219.568000", "140220.834000", "140222.033000", "140223.336000", "140224.573000", "140225.825000", "140227.074000", "140228.363000", "140229.603000", "140230.811000", "140232.084000", "140233.313000", "140234.550000", "140235.813000", "140237.080000", "140238.316000", "140239.594000", "140240.820000", "140242.085000", "140243.317000", "140244.576000", "140245.832000", "140247.119000", "140248.365000", "140249.654000", "140250.827000", "140252.105000", "140253.353000", "140254.555000", "140255.852000", "140257.094000", "140258.321000", "140259.593000", "140300.811000", "140302.054000", "140303.337000", "140304.561000", "140305.787000", "140307.079000", "140308.334000", "140309.576000", "140310.859000", "140312.092000", "140313.354000", "140314.596000", "140315.836000", "140317.130000", "140318.301000", "140319.575000", "140320.822000", "140322.058000", "140323.305000", "140324.598000", "140325.857000", "140327.074000", "140328.346000", "140329.578000", "140330.814000", "140332.068000", "140333.316000", "140334.566000", "140335.852000", "140337.079000", "140338.315000", "140339.614000", "140340.851000", "140342.061000", "140343.351000", "140344.579000", "140345.809000", "140347.074000", "140348.335000", "140349.542000", "140350.828000", "140352.109000", "140353.348000", "140354.549000", "140355.852000", "140357.069000", "140358.330000", "140359.581000", "140400.830000", "140402.093000", "140403.386000", "140404.545000", "140405.826000", "140407.089000", "140408.337000", "140409.592000", "140410.830000", "140412.072000", "140413.341000", "140414.586000", "140415.838000", "140417.124000", "140418.347000", "140419.594000", "140420.832000", "140422.061000", "140423.339000", "140424.549000", "140425.850000", "140427.065000", "140428.329000", "140429.584000", "140430.812000", "140432.115000", "140433.315000", "140434.570000", "140435.864000", "140437.086000", "140438.330000", "140439.573000", "140440.794000", "140442.051000", "140443.317000", "140444.546000", "140445.837000", "140447.059000", "140448.355000", "140449.588000", "140450.818000", "140452.073000", "140453.335000", "140454.587000", "140455.829000", "140457.090000", "140458.327000", "140459.591000", "140500.838000", "140502.099000", "140503.339000", "140504.581000", "140505.833000", "140507.087000", "140508.318000", "140509.573000", "140510.834000", "140512.075000", "140513.332000", "140514.573000", "140515.831000", "140517.049000", "140518.320000", "140519.575000", "140520.819000", "140522.065000", "140523.333000", "140524.550000", "140525.840000", "140527.061000", "140528.331000", "140529.582000", "140530.837000", "140532.050000", "140533.355000", "140534.577000", "140535.830000", "140537.107000", "140538.333000", "140539.562000", "140540.822000", "140542.153000"],
      "InstanceNumber": [1, 2, 3, 4, 5, 6, 7, 8, 9, 10, 11, 12, 13, 14, 15, 16, 17, 18, 19, 20, 21, 22, 23, 24, 25, 26, 27, 28, 29, 30, 31, 32, 33, 34, 35, 36, 37, 38, 39, 40, 41, 42, 43, 44, 45, 46, 47, 48, 49, 50, 51, 52, 53, 54, 55, 56, 57, 58, 59, 60, 61, 62, 63, 64, 65, 66, 67, 68, 69, 70, 71, 72, 73, 74, 75, 76, 77, 78, 79, 80, 81, 82, 83, 84, 85, 86, 87, 88, 89, 90, 91, 92, 93, 94, 95, 96, 97, 98, 99, 100, 101, 102, 103, 104, 105, 106, 107, 108, 109, 110, 111, 112, 113, 114, 115, 116, 117, 118, 119, 120, 121, 122, 123, 124, 125, 126, 127, 128, 129, 130, 131, 132, 133, 134, 135, 136, 137, 138, 139, 140, 141, 142, 143, 144, 145, 146, 147, 148, 149, 150, 151, 152, 153, 154, 155, 156, 157, 158, 159, 160, 161, 162, 163, 164, 165, 166, 167, 168, 169, 170, 171, 172, 173, 174, 175, 176, 177, 178, 179, 180, 181, 182, 183, 184, 185, 186, 187, 188, 189, 190, 191, 192, 193, 194, 195, 196, 197, 198, 199, 200, 201, 202, 203, 204, 205, 206, 207, 208, 209, 210, 211, 212, 213, 214, 215, 216, 217, 218, 219, 220, 221, 222, 223, 224, 225, 226, 227, 228, 229, 230, 231, 232, 233, 234, 235, 236, 237, 238, 239, 240, 241, 242, 243, 244, 245, 246, 247, 248, 249, 250, 251, 252, 253, 254, 255, 256, 257, 258, 259, 260, 261, 262, 263, 264, 265, 266, 267, 268, 269, 270, 271, 272, 273, 274, 275, 276, 277, 278, 279, 280, 281, 282, 283, 284, 285, 286, 287, 288, 289, 290, 291, 292, 293, 294, 295, 296, 297, 298, 299, 300, 301, 302, 303, 304, 305, 306, 307, 308, 309, 310, 311, 312, 313, 314, 315, 316, 317, 318, 319, 320, 321, 322, 323, 324, 325],
      "LargestImagePixelValue": [1528, 1675, 1465, 1193, 1675, 1326, 1769, 1286, 1166, 1658, 1356, 1427, 1805, 1222, 1353, 1386, 1069, 1726, 1191, 1695, 1387, 1662, 1253, 1028, 1714, 1508, 1496, 1656, 1346, 1794, 1259, 1475, 974, 1262, 1809, 1240, 1546, 1215, 1407, 1652, 1131, 957, 1338, 1506, 1676, 1893, 1463, 1971, 1543, 1488, 1153, 1018, 1287, 1836, 1262, 1626, 1303, 1183, 1223, 1658, 1160, 1651, 1346, 1668, 1249, 1673, 1493, 959, 1670, 1146, 1539, 1692, 1492, 1260, 1623, 1148, 1644, 1191, 1578, 1310, 1495, 1200, 1371, 1796, 1266, 1134, 1627, 1475, 1733, 1561, 1466, 1766, 1401, 1057, 1036, 1515, 1736, 1513, 1578, 1429, 1475, 1767, 1157, 1653, 1305, 1736, 1500, 1196, 1605, 1542, 1462, 1446, 1627, 1144, 1062, 1351, 1797, 1517, 1541, 1545, 894, 1458, 1406, 1592, 1272, 1616, 1215, 1539, 1135, 1709, 1182, 1545, 1173, 1433, 1645, 1327, 953, 1639, 1152, 1649, 1435, 1335, 1633, 1475, 1542, 1645, 1354, 1564, 1162, 1491, 1583, 1257, 1591, 1098, 926, 1576, 1620, 1542, 1157, 1686, 1526, 1450, 1337, 968, 1484, 1660, 1516, 1681, 1413, 1656, 1536, 1649, 1154, 1609, 998, 1511, 1109, 1428, 1152, 971, 1698, 1366, 1688, 1691, 1519, 1592, 1198, 1503, 1582, 995, 1448, 1034, 933, 1717, 1214, 1707, 1338, 1777, 1458, 1084, 1751, 1438, 1630, 1538, 1571, 1323, 1645, 1135, 1613, 988, 1463, 971, 1131, 1553, 1004, 1569, 1222, 1166, 1569, 1241, 1643, 1457, 1380, 1783, 1392, 1300, 1772, 943, 1632, 1585, 1229, 1620, 1336, 1125, 887, 1465, 1636, 1636, 1605, 1557, 1137, 1709, 1393, 1725, 1479, 1251, 1699, 1341, 1640, 1192, 1506, 1357, 965, 908, 1394, 1109, 1696, 1363, 1583, 1837, 1296, 1703, 1412, 1639, 1133, 942, 1582, 1433, 1709, 1627, 1533, 1356, 1784, 1267, 1554, 1072, 1224, 1343, 1004, 1676, 1250, 1563, 1409, 1043, 1665, 1340, 1397, 1606, 1055, 1609, 1467, 1049, 1587, 1345, 1500, 1122, 1569, 1085, 1621, 1249, 1560, 1380, 1368, 1101, 1502, 1448, 1364, 1624, 1420, 1339, 1280, 1580, 1662, 1486, 1337, 1595, 1469, 1592, 1607, 1247, 1576, 1050, 1450, 1212, 1592],
      "WindowCenter": [415.0, 415.0, 413.0, 411.0, 414.0, 412.0, 414.0, 411.0, 410.0, 413.0, 411.0, 411.0, 412.0, 410.0, 411.0, 412.0, 409.0, 414.0, 411.0, 414.0, 412.0, 413.0, 411.0, 409.0, 415.0, 413.0, 412.0, 413.0, 410.0, 413.0, 410.0, 412.0, 407.0, 411.0, 414.0, 411.0, 413.0, 410.0, 412.0, 414.0, 411.0, 409.0, 413.0, 415.0, 415.0, 414.0, 412.0, 413.0, 411.0, 411.0, 409.0, 408.0, 411.0, 414.0, 411.0, 412.0, 411.0, 410.0, 410.0, 414.0, 410.0, 413.0, 411.0, 413.0, 411.0, 413.0, 412.0, 408.0, 414.0, 410.0, 413.0, 414.0, 413.0, 411.0, 413.0, 410.0, 413.0, 411.0, 413.0, 411.0, 412.0, 410.0, 412.0, 414.0, 411.0, 410.0, 413.0, 414.0, 415.0, 414.0, 413.0, 413.0, 412.0, 409.0, 409.0, 414.0, 414.0, 413.0, 413.0, 412.0, 413.0, 414.0, 410.0, 413.0, 411.0, 414.0, 412.0, 410.0, 413.0, 412.0, 412.0, 411.0, 412.0, 409.0, 409.0, 412.0, 414.0, 413.0, 412.0, 412.0, 406.0, 412.0, 412.0, 413.0, 411.0, 412.0, 408.0, 412.0, 409.0, 413.0, 410.0, 412.0, 409.0, 412.0, 413.0, 411.0, 408.0, 413.0, 410.0, 413.0, 412.0, 411.0, 413.0, 413.0, 413.0, 413.0, 411.0, 412.0, 410.0, 412.0, 413.0, 411.0, 413.0, 409.0, 406.0, 413.0, 414.0, 413.0, 410.0, 413.0, 411.0, 412.0, 410.0, 407.0, 412.0, 413.0, 413.0, 413.0, 411.0, 412.0, 411.0, 413.0, 409.0, 413.0, 408.0, 413.0, 410.0, 413.0, 410.0, 409.0, 414.0, 412.0, 414.0, 413.0, 412.0, 411.0, 409.0, 412.0, 412.0, 408.0, 412.0, 409.0, 408.0, 415.0, 412.0, 414.0, 412.0, 414.0, 412.0, 409.0, 413.0, 412.0, 412.0, 411.0, 411.0, 410.0, 412.0, 408.0, 411.0, 407.0, 411.0, 408.0, 410.0, 413.0, 408.0, 413.0, 411.0, 411.0, 413.0, 411.0, 413.0, 412.0, 411.0, 413.0, 412.0, 411.0, 414.0, 407.0, 413.0, 413.0, 410.0, 412.0, 411.0, 408.0, 407.0, 413.0, 413.0, 414.0, 413.0, 412.0, 409.0, 413.0, 412.0, 413.0, 412.0, 410.0, 413.0, 411.0, 412.0, 409.0, 412.0, 411.0, 408.0, 407.0, 413.0, 411.0, 414.0, 412.0, 413.0, 413.0, 410.0, 412.0, 410.0, 412.0, 408.0, 407.0, 413.0, 412.0, 414.0, 413.0, 412.0, 411.0, 413.0, 410.0, 412.0, 409.0, 410.0, 411.0, 408.0, 413.0, 411.0, 413.0, 412.0, 409.0, 413.0, 410.0, 403.0, 416.0, 409.0, 412.0, 412.0, 408.0, 412.0, 411.0, 412.0, 409.0, 413.0, 409.0, 414.0, 411.0, 413.0, 413.0, 412.0, 410.0, 413.0, 412.0, 412.0, 413.0, 412.0, 411.0, 411.0, 414.0, 413.0, 413.0, 413.0, 413.0, 413.0, 413.0, 412.0, 410.0, 412.0, 409.0, 412.0, 411.0, 413.0],
