{
  "AcquisitionMatrixPE": 96,
  "AcquisitionNumber": 1,
  "AcquisitionTime": "13:25:0.427500",
  "BandwidthPerPixelPhaseEncode": 18.939,
  "BaseResolution": 96,
  "BodyPartExamined": "BRAIN",
  "ConsistencyInfo": "N4_VE11C_LATEST_20160120",
  "ConversionSoftware": "dcm2niix",
  "ConversionSoftwareVersion": "v1.0.20170923 (OpenJPEG build) GCC6.3.0",
  "DerivedVendorReportedEchoSpacing": 0.000550011,
  "DeviceSerialNumber": "66112",
  "DwellTime": 2.3e-06,
  "EchoTime": 0.033,
  "EchoTrainLength": 96,
  "EffectiveEchoSpacing": 0.000550011,
  "FlipAngle": 64,
  "ImageType": [
    "ORIGINAL",
    "PRIMARY",
    "FMRI",
    "NONE",
    "ND",
    "NORM",
    "MOSAIC"
],
  "InstitutionAddress": "Maynard_3_Hanover_NH_US_03755",
  "InstitutionName": "Dartmouth_College_-_PBS",
  "MagneticFieldStrength": 3,
  "Manufacturer": "Siemens",
  "ManufacturersModelName": "Prisma",
  "Modality": "MR",
  "MultibandAccelerationFactor": 4,
  "PartialFourier": 1,
  "PercentPhaseFOV": 100,
  "PhaseEncodingDirection": "j-",
  "PhaseEncodingSteps": 96,
  "PhaseResolution": 1,
  "ProcedureStepDescription": "Gobbini_Matteo_1017_famface-angles",
  "ProtocolName": "func_run-01_task-fam1back",
  "PulseSequenceDetails": "%SiemensSeq%_ep2d_bold",
  "ReceiveCoilActiveElements": "HEA;HEP",
  "ReceiveCoilName": "Head_32",
  "ReconMatrixPE": 96,
  "RepetitionTime": 1.25,
  "ScanOptions": "FS",
  "ScanningSequence": "EP",
  "SequenceName": "_epfid2d1_96",
  "SequenceVariant": "SK",
  "SeriesDescription": "func_run-01_task-fam1back",
  "SliceTiming": [0.8775, 0, 0.615, 0.0875, 0.7025, 0.175, 0.79, 0.35, 0.965, 0.44, 1.055, 0.5275, 1.1425, 0.2625, 0.8775, 0, 0.615, 0.0875, 0.7025, 0.175, 0.79, 0.35, 0.965, 0.44, 1.055, 0.5275, 1.1425, 0.2625, 0.8775, 0, 0.615, 0.0875, 0.7025, 0.175, 0.79, 0.35, 0.965, 0.44, 1.055, 0.5275, 1.1425, 0.2625, 0.8775, 0, 0.615, 0.0875, 0.7025, 0.175, 0.79, 0.35, 0.965, 0.44, 1.055, 0.5275, 1.1425, 0.2625],
  "SoftwareVersions": "syngo_MR_E11",
  "StationName": "AWP66112",
  "TaskName": "fam1back",
  "TotalReadoutTime": 0.0522511,
  "dcmmeta_affine": [
    [-2.4929685592651367, 0.14112453162670135, -0.12325407564640045, 117.64234924316406],
    [0.12596599757671356, 2.4797537326812744, 0.2914693355560303, -114.42278289794922],
    [-0.13870929181575775, -0.28443923592567444, 2.4798898696899414, -27.26930809020996],
    [0.0, 0.0, 0.0, 1.0]
],
  "dcmmeta_reorient_transform": [
    [0.0, -1.0, 0.0, 95.0],
    [1.0, 0.0, 0.0, 0.0],
    [0.0, 0.0, 1.0, 0.0],
    [0.0, 0.0, 0.0, 1.0]
],
  "dcmmeta_shape": [96, 96, 56, 280],
  "dcmmeta_slice_dim": 2,
  "dcmmeta_version": 0.6,
  "global": {
    "const": {
      "AccessionNumber": "A000383",
      "AcquisitionMatrix": [96, 0, 0, 96],
      "AngioFlag": "N",
      "BitsAllocated": 16,
      "BitsStored": 12,
      "BodyPartExamined": "BRAIN",
      "Columns": 768,
      "EchoNumbers": 1,
      "EchoTime": 33.0,
      "EchoTrainLength": 96,
      "FlipAngle": 64.0,
      "HighBit": 11,
      "ImageOrientationPatient": [0.99718742878056, -0.0503863988316, -0.0554837155821, 0.05644981002514, 0.9919014620432, 0.1137756939978],
      "ImagePositionPatient": [-1016.1044621136, -912.02646729015, -103.25629689871],
      "ImageType": [
        "ORIGINAL",
        "PRIMARY",
        "FMRI",
        "NONE",
        "ND",
        "NORM",
        "MOSAIC"
],
      "ImagedNucleus": "1H",
      "ImagingFrequency": 123.252298,
      "InPlanePhaseEncodingDirection": "COL",
      "MRAcquisitionType": "2D",
      "MagneticFieldStrength": 3.0,
      "Manufacturer": "SIEMENS",
      "ManufacturerModelName": "Prisma",
      "Modality": "MR",
      "NumberOfAverages": 1.0,
      "NumberOfPhaseEncodingSteps": 96,
      "PercentPhaseFieldOfView": 100.0,
      "PercentSampling": 100.0,
      "PerformedProcedureStepStartTime": "130433.400000",
      "PhotometricInterpretation": "MONOCHROME2",
      "PixelBandwidth": 2265.0,
      "PixelRepresentation": 0,
      "PixelSpacing": [2.5, 2.5],
      "PositionReferenceIndicator": "",
      "ProtocolName": "func_run-01_task-fam1back",
      "RepetitionTime": 1250.0,
      "Rows": 768,
      "SAR": 0.06336566567384,
      "SamplesPerPixel": 1,
      "ScanOptions": "FS",
      "ScanningSequence": "EP",
      "SequenceName": "*epfid2d1_96",
      "SequenceVariant": "SK",
      "SeriesDescription": "func_run-01_task-fam1back",
      "SeriesNumber": 8,
      "SeriesTime": "132502.214000",
      "SliceLocation": -46.190205762839,
      "SliceThickness": 2.5,
      "SmallestImagePixelValue": 0,
      "SoftwareVersions": "syngo MR E11",
      "SpacingBetweenSlices": 2.4999999625902,
      "SpecificCharacterSet": "ISO_IR 100",
      "StudyID": "1",
      "StudyTime": "130433.341000",
      "TransmitCoilName": "Body",
      "VariableFlipAngleFlag": "N",
      "WindowCenterWidthExplanation": "Algo1",
      "dBdt": 0.0},
    "slices": {}
  },
  "time": {
    "samples": {
      "AcquisitionNumber": [1, 2, 3, 4, 5, 6, 7, 8, 9, 10, 11, 12, 13, 14, 15, 16, 17, 18, 19, 20, 21, 22, 23, 24, 25, 26, 27, 28, 29, 30, 31, 32, 33, 34, 35, 36, 37, 38, 39, 40, 41, 42, 43, 44, 45, 46, 47, 48, 49, 50, 51, 52, 53, 54, 55, 56, 57, 58, 59, 60, 61, 62, 63, 64, 65, 66, 67, 68, 69, 70, 71, 72, 73, 74, 75, 76, 77, 78, 79, 80, 81, 82, 83, 84, 85, 86, 87, 88, 89, 90, 91, 92, 93, 94, 95, 96, 97, 98, 99, 100, 101, 102, 103, 104, 105, 106, 107, 108, 109, 110, 111, 112, 113, 114, 115, 116, 117, 118, 119, 120, 121, 122, 123, 124, 125, 126, 127, 128, 129, 130, 131, 132, 133, 134, 135, 136, 137, 138, 139, 140, 141, 142, 143, 144, 145, 146, 147, 148, 149, 150, 151, 152, 153, 154, 155, 156, 157, 158, 159, 160, 161, 162, 163, 164, 165, 166, 167, 168, 169, 170, 171, 172, 173, 174, 175, 176, 177, 178, 179, 180, 181, 182, 183, 184, 185, 186, 187, 188, 189, 190, 191, 192, 193, 194, 195, 196, 197, 198, 199, 200, 201, 202, 203, 204, 205, 206, 207, 208, 209, 210, 211, 212, 213, 214, 215, 216, 217, 218, 219, 220, 221, 222, 223, 224, 225, 226, 227, 228, 229, 230, 231, 232, 233, 234, 235, 236, 237, 238, 239, 240, 241, 242, 243, 244, 245, 246, 247, 248, 249, 250, 251, 252, 253, 254, 255, 256, 257, 258, 259, 260, 261, 262, 263, 264, 265, 266, 267, 268, 269, 270, 271, 272, 273, 274, 275, 276, 277, 278, 279, 280],
      "AcquisitionTime": ["132500.427500", "132501.677500", "132502.927500", "132504.177500", "132505.427500", "132506.677500", "132507.927500", "132509.177500", "132510.427500", "132511.677500", "132512.927500", "132514.177500", "132515.427500", "132516.677500", "132517.927500", "132519.177500", "132520.427500", "132521.677500", "132522.927500", "132524.177500", "132525.427500", "132526.677500", "132527.927500", "132529.177500", "132530.427500", "132531.677500", "132532.927500", "132534.177500", "132535.427500", "132536.677500", "132537.927500", "132539.177500", "132540.427500", "132541.677500", "132542.927500", "132544.177500", "132545.427500", "132546.677500", "132547.927500", "132549.177500", "132550.427500", "132551.677500", "132552.927500", "132554.177500", "132555.427500", "132556.677500", "132557.927500", "132559.177500", "132600.427500", "132601.677500", "132602.927500", "132604.177500", "132605.427500", "132606.677500", "132607.927500", "132609.177500", "132610.427500", "132611.677500", "132612.927500", "132614.177500", "132615.427500", "132616.677500", "132617.927500", "132619.177500", "132620.427500", "132621.677500", "132622.927500", "132624.177500", "132625.427500", "132626.677500", "132627.927500", "132629.177500", "132630.427500", "132631.677500", "132632.927500", "132634.177500", "132635.427500", "132636.677500", "132637.927500", "132639.177500", "132640.427500", "132641.677500", "132642.927500", "132644.177500", "132645.427500", "132646.677500", "132647.927500", "132649.177500", "132650.427500", "132651.677500", "132652.927500", "132654.177500", "132655.427500", "132656.677500", "132657.927500", "132659.177500", "132700.427500", "132701.677500", "132702.927500", "132704.177500", "132705.427500", "132706.677500", "132707.927500", "132709.177500", "132710.427500", "132711.677500", "132712.927500", "132714.177500", "132715.427500", "132716.677500", "132717.927500", "132719.177500", "132720.427500", "132721.677500", "132722.927500", "132724.177500", "132725.427500", "132726.677500", "132727.927500", "132729.177500", "132730.427500", "132731.677500", "132732.927500", "132734.177500", "132735.427500", "132736.677500", "132737.927500", "132739.177500", "132740.427500", "132741.677500", "132742.927500", "132744.177500", "132745.427500", "132746.677500", "132747.927500", "132749.177500", "132750.427500", "132751.677500", "132752.927500", "132754.177500", "132755.427500", "132756.677500", "132757.927500", "132759.177500", "132800.427500", "132801.677500", "132802.927500", "132804.177500", "132805.427500", "132806.677500", "132807.927500", "132809.177500", "132810.427500", "132811.677500", "132812.927500", "132814.177500", "132815.427500", "132816.677500", "132817.927500", "132819.177500", "132820.427500", "132821.677500", "132822.927500", "132824.177500", "132825.427500", "132826.677500", "132827.927500", "132829.177500", "132830.427500", "132831.677500", "132832.927500", "132834.177500", "132835.427500", "132836.677500", "132837.927500", "132839.177500", "132840.427500", "132841.677500", "132842.927500", "132844.177500", "132845.427500", "132846.677500", "132847.927500", "132849.177500", "132850.427500", "132851.677500", "132852.927500", "132854.177500", "132855.427500", "132856.677500", "132857.927500", "132859.177500", "132900.427500", "132901.677500", "132902.927500", "132904.177500", "132905.427500", "132906.677500", "132907.927500", "132909.177500", "132910.427500", "132911.677500", "132912.927500", "132914.177500", "132915.427500", "132916.677500", "132917.927500", "132919.177500", "132920.427500", "132921.677500", "132922.927500", "132924.177500", "132925.427500", "132926.677500", "132927.927500", "132929.177500", "132930.427500", "132931.677500", "132932.927500", "132934.177500", "132935.427500", "132936.677500", "132937.927500", "132939.177500", "132940.427500", "132941.677500", "132942.927500", "132944.177500", "132945.427500", "132946.677500", "132947.927500", "132949.177500", "132950.427500", "132951.677500", "132952.927500", "132954.177500", "132955.427500", "132956.677500", "132957.927500", "132959.177500", "133000.427500", "133001.677500", "133002.927500", "133004.177500", "133005.427500", "133006.677500", "133007.927500", "133009.177500", "133010.427500", "133011.677500", "133012.927500", "133014.177500", "133015.427500", "133016.677500", "133017.927500", "133019.177500", "133020.427500", "133021.677500", "133022.927500", "133024.177500", "133025.427500", "133026.677500", "133027.927500", "133029.177500", "133030.427500", "133031.677500", "133032.927500", "133034.177500", "133035.427500", "133036.677500", "133037.927500", "133039.177500", "133040.427500", "133041.677500", "133042.927500", "133044.177500", "133045.427500", "133046.677500", "133047.927500", "133049.177500"],
      "ContentTime": ["132502.218000", "132503.280000", "132504.538000", "132505.795000", "132507.043000", "132508.268000", "132509.524000", "132510.793000", "132512.031000", "132513.257000", "132514.543000", "132515.756000", "132517.009000", "132518.246000", "132519.541000", "132520.762000", "132522.019000", "132523.278000", "132524.519000", "132525.742000", "132527.039000", "132528.258000", "132529.529000", "132530.749000", "132532.045000", "132533.284000", "132534.507000", "132535.755000", "132537.040000", "132538.258000", "132539.528000", "132540.768000", "132542.015000", "132543.281000", "132544.518000", "132545.786000", "132547.003000", "132548.281000", "132549.525000", "132550.755000", "132552.043000", "132553.270000", "132554.507000", "132555.795000", "132557.039000", "132558.267000", "132559.520000", "132600.775000", "132602.029000", "132603.281000", "132604.544000", "132605.789000", "132606.974000", "132608.250000", "132609.524000", "132610.767000", "132612.006000", "132613.279000", "132614.529000", "132615.777000", "132617.015000", "132618.274000", "132619.484000", "132620.767000", "132622.031000", "132623.248000", "132624.525000", "132625.777000", "132626.995000", "132628.265000", "132629.532000", "132630.789000", "132632.041000", "132633.259000", "132634.542000", "132635.793000", "132637.023000", "132638.288000", "132639.515000", "132640.771000", "132642.022000", "132643.269000", "132644.526000", "132645.781000", "132646.996000", "132648.275000", "132649.488000", "132650.772000", "132652.009000", "132653.277000", "132654.523000", "132655.783000", "132657.017000", "132658.282000", "132659.535000", "132700.741000", "132702.027000", "132703.266000", "132704.519000", "132705.767000", "132707.034000", "132708.306000", "132709.525000", "132710.778000", "132712.043000", "132713.272000", "132714.539000", "132715.802000", "132717.050000", "132718.348000", "132719.550000", "132720.800000", "132722.033000", "132723.311000", "132724.525000", "132725.839000", "132727.067000", "132728.316000", "132729.520000", "132730.793000", "132732.040000", "132733.284000", "132734.524000", "132735.769000", "132737.049000", "132738.284000", "132739.544000", "132740.784000", "132742.043000", "132743.263000", "132744.515000", "132745.788000", "132747.050000", "132748.293000", "132749.572000", "132750.765000", "132752.003000", "132753.289000", "132754.546000", "132755.814000", "132757.050000", "132758.309000", "132759.514000", "132800.765000", "132802.016000", "132803.279000", "132804.533000", "132805.790000", "132807.029000", "132808.300000", "132809.512000", "132810.801000", "132812.037000", "132813.285000", "132814.539000", "132815.794000", "132817.025000", "132818.307000", "132819.529000", "132820.770000", "132822.009000", "132823.292000", "132824.527000", "132825.870000", "132827.043000", "132828.342000", "132829.541000", "132830.762000", "132832.058000", "132833.287000", "132834.526000", "132835.808000", "132837.034000", "132838.303000", "132839.543000", "132840.806000", "132842.018000", "132843.294000", "132844.509000", "132845.801000", "132847.033000", "132848.270000", "132849.553000", "132850.789000", "132852.013000", "132853.296000", "132854.543000", "132855.780000", "132856.996000", "132858.284000", "132859.537000", "132900.784000", "132902.023000", "132903.301000", "132904.520000", "132905.791000", "132907.057000", "132908.250000", "132909.543000", "132910.769000", "132912.031000", "132913.280000", "132914.551000", "132915.780000", "132917.040000", "132918.283000", "132919.514000", "132920.776000", "132922.025000", "132923.281000", "132924.559000", "132925.778000", "132927.021000", "132928.293000", "132929.519000", "132930.784000", "132932.131000", "132933.290000", "132934.511000", "132935.803000", "132937.043000", "132938.282000", "132939.555000", "132940.797000", "132942.022000", "132943.310000", "132944.519000", "132945.772000", "132947.010000", "132948.259000", "132949.539000", "132950.799000", "132952.068000", "132953.282000", "132954.495000", "132955.778000", "132957.023000", "132958.276000", "132959.519000", "133000.793000", "133002.010000", "133003.277000", "133004.534000", "133005.807000", "133007.016000", "133008.240000", "133009.532000", "133010.788000", "133012.003000", "133013.286000", "133014.545000", "133015.778000", "133017.024000", "133018.270000", "133019.544000", "133020.789000", "133022.035000", "133023.279000", "133024.522000", "133025.775000", "133027.036000", "133028.273000", "133029.548000", "133030.807000", "133032.020000", "133033.268000", "133034.523000", "133035.766000", "133037.024000", "133038.306000", "133039.538000", "133040.778000", "133042.026000", "133043.287000", "133044.510000", "133045.781000", "133047.094000", "133048.331000", "133049.486000", "133050.845000"],
      "InstanceCreationTime": ["132502.218000", "132503.280000", "132504.538000", "132505.795000", "132507.043000", "132508.268000", "132509.524000", "132510.793000", "132512.031000", "132513.257000", "132514.543000", "132515.756000", "132517.009000", "132518.246000", "132519.541000", "132520.762000", "132522.019000", "132523.278000", "132524.519000", "132525.742000", "132527.039000", "132528.258000", "132529.529000", "132530.749000", "132532.045000", "132533.284000", "132534.507000", "132535.755000", "132537.040000", "132538.258000", "132539.528000", "132540.768000", "132542.015000", "132543.281000", "132544.518000", "132545.786000", "132547.003000", "132548.281000", "132549.525000", "132550.755000", "132552.043000", "132553.270000", "132554.507000", "132555.795000", "132557.039000", "132558.267000", "132559.520000", "132600.775000", "132602.029000", "132603.281000", "132604.544000", "132605.789000", "132606.974000", "132608.250000", "132609.524000", "132610.767000", "132612.006000", "132613.279000", "132614.529000", "132615.777000", "132617.015000", "132618.274000", "132619.484000", "132620.767000", "132622.031000", "132623.248000", "132624.525000", "132625.777000", "132626.995000", "132628.265000", "132629.532000", "132630.789000", "132632.041000", "132633.259000", "132634.542000", "132635.793000", "132637.023000", "132638.288000", "132639.515000", "132640.771000", "132642.022000", "132643.269000", "132644.526000", "132645.781000", "132646.996000", "132648.275000", "132649.488000", "132650.772000", "132652.009000", "132653.277000", "132654.523000", "132655.783000", "132657.017000", "132658.282000", "132659.535000", "132700.741000", "132702.027000", "132703.266000", "132704.519000", "132705.767000", "132707.034000", "132708.306000", "132709.525000", "132710.778000", "132712.043000", "132713.272000", "132714.539000", "132715.802000", "132717.050000", "132718.348000", "132719.550000", "132720.800000", "132722.033000", "132723.311000", "132724.525000", "132725.839000", "132727.067000", "132728.316000", "132729.520000", "132730.793000", "132732.040000", "132733.284000", "132734.524000", "132735.769000", "132737.049000", "132738.284000", "132739.544000", "132740.784000", "132742.043000", "132743.263000", "132744.515000", "132745.788000", "132747.050000", "132748.293000", "132749.572000", "132750.765000", "132752.003000", "132753.289000", "132754.546000", "132755.814000", "132757.050000", "132758.309000", "132759.514000", "132800.765000", "132802.016000", "132803.279000", "132804.533000", "132805.790000", "132807.029000", "132808.300000", "132809.512000", "132810.801000", "132812.037000", "132813.285000", "132814.539000", "132815.794000", "132817.025000", "132818.307000", "132819.529000", "132820.770000", "132822.009000", "132823.292000", "132824.527000", "132825.870000", "132827.043000", "132828.342000", "132829.541000", "132830.762000", "132832.058000", "132833.287000", "132834.526000", "132835.808000", "132837.034000", "132838.303000", "132839.543000", "132840.806000", "132842.018000", "132843.294000", "132844.509000", "132845.801000", "132847.033000", "132848.270000", "132849.553000", "132850.789000", "132852.013000", "132853.296000", "132854.543000", "132855.780000", "132856.996000", "132858.284000", "132859.537000", "132900.784000", "132902.023000", "132903.301000", "132904.520000", "132905.791000", "132907.057000", "132908.250000", "132909.543000", "132910.769000", "132912.031000", "132913.280000", "132914.551000", "132915.780000", "132917.040000", "132918.283000", "132919.514000", "132920.776000", "132922.025000", "132923.281000", "132924.559000", "132925.778000", "132927.021000", "132928.293000", "132929.519000", "132930.784000", "132932.131000", "132933.290000", "132934.511000", "132935.803000", "132937.043000", "132938.282000", "132939.555000", "132940.797000", "132942.022000", "132943.310000", "132944.519000", "132945.772000", "132947.010000", "132948.259000", "132949.539000", "132950.799000", "132952.068000", "132953.282000", "132954.495000", "132955.778000", "132957.023000", "132958.276000", "132959.519000", "133000.793000", "133002.010000", "133003.277000", "133004.534000", "133005.807000", "133007.016000", "133008.240000", "133009.532000", "133010.788000", "133012.003000", "133013.286000", "133014.545000", "133015.778000", "133017.024000", "133018.270000", "133019.544000", "133020.789000", "133022.035000", "133023.279000", "133024.522000", "133025.775000", "133027.036000", "133028.273000", "133029.548000", "133030.807000", "133032.020000", "133033.268000", "133034.523000", "133035.766000", "133037.024000", "133038.306000", "133039.538000", "133040.778000", "133042.026000", "133043.287000", "133044.510000", "133045.781000", "133047.094000", "133048.331000", "133049.486000", "133050.845000"],
      "InstanceNumber": [1, 2, 3, 4, 5, 6, 7, 8, 9, 10, 11, 12, 13, 14, 15, 16, 17, 18, 19, 20, 21, 22, 23, 24, 25, 26, 27, 28, 29, 30, 31, 32, 33, 34, 35, 36, 37, 38, 39, 40, 41, 42, 43, 44, 45, 46, 47, 48, 49, 50, 51, 52, 53, 54, 55, 56, 57, 58, 59, 60, 61, 62, 63, 64, 65, 66, 67, 68, 69, 70, 71, 72, 73, 74, 75, 76, 77, 78, 79, 80, 81, 82, 83, 84, 85, 86, 87, 88, 89, 90, 91, 92, 93, 94, 95, 96, 97, 98, 99, 100, 101, 102, 103, 104, 105, 106, 107, 108, 109, 110, 111, 112, 113, 114, 115, 116, 117, 118, 119, 120, 121, 122, 123, 124, 125, 126, 127, 128, 129, 130, 131, 132, 133, 134, 135, 136, 137, 138, 139, 140, 141, 142, 143, 144, 145, 146, 147, 148, 149, 150, 151, 152, 153, 154, 155, 156, 157, 158, 159, 160, 161, 162, 163, 164, 165, 166, 167, 168, 169, 170, 171, 172, 173, 174, 175, 176, 177, 178, 179, 180, 181, 182, 183, 184, 185, 186, 187, 188, 189, 190, 191, 192, 193, 194, 195, 196, 197, 198, 199, 200, 201, 202, 203, 204, 205, 206, 207, 208, 209, 210, 211, 212, 213, 214, 215, 216, 217, 218, 219, 220, 221, 222, 223, 224, 225, 226, 227, 228, 229, 230, 231, 232, 233, 234, 235, 236, 237, 238, 239, 240, 241, 242, 243, 244, 245, 246, 247, 248, 249, 250, 251, 252, 253, 254, 255, 256, 257, 258, 259, 260, 261, 262, 263, 264, 265, 266, 267, 268, 269, 270, 271, 272, 273, 274, 275, 276, 277, 278, 279, 280],
      "LargestImagePixelValue": [1346, 1928, 1324, 1899, 1025, 1552, 1591, 1824, 1588, 1909, 1511, 974, 1544, 1146, 1383, 1104, 1510, 1474, 1062, 1789, 1064, 1698, 1276, 1813, 1631, 1683, 1021, 1525, 1230, 1800, 1462, 1756, 1697, 1402, 1224, 1561, 1459, 1283, 1538, 980, 1242, 1764, 1275, 1783, 1394, 1729, 1544, 990, 1828, 1253, 1816, 1514, 1809, 1716, 1063, 1736, 1400, 1771, 1812, 1458, 1049, 1603, 1309, 1783, 1100, 1028, 1453, 1030, 1868, 1205, 1847, 1417, 1317, 1117, 1449, 1797, 1732, 1647, 1068, 1799, 1341, 1639, 1740, 1419, 1583, 1555, 1504, 1044, 1668, 1117, 1777, 1208, 1794, 1515, 1137, 1805, 1164, 1584, 1523, 1391, 971, 1654, 1727, 1559, 1125, 1625, 1380, 1018, 1501, 1020, 1505, 1447, 1788, 1231, 1624, 1135, 1656, 1521, 1671, 1626, 1128, 1437, 1048, 1452, 1567, 1570, 1725, 1718, 1294, 1166, 1509, 1409, 1202, 1665, 1226, 1770, 1452, 1087, 1645, 1345, 1671, 1383, 1523, 1357, 1443, 1568, 1064, 1571, 1032, 1642, 1410, 1574, 1702, 1037, 1070, 1636, 1729, 1770, 1604, 1413, 1566, 1749, 1349, 1594, 1410, 1716, 1439, 981, 1718, 1740, 1141, 1366, 1647, 1293, 1644, 997, 1677, 1214, 1732, 1554, 1246, 1404, 1574, 1579, 1098, 1689, 1252, 1344, 1721, 1081, 1744, 1329, 1690, 1035, 1620, 1264, 1018, 1797, 1689, 1326, 1723, 1363, 1186, 1731, 996, 1592, 1469, 1749, 1493, 1335, 1755, 1016, 1605, 1566, 1720, 1710, 1544, 1130, 1426, 1105, 1689, 1630, 1621, 1622, 1546, 1635, 1106, 1792, 1239, 1114, 1781, 1505, 1073, 1073, 1579, 1100, 1462, 1445, 1590, 1046, 1812, 1450, 1711, 1069, 1800, 1342, 1580, 1780, 1526, 1636, 1570, 1258, 1431, 1294, 1681, 1325, 1577, 1619, 1177, 1118, 1363, 1469, 1874, 1611, 1389, 1723, 1495, 1059, 1767, 1320, 1747, 1325, 1641, 1547, 1010, 1728, 1176, 1362, 1525, 1074],
      "WindowCenter": [414.0, 416.0, 413.0, 415.0, 409.0, 413.0, 414.0, 413.0, 412.0, 413.0, 410.0, 406.0, 411.0, 409.0, 411.0, 410.0, 413.0, 413.0, 409.0, 414.0, 409.0, 414.0, 412.0, 415.0, 414.0, 414.0, 409.0, 413.0, 412.0, 415.0, 414.0, 415.0, 415.0, 413.0, 411.0, 414.0, 413.0, 411.0, 414.0, 408.0, 411.0, 415.0, 413.0, 414.0, 413.0, 413.0, 413.0, 408.0, 414.0, 411.0, 415.0, 414.0, 414.0, 414.0, 409.0, 413.0, 412.0, 414.0, 414.0, 412.0, 409.0, 413.0, 411.0, 414.0, 409.0, 409.0, 412.0, 409.0, 415.0, 411.0, 415.0, 413.0, 412.0, 411.0, 414.0, 415.0, 415.0, 414.0, 410.0, 415.0, 413.0, 414.0, 415.0, 413.0, 413.0, 413.0, 412.0, 409.0, 414.0, 410.0, 415.0, 412.0, 415.0, 414.0, 411.0, 415.0, 411.0, 414.0, 413.0, 412.0, 408.0, 414.0, 414.0, 414.0, 411.0, 413.0, 412.0, 408.0, 413.0, 410.0, 414.0, 413.0, 415.0, 412.0, 414.0, 411.0, 414.0, 413.0, 414.0, 413.0, 409.0, 412.0, 409.0, 413.0, 414.0, 414.0, 414.0, 414.0, 412.0, 410.0, 413.0, 413.0, 411.0, 413.0, 411.0, 415.0, 413.0, 410.0, 414.0, 412.0, 413.0, 413.0, 413.0, 412.0, 413.0, 414.0, 409.0, 414.0, 410.0, 414.0, 413.0, 414.0, 416.0, 410.0, 412.0, 416.0, 416.0, 416.0, 414.0, 413.0, 413.0, 414.0, 412.0, 414.0, 413.0, 414.0, 412.0, 408.0, 413.0, 414.0, 411.0, 412.0, 414.0, 412.0, 414.0, 409.0, 414.0, 412.0, 414.0, 414.0, 411.0, 412.0, 413.0, 413.0, 410.0, 414.0, 411.0, 412.0, 414.0, 410.0, 414.0, 412.0, 414.0, 410.0, 414.0, 412.0, 409.0, 414.0, 414.0, 412.0, 414.0, 412.0, 410.0, 414.0, 409.0, 413.0, 413.0, 414.0, 413.0, 411.0, 414.0, 408.0, 414.0, 414.0, 414.0, 414.0, 413.0, 410.0, 412.0, 410.0, 414.0, 414.0, 413.0, 413.0, 412.0, 412.0, 408.0, 413.0, 410.0, 409.0, 413.0, 412.0, 410.0, 410.0, 413.0, 410.0, 413.0, 413.0, 414.0, 410.0, 415.0, 413.0, 414.0, 410.0, 415.0, 413.0, 414.0, 414.0, 413.0, 413.0, 413.0, 410.0, 411.0, 411.0, 413.0, 412.0, 413.0, 413.0, 410.0, 409.0, 412.0, 413.0, 415.0, 414.0, 412.0, 414.0, 412.0, 409.0, 414.0, 412.0, 414.0, 411.0, 413.0, 412.0, 408.0, 414.0, 411.0, 412.0, 413.0, 410.0],
      "WindowWidth": [875.0, 876.0, 871.0, 873.0, 866.0, 871.0, 872.0, 871.0, 869.0, 869.0, 866.0, 860.0, 868.0, 865.0, 868.0, 866.0, 870.0, 871.0, 866.0, 872.0, 866.0, 872.0, 869.0, 873.0, 872.0, 872.0, 866.0, 871.0, 870.0, 873.0, 872.0, 873.0, 873.0, 870.0, 868.0, 872.0, 871.0, 869.0, 872.0, 864.0, 869.0, 874.0, 871.0, 872.0, 870.0, 870.0, 870.0, 864.0, 873.0, 869.0, 873.0, 872.0, 872.0, 873.0, 865.0, 871.0, 870.0, 872.0, 872.0, 870.0, 865.0, 871.0, 868.0, 872.0, 866.0, 865.0, 870.0, 866.0, 873.0, 868.0, 873.0, 871.0, 869.0, 868.0, 872.0, 874.0, 874.0, 873.0, 867.0, 874.0, 872.0, 873.0, 874.0, 871.0, 871.0, 871.0, 870.0, 865.0, 872.0, 867.0, 873.0, 869.0, 873.0, 872.0, 868.0, 873.0, 868.0, 872.0, 871.0, 869.0, 865.0, 872.0, 873.0, 872.0, 868.0, 871.0, 869.0, 864.0, 871.0, 866.0, 872.0, 872.0, 873.0, 869.0, 872.0, 868.0, 873.0, 871.0, 872.0, 870.0, 865.0, 869.0, 865.0, 871.0, 872.0, 872.0, 872.0, 872.0, 869.0, 867.0, 871.0, 870.0, 868.0, 871.0, 868.0, 873.0, 872.0, 867.0, 872.0, 870.0, 871.0, 870.0, 870.0, 870.0, 870.0, 872.0, 866.0, 872.0, 867.0, 873.0, 872.0, 873.0, 875.0, 868.0, 870.0, 876.0, 876.0, 876.0, 873.0, 871.0, 871.0, 873.0, 870.0, 872.0, 870.0, 872.0, 869.0, 863.0, 870.0, 872.0, 868.0, 870.0, 872.0, 869.0, 871.0, 866.0, 873.0, 870.0, 873.0, 873.0, 868.0, 868.0, 870.0, 870.0, 867.0, 872.0, 868.0, 869.0, 873.0, 866.0, 871.0, 869.0, 873.0, 867.0, 872.0, 870.0, 865.0, 872.0, 872.0, 870.0, 872.0, 869.0, 866.0, 871.0, 865.0, 871.0, 871.0, 872.0, 870.0, 868.0, 871.0, 864.0, 872.0, 873.0, 873.0, 873.0, 870.0, 866.0, 869.0, 867.0, 873.0, 872.0, 871.0, 870.0, 869.0, 869.0, 863.0, 870.0, 866.0, 864.0, 871.0, 869.0, 866.0, 866.0, 871.0, 866.0, 870.0, 872.0, 872.0, 867.0, 874.0, 872.0, 872.0, 866.0, 873.0, 871.0, 872.0, 873.0, 871.0, 871.0, 871.0, 866.0, 868.0, 868.0, 871.0, 869.0, 870.0, 871.0, 866.0, 866.0, 870.0, 871.0, 874.0, 872.0, 870.0, 872.0, 869.0, 865.0, 872.0, 869.0, 871.0, 868.0, 870.0, 869.0, 864.0, 872.0, 868.0, 870.0, 871.0, 866.0]
    },
    "slices": {}
  }
}