{
  "AcquisitionMatrixPE": 96,
  "AcquisitionNumber": 1,
  "AcquisitionTime": "14:12:42.082500",
  "BandwidthPerPixelPhaseEncode": 18.939,
  "BaseResolution": 96,
  "BodyPartExamined": "BRAIN",
  "ConsistencyInfo": "N4_VE11C_LATEST_20160120",
  "ConversionSoftware": "dcm2niix",
  "ConversionSoftwareVersion": "v1.0.20170923 (OpenJPEG build) GCC6.3.0",
  "DerivedVendorReportedEchoSpacing": 0.000550011,
  "DeviceSerialNumber": "66112",
  "DwellTime": 2.3e-06,
  "EchoTime": 0.033,
  "EchoTrainLength": 96,
  "EffectiveEchoSpacing": 0.000550011,
  "FlipAngle": 64,
  "ImageType": [
    "ORIGINAL",
    "PRIMARY",
    "FMRI",
    "NONE",
    "ND",
    "NORM",
    "MOSAIC"
],
  "InstitutionAddress": "Maynard_3_Hanover_NH_US_03755",
  "InstitutionName": "Dartmouth_College_-_PBS",
  "MagneticFieldStrength": 3,
  "Manufacturer": "Siemens",
  "ManufacturersModelName": "Prisma",
  "Modality": "MR",
  "MultibandAccelerationFactor": 4,
  "PartialFourier": 1,
  "PercentPhaseFOV": 100,
  "PhaseEncodingDirection": "j-",
  "PhaseEncodingSteps": 96,
  "PhaseResolution": 1,
  "ProcedureStepDescription": "Gobbini_Matteo_1017_famface-angles",
  "ProtocolName": "func_run-08_task-fam1back",
  "PulseSequenceDetails": "%SiemensSeq%_ep2d_bold",
  "ReceiveCoilActiveElements": "HEA;HEP",
  "ReceiveCoilName": "Head_32",
  "ReconMatrixPE": 96,
  "RepetitionTime": 1.25,
  "ScanOptions": "FS",
  "ScanningSequence": "EP",
  "SequenceName": "_epfid2d1_96",
  "SequenceVariant": "SK",
  "SeriesDescription": "func_run-08_task-fam1back",
  "SliceTiming": [0.8775, 0, 0.615, 0.0875, 0.7025, 0.175, 0.79, 0.3525, 0.9675, 0.44, 1.055, 0.5275, 1.1425, 0.265, 0.8775, 0, 0.615, 0.0875, 0.7025, 0.175, 0.79, 0.3525, 0.9675, 0.44, 1.055, 0.5275, 1.1425, 0.265, 0.8775, 0, 0.615, 0.0875, 0.7025, 0.175, 0.79, 0.3525, 0.9675, 0.44, 1.055, 0.5275, 1.1425, 0.265, 0.8775, 0, 0.615, 0.0875, 0.7025, 0.175, 0.79, 0.3525, 0.9675, 0.44, 1.055, 0.5275, 1.1425, 0.265],
  "SoftwareVersions": "syngo_MR_E11",
  "StationName": "AWP66112",
  "TaskName": "fam1back",
  "TotalReadoutTime": 0.0522511,
  "dcmmeta_affine": [
    [-2.4929685592651367, 0.14112453162670135, -0.12325407564640045, 117.64234924316406],
    [0.12596599757671356, 2.4797537326812744, 0.2914693355560303, -114.42278289794922],
    [-0.13870929181575775, -0.28443923592567444, 2.4798898696899414, -27.26930809020996],
    [0.0, 0.0, 0.0, 1.0]
],
  "dcmmeta_reorient_transform": [
    [0.0, -1.0, 0.0, 95.0],
    [1.0, 0.0, 0.0, 0.0],
    [0.0, 0.0, 1.0, 0.0],
    [0.0, 0.0, 0.0, 1.0]
],
  "dcmmeta_shape": [96, 96, 56, 280],
  "dcmmeta_slice_dim": 2,
  "dcmmeta_version": 0.6,
  "global": {
    "const": {
      "AccessionNumber": "A000383",
      "AcquisitionMatrix": [96, 0, 0, 96],
      "AngioFlag": "N",
      "BitsAllocated": 16,
      "BitsStored": 12,
      "BodyPartExamined": "BRAIN",
      "Columns": 768,
      "EchoNumbers": 1,
      "EchoTime": 33.0,
      "EchoTrainLength": 96,
      "FlipAngle": 64.0,
      "HighBit": 11,
      "ImageOrientationPatient": [0.99718742878056, -0.0503863988316, -0.0554837155821, 0.05644981002514, 0.9919014620432, 0.1137756939978],
      "ImagePositionPatient": [-1016.1044621136, -912.02646729015, -103.25629689871],
      "ImageType": [
        "ORIGINAL",
        "PRIMARY",
        "FMRI",
        "NONE",
        "ND",
        "NORM",
        "MOSAIC"
],
      "ImagedNucleus": "1H",
      "ImagingFrequency": 123.252305,
      "InPlanePhaseEncodingDirection": "COL",
      "MRAcquisitionType": "2D",
      "MagneticFieldStrength": 3.0,
      "Manufacturer": "SIEMENS",
      "ManufacturerModelName": "Prisma",
      "Modality": "MR",
      "NumberOfAverages": 1.0,
      "NumberOfPhaseEncodingSteps": 96,
      "PercentPhaseFieldOfView": 100.0,
      "PercentSampling": 100.0,
      "PerformedProcedureStepStartTime": "130433.400000",
      "PhotometricInterpretation": "MONOCHROME2",
      "PixelBandwidth": 2265.0,
      "PixelRepresentation": 0,
      "PixelSpacing": [2.5, 2.5],
      "PositionReferenceIndicator": "",
      "ProtocolName": "func_run-08_task-fam1back",
      "RepetitionTime": 1250.0,
      "Rows": 768,
      "SAR": 0.06336566567384,
      "SamplesPerPixel": 1,
      "ScanOptions": "FS",
      "ScanningSequence": "EP",
      "SequenceName": "*epfid2d1_96",
      "SequenceVariant": "SK",
      "SeriesDescription": "func_run-08_task-fam1back",
      "SeriesNumber": 57,
      "SeriesTime": "141243.927000",
      "SliceLocation": -46.190205762839,
      "SliceThickness": 2.5,
      "SmallestImagePixelValue": 0,
      "SoftwareVersions": "syngo MR E11",
      "SpacingBetweenSlices": 2.4999999625902,
      "SpecificCharacterSet": "ISO_IR 100",
      "StudyID": "1",
      "StudyTime": "130433.341000",
      "TransmitCoilName": "Body",
      "VariableFlipAngleFlag": "N",
      "WindowCenterWidthExplanation": "Algo1",
      "dBdt": 0.0},
    "slices": {}
  },
  "time": {
    "samples": {
      "AcquisitionNumber": [1, 2, 3, 4, 5, 6, 7, 8, 9, 10, 11, 12, 13, 14, 15, 16, 17, 18, 19, 20, 21, 22, 23, 24, 25, 26, 27, 28, 29, 30, 31, 32, 33, 34, 35, 36, 37, 38, 39, 40, 41, 42, 43, 44, 45, 46, 47, 48, 49, 50, 51, 52, 53, 54, 55, 56, 57, 58, 59, 60, 61, 62, 63, 64, 65, 66, 67, 68, 69, 70, 71, 72, 73, 74, 75, 76, 77, 78, 79, 80, 81, 82, 83, 84, 85, 86, 87, 88, 89, 90, 91, 92, 93, 94, 95, 96, 97, 98, 99, 100, 101, 102, 103, 104, 105, 106, 107, 108, 109, 110, 111, 112, 113, 114, 115, 116, 117, 118, 119, 120, 121, 122, 123, 124, 125, 126, 127, 128, 129, 130, 131, 132, 133, 134, 135, 136, 137, 138, 139, 140, 141, 142, 143, 144, 145, 146, 147, 148, 149, 150, 151, 152, 153, 154, 155, 156, 157, 158, 159, 160, 161, 162, 163, 164, 165, 166, 167, 168, 169, 170, 171, 172, 173, 174, 175, 176, 177, 178, 179, 180, 181, 182, 183, 184, 185, 186, 187, 188, 189, 190, 191, 192, 193, 194, 195, 196, 197, 198, 199, 200, 201, 202, 203, 204, 205, 206, 207, 208, 209, 210, 211, 212, 213, 214, 215, 216, 217, 218, 219, 220, 221, 222, 223, 224, 225, 226, 227, 228, 229, 230, 231, 232, 233, 234, 235, 236, 237, 238, 239, 240, 241, 242, 243, 244, 245, 246, 247, 248, 249, 250, 251, 252, 253, 254, 255, 256, 257, 258, 259, 260, 261, 262, 263, 264, 265, 266, 267, 268, 269, 270, 271, 272, 273, 274, 275, 276, 277, 278, 279, 280],
      "AcquisitionTime": ["141242.082500", "141243.332500", "141244.582500", "141245.832500", "141247.082500", "141248.332500", "141249.582500", "141250.832500", "141252.082500", "141253.332500", "141254.582500", "141255.832500", "141257.082500", "141258.332500", "141259.582500", "141300.832500", "141302.082500", "141303.332500", "141304.582500", "141305.832500", "141307.082500", "141308.332500", "141309.582500", "141310.832500", "141312.082500", "141313.332500", "141314.582500", "141315.832500", "141317.082500", "141318.332500", "141319.582500", "141320.832500", "141322.082500", "141323.332500", "141324.582500", "141325.832500", "141327.082500", "141328.332500", "141329.582500", "141330.832500", "141332.082500", "141333.332500", "141334.582500", "141335.832500", "141337.082500", "141338.332500", "141339.582500", "141340.832500", "141342.082500", "141343.332500", "141344.582500", "141345.832500", "141347.082500", "141348.332500", "141349.582500", "141350.832500", "141352.082500", "141353.332500", "141354.582500", "141355.832500", "141357.082500", "141358.332500", "141359.582500", "141400.832500", "141402.082500", "141403.332500", "141404.582500", "141405.832500", "141407.082500", "141408.332500", "141409.582500", "141410.832500", "141412.082500", "141413.332500", "141414.582500", "141415.832500", "141417.082500", "141418.332500", "141419.582500", "141420.832500", "141422.082500", "141423.332500", "141424.582500", "141425.832500", "141427.082500", "141428.332500", "141429.582500", "141430.832500", "141432.082500", "141433.332500", "141434.582500", "141435.832500", "141437.082500", "141438.332500", "141439.582500", "141440.832500", "141442.082500", "141443.332500", "141444.582500", "141445.832500", "141447.082500", "141448.332500", "141449.582500", "141450.832500", "141452.082500", "141453.332500", "141454.582500", "141455.832500", "141457.082500", "141458.332500", "141459.582500", "141500.832500", "141502.082500", "141503.332500", "141504.582500", "141505.832500", "141507.082500", "141508.332500", "141509.582500", "141510.832500", "141512.082500", "141513.332500", "141514.582500", "141515.832500", "141517.082500", "141518.332500", "141519.582500", "141520.832500", "141522.082500", "141523.332500", "141524.582500", "141525.832500", "141527.082500", "141528.332500", "141529.582500", "141530.832500", "141532.082500", "141533.332500", "141534.582500", "141535.832500", "141537.082500", "141538.332500", "141539.582500", "141540.832500", "141542.082500", "141543.332500", "141544.582500", "141545.832500", "141547.082500", "141548.332500", "141549.582500", "141550.832500", "141552.082500", "141553.332500", "141554.582500", "141555.832500", "141557.082500", "141558.332500", "141559.582500", "141600.832500", "141602.082500", "141603.332500", "141604.582500", "141605.832500", "141607.082500", "141608.332500", "141609.582500", "141610.832500", "141612.082500", "141613.332500", "141614.582500", "141615.832500", "141617.082500", "141618.332500", "141619.582500", "141620.832500", "141622.082500", "141623.332500", "141624.582500", "141625.832500", "141627.082500", "141628.332500", "141629.582500", "141630.832500", "141632.082500", "141633.332500", "141634.582500", "141635.832500", "141637.082500", "141638.332500", "141639.582500", "141640.832500", "141642.082500", "141643.332500", "141644.582500", "141645.832500", "141647.082500", "141648.332500", "141649.582500", "141650.832500", "141652.082500", "141653.332500", "141654.582500", "141655.832500", "141657.082500", "141658.332500", "141659.582500", "141700.832500", "141702.082500", "141703.332500", "141704.582500", "141705.832500", "141707.082500", "141708.332500", "141709.582500", "141710.832500", "141712.082500", "141713.332500", "141714.582500", "141715.832500", "141717.082500", "141718.332500", "141719.582500", "141720.832500", "141722.082500", "141723.332500", "141724.582500", "141725.832500", "141727.082500", "141728.332500", "141729.582500", "141730.832500", "141732.082500", "141733.332500", "141734.582500", "141735.832500", "141737.082500", "141738.332500", "141739.582500", "141740.832500", "141742.082500", "141743.332500", "141744.582500", "141745.832500", "141747.082500", "141748.332500", "141749.582500", "141750.832500", "141752.082500", "141753.332500", "141754.582500", "141755.832500", "141757.082500", "141758.332500", "141759.582500", "141800.832500", "141802.082500", "141803.332500", "141804.582500", "141805.832500", "141807.082500", "141808.332500", "141809.582500", "141810.832500", "141812.082500", "141813.332500", "141814.582500", "141815.832500", "141817.082500", "141818.332500", "141819.582500", "141820.832500", "141822.082500", "141823.332500", "141824.582500", "141825.832500", "141827.082500", "141828.332500", "141829.582500", "141830.832500"],
      "ContentTime": ["141243.931000", "141245.016000", "141246.266000", "141247.516000", "141248.802000", "141250.015000", "141251.248000", "141252.503000", "141253.748000", "141255.007000", "141256.260000", "141257.478000", "141258.755000", "141300.038000", "141301.235000", "141302.501000", "141303.768000", "141305.010000", "141306.259000", "141307.494000", "141308.695000", "141309.989000", "141311.221000", "141312.496000", "141313.760000", "141315.021000", "141316.234000", "141317.508000", "141318.731000", "141319.971000", "141321.240000", "141322.495000", "141323.737000", "141325.008000", "141326.229000", "141327.488000", "141328.726000", "141330.015000", "141331.261000", "141332.527000", "141333.774000", "141335.001000", "141336.263000", "141337.487000", "141338.758000", "141340.011000", "141341.228000", "141342.503000", "141343.752000", "141344.994000", "141346.211000", "141347.469000", "141348.758000", "141349.995000", "141351.277000", "141352.493000", "141353.744000", "141355.039000", "141356.257000", "141357.512000", "141358.742000", "141400.019000", "141401.289000", "141402.514000", "141403.739000", "141405.074000", "141406.232000", "141407.503000", "141408.747000", "141410.017000", "141411.254000", "141412.505000", "141413.734000", "141415.018000", "141416.254000", "141417.508000", "141418.804000", "141419.982000", "141421.242000", "141422.483000", "141423.738000", "141424.995000", "141426.243000", "141427.502000", "141428.736000", "141429.983000", "141431.257000", "141432.483000", "141433.730000", "141434.997000", "141436.240000", "141437.489000", "141438.725000", "141439.986000", "141441.253000", "141442.468000", "141443.758000", "141445.015000", "141446.217000", "141447.474000", "141448.774000", "141450.013000", "141451.238000", "141452.539000", "141453.766000", "141455.007000", "141456.270000", "141457.505000", "141458.750000", "141500.005000", "141501.275000", "141502.488000", "141503.735000", "141505.006000", "141506.271000", "141507.529000", "141508.745000", "141510.010000", "141511.248000", "141512.503000", "141513.748000", "141514.984000", "141516.245000", "141517.502000", "141518.835000", "141520.019000", "141521.261000", "141522.517000", "141523.719000", "141525.023000", "141526.264000", "141527.514000", "141528.758000", "141530.038000", "141531.248000", "141532.494000", "141533.737000", "141535.003000", "141536.269000", "141537.537000", "141538.724000", "141539.996000", "141541.252000", "141542.514000", "141543.766000", "141545.004000", "141546.266000", "141547.517000", "141548.780000", "141550.007000", "141551.255000", "141552.504000", "141553.752000", "141554.996000", "141556.270000", "141557.520000", "141558.782000", "141600.003000", "141601.262000", "141602.507000", "141603.769000", "141605.006000", "141606.270000", "141607.509000", "141608.763000", "141610.019000", "141611.248000", "141612.507000", "141613.749000", "141614.978000", "141616.268000", "141617.531000", "141618.757000", "141620.003000", "141621.248000", "141622.507000", "141623.765000", "141625.002000", "141626.262000", "141627.501000", "141628.769000", "141630.002000", "141631.266000", "141632.498000", "141633.730000", "141635.004000", "141636.209000", "141637.503000", "141638.764000", "141639.991000", "141641.250000", "141642.516000", "141643.755000", "141645.021000", "141646.255000", "141647.531000", "141648.765000", "141650.000000", "141651.256000", "141652.483000", "141653.773000", "141654.988000", "141656.225000", "141657.494000", "141658.755000", "141659.970000", "141701.260000", "141702.500000", "141703.780000", "141705.035000", "141706.261000", "141707.491000", "141708.795000", "141710.013000", "141711.273000", "141712.494000", "141713.774000", "141715.001000", "141716.252000", "141717.499000", "141718.761000", "141719.994000", "141721.306000", "141722.518000", "141723.769000", "141724.962000", "141726.229000", "141727.532000", "141728.778000", "141729.989000", "141731.240000", "141732.496000", "141733.740000", "141735.014000", "141736.246000", "141737.525000", "141738.743000", "141739.984000", "141741.256000", "141742.508000", "141743.760000", "141745.003000", "141746.235000", "141747.515000", "141748.744000", "141750.001000", "141751.281000", "141752.530000", "141753.741000", "141755.013000", "141756.267000", "141757.516000", "141758.759000", "141759.998000", "141801.243000", "141802.526000", "141803.760000", "141805.004000", "141806.299000", "141807.540000", "141808.747000", "141810.002000", "141811.247000", "141812.475000", "141813.724000", "141815.055000", "141816.255000", "141817.498000", "141818.751000", "141819.990000", "141821.283000", "141822.516000", "141823.758000", "141824.994000", "141826.252000", "141827.509000", "141828.774000", "141830.007000", "141831.277000", "141832.563000"],
      "InstanceCreationTime": ["141243.931000", "141245.016000", "141246.266000", "141247.516000", "141248.802000", "141250.015000", "141251.248000", "141252.503000", "141253.748000", "141255.007000", "141256.260000", "141257.478000", "141258.755000", "141300.038000", "141301.235000", "141302.501000", "141303.768000", "141305.010000", "141306.259000", "141307.494000", "141308.695000", "141309.989000", "141311.221000", "141312.496000", "141313.760000", "141315.021000", "141316.234000", "141317.508000", "141318.731000", "141319.971000", "141321.240000", "141322.495000", "141323.737000", "141325.008000", "141326.229000", "141327.488000", "141328.726000", "141330.015000", "141331.261000", "141332.527000", "141333.774000", "141335.001000", "141336.263000", "141337.487000", "141338.758000", "141340.011000", "141341.228000", "141342.503000", "141343.752000", "141344.994000", "141346.211000", "141347.469000", "141348.758000", "141349.995000", "141351.277000", "141352.493000", "141353.744000", "141355.039000", "141356.257000", "141357.512000", "141358.742000", "141400.019000", "141401.289000", "141402.514000", "141403.739000", "141405.074000", "141406.232000", "141407.503000", "141408.747000", "141410.017000", "141411.254000", "141412.505000", "141413.734000", "141415.018000", "141416.254000", "141417.508000", "141418.804000", "141419.982000", "141421.242000", "141422.483000", "141423.738000", "141424.995000", "141426.243000", "141427.502000", "141428.736000", "141429.983000", "141431.257000", "141432.483000", "141433.730000", "141434.997000", "141436.240000", "141437.489000", "141438.725000", "141439.986000", "141441.253000", "141442.468000", "141443.758000", "141445.015000", "141446.217000", "141447.474000", "141448.774000", "141450.013000", "141451.238000", "141452.539000", "141453.766000", "141455.007000", "141456.270000", "141457.505000", "141458.750000", "141500.005000", "141501.275000", "141502.488000", "141503.735000", "141505.006000", "141506.271000", "141507.529000", "141508.745000", "141510.010000", "141511.248000", "141512.503000", "141513.748000", "141514.984000", "141516.245000", "141517.502000", "141518.835000", "141520.019000", "141521.261000", "141522.517000", "141523.719000", "141525.023000", "141526.264000", "141527.514000", "141528.758000", "141530.038000", "141531.248000", "141532.494000", "141533.737000", "141535.003000", "141536.269000", "141537.537000", "141538.724000", "141539.996000", "141541.252000", "141542.514000", "141543.766000", "141545.004000", "141546.266000", "141547.517000", "141548.780000", "141550.007000", "141551.255000", "141552.504000", "141553.752000", "141554.996000", "141556.270000", "141557.520000", "141558.782000", "141600.003000", "141601.262000", "141602.507000", "141603.769000", "141605.006000", "141606.270000", "141607.509000", "141608.763000", "141610.019000", "141611.248000", "141612.507000", "141613.749000", "141614.978000", "141616.268000", "141617.531000", "141618.757000", "141620.003000", "141621.248000", "141622.507000", "141623.765000", "141625.002000", "141626.262000", "141627.501000", "141628.769000", "141630.002000", "141631.266000", "141632.498000", "141633.730000", "141635.004000", "141636.209000", "141637.503000", "141638.764000", "141639.991000", "141641.250000", "141642.516000", "141643.755000", "141645.021000", "141646.255000", "141647.531000", "141648.765000", "141650.000000", "141651.256000", "141652.483000", "141653.773000", "141654.988000", "141656.225000", "141657.494000", "141658.755000", "141659.970000", "141701.260000", "141702.500000", "141703.780000", "141705.035000", "141706.261000", "141707.491000", "141708.795000", "141710.013000", "141711.273000", "141712.494000", "141713.774000", "141715.001000", "141716.252000", "141717.499000", "141718.761000", "141719.994000", "141721.306000", "141722.518000", "141723.769000", "141724.962000", "141726.229000", "141727.532000", "141728.778000", "141729.989000", "141731.240000", "141732.496000", "141733.740000", "141735.014000", "141736.246000", "141737.525000", "141738.743000", "141739.984000", "141741.256000", "141742.508000", "141743.760000", "141745.003000", "141746.235000", "141747.515000", "141748.744000", "141750.001000", "141751.281000", "141752.530000", "141753.741000", "141755.013000", "141756.267000", "141757.516000", "141758.759000", "141759.998000", "141801.243000", "141802.526000", "141803.760000", "141805.004000", "141806.299000", "141807.540000", "141808.747000", "141810.002000", "141811.247000", "141812.475000", "141813.724000", "141815.055000", "141816.255000", "141817.498000", "141818.751000", "141819.990000", "141821.283000", "141822.516000", "141823.758000", "141824.994000", "141826.252000", "141827.509000", "141828.774000", "141830.007000", "141831.277000", "141832.563000"],
      "InstanceNumber": [1, 2, 3, 4, 5, 6, 7, 8, 9, 10, 11, 12, 13, 14, 15, 16, 17, 18, 19, 20, 21, 22, 23, 24, 25, 26, 27, 28, 29, 30, 31, 32, 33, 34, 35, 36, 37, 38, 39, 40, 41, 42, 43, 44, 45, 46, 47, 48, 49, 50, 51, 52, 53, 54, 55, 56, 57, 58, 59, 60, 61, 62, 63, 64, 65, 66, 67, 68, 69, 70, 71, 72, 73, 74, 75, 76, 77, 78, 79, 80, 81, 82, 83, 84, 85, 86, 87, 88, 89, 90, 91, 92, 93, 94, 95, 96, 97, 98, 99, 100, 101, 102, 103, 104, 105, 106, 107, 108, 109, 110, 111, 112, 113, 114, 115, 116, 117, 118, 119, 120, 121, 122, 123, 124, 125, 126, 127, 128, 129, 130, 131, 132, 133, 134, 135, 136, 137, 138, 139, 140, 141, 142, 143, 144, 145, 146, 147, 148, 149, 150, 151, 152, 153, 154, 155, 156, 157, 158, 159, 160, 161, 162, 163, 164, 165, 166, 167, 168, 169, 170, 171, 172, 173, 174, 175, 176, 177, 178, 179, 180, 181, 182, 183, 184, 185, 186, 187, 188, 189, 190, 191, 192, 193, 194, 195, 196, 197, 198, 199, 200, 201, 202, 203, 204, 205, 206, 207, 208, 209, 210, 211, 212, 213, 214, 215, 216, 217, 218, 219, 220, 221, 222, 223, 224, 225, 226, 227, 228, 229, 230, 231, 232, 233, 234, 235, 236, 237, 238, 239, 240, 241, 242, 243, 244, 245, 246, 247, 248, 249, 250, 251, 252, 253, 254, 255, 256, 257, 258, 259, 260, 261, 262, 263, 264, 265, 266, 267, 268, 269, 270, 271, 272, 273, 274, 275, 276, 277, 278, 279, 280],
      "LargestImagePixelValue": [1086, 1620, 1396, 1500, 1366, 1362, 1519, 1006, 1571, 1458, 1343, 1526, 1264, 1609, 1427, 1278, 924, 1183, 1406, 1486, 1394, 1366, 1310, 1424, 1526, 1541, 1302, 1005, 1421, 1221, 1326, 1443, 1395, 1453, 1027, 1426, 999, 1069, 1491, 1074, 1644, 1513, 1018, 1515, 1141, 1326, 1210, 1274, 1242, 1384, 1435, 1066, 1415, 1386, 1202, 1620, 1299, 1438, 1148, 1538, 1659, 1206, 1547, 1023, 1369, 1073, 1761, 1419, 1590, 1522, 976, 1489, 951, 1174, 1167, 1331, 1518, 1239, 1447, 1047, 1086, 1542, 1136, 1445, 1288, 1480, 1115, 1331, 1308, 1492, 1612, 998, 1457, 1520, 1562, 1346, 1362, 1688, 1248, 1202, 1069, 996, 1464, 1259, 1468, 1389, 1020, 1533, 1399, 1051, 1154, 923, 1176, 1494, 1511, 1235, 1789, 1379, 970, 1290, 942, 963, 916, 1161, 1483, 1562, 1508, 1383, 1755, 1491, 957, 1462, 946, 1259, 1289, 1432, 1566, 1601, 1125, 1608, 1145, 1466, 1129, 930, 1157, 934, 1525, 1318, 1490, 1855, 1574, 1547, 1273, 1439, 1139, 1009, 948, 1132, 1002, 1431, 1469, 1525, 1689, 1497, 1535, 1571, 1159, 1183, 1086, 1410, 1416, 1496, 1532, 1485, 1551, 1006, 1401, 1437, 1350, 1065, 1607, 1487, 1304, 1211, 1477, 1032, 1529, 1054, 1528, 1259, 1478, 1336, 1510, 1225, 934, 1499, 1194, 1363, 1114, 1188, 1132, 1437, 1347, 1496, 1283, 1341, 1525, 970, 1457, 1577, 1578, 1607, 1278, 1591, 1336, 1205, 1008, 1135, 1298, 1009, 1109, 1306, 1395, 1578, 1627, 1308, 1679, 1333, 1553, 1256, 1360, 1211, 1286, 1525, 1587, 1369, 1994, 1338, 1190, 1234, 1309, 1002, 1339, 1109, 924, 1613, 1573, 1379, 1923, 1474, 1112, 1051, 921, 1377, 978, 1029, 1496, 1065, 1509, 1494, 1047, 1282, 1311, 1457, 1560, 1138, 1289, 1006, 1116, 1206, 1526, 1776, 1607, 2060, 1427, 955, 1407, 1457, 1481, 1231],
      "WindowCenter": [414.0, 416.0, 415.0, 414.0, 414.0, 413.0, 414.0, 410.0, 414.0, 414.0, 412.0, 413.0, 411.0, 413.0, 413.0, 412.0, 408.0, 412.0, 413.0, 413.0, 413.0, 412.0, 413.0, 413.0, 413.0, 414.0, 413.0, 410.0, 414.0, 413.0, 413.0, 414.0, 413.0, 413.0, 410.0, 414.0, 410.0, 411.0, 414.0, 411.0, 415.0, 414.0, 409.0, 414.0, 412.0, 413.0, 413.0, 412.0, 412.0, 414.0, 414.0, 411.0, 414.0, 414.0, 412.0, 415.0, 413.0, 414.0, 412.0, 414.0, 415.0, 412.0, 414.0, 410.0, 412.0, 410.0, 415.0, 413.0, 413.0, 413.0, 408.0, 413.0, 409.0, 411.0, 412.0, 413.0, 414.0, 412.0, 414.0, 411.0, 411.0, 415.0, 412.0, 414.0, 413.0, 414.0, 411.0, 413.0, 413.0, 415.0, 415.0, 409.0, 413.0, 414.0, 413.0, 412.0, 412.0, 414.0, 411.0, 411.0, 410.0, 410.0, 414.0, 413.0, 414.0, 413.0, 410.0, 415.0, 414.0, 411.0, 412.0, 409.0, 412.0, 414.0, 414.0, 412.0, 414.0, 412.0, 408.0, 412.0, 410.0, 410.0, 410.0, 413.0, 415.0, 416.0, 414.0, 413.0, 415.0, 414.0, 408.0, 414.0, 409.0, 412.0, 413.0, 414.0, 413.0, 413.0, 410.0, 413.0, 410.0, 413.0, 411.0, 409.0, 412.0, 411.0, 416.0, 414.0, 415.0, 415.0, 414.0, 413.0, 411.0, 413.0, 410.0, 410.0, 409.0, 412.0, 411.0, 414.0, 414.0, 414.0, 414.0, 414.0, 413.0, 414.0, 410.0, 411.0, 411.0, 413.0, 413.0, 413.0, 413.0, 413.0, 413.0, 409.0, 413.0, 414.0, 413.0, 410.0, 413.0, 412.0, 411.0, 411.0, 413.0, 410.0, 414.0, 410.0, 414.0, 412.0, 413.0, 413.0, 414.0, 412.0, 408.0, 414.0, 412.0, 413.0, 411.0, 412.0, 411.0, 414.0, 413.0, 414.0, 412.0, 413.0, 414.0, 410.0, 414.0, 413.0, 414.0, 414.0, 411.0, 413.0, 412.0, 411.0, 409.0, 411.0, 413.0, 410.0, 411.0, 413.0, 415.0, 415.0, 414.0, 412.0, 414.0, 412.0, 413.0, 412.0, 413.0, 412.0, 413.0, 414.0, 414.0, 413.0, 416.0, 413.0, 411.0, 412.0, 413.0, 410.0, 413.0, 411.0, 409.0, 415.0, 414.0, 413.0, 413.0, 405.0, 410.0, 408.0, 407.0, 412.0, 409.0, 410.0, 414.0, 410.0, 414.0, 413.0, 409.0, 411.0, 413.0, 413.0, 414.0, 411.0, 412.0, 410.0, 411.0, 413.0, 415.0, 415.0, 414.0, 416.0, 413.0, 408.0, 413.0, 414.0, 413.0, 412.0],
      "WindowWidth": [875.0, 877.0, 876.0, 873.0, 873.0, 872.0, 874.0, 868.0, 873.0, 872.0, 870.0, 872.0, 869.0, 872.0, 871.0, 870.0, 865.0, 870.0, 872.0, 871.0, 872.0, 869.0, 871.0, 872.0, 872.0, 873.0, 871.0, 868.0, 873.0, 872.0, 872.0, 873.0, 872.0, 871.0, 867.0, 873.0, 868.0, 868.0, 874.0, 869.0, 874.0, 872.0, 866.0, 873.0, 870.0, 872.0, 872.0, 870.0, 870.0, 873.0, 872.0, 868.0, 872.0, 873.0, 871.0, 874.0, 872.0, 873.0, 870.0, 873.0, 875.0, 870.0, 872.0, 867.0, 870.0, 867.0, 875.0, 872.0, 872.0, 871.0, 864.0, 871.0, 866.0, 869.0, 870.0, 872.0, 872.0, 870.0, 873.0, 869.0, 869.0, 875.0, 870.0, 872.0, 872.0, 873.0, 869.0, 872.0, 872.0, 875.0, 874.0, 866.0, 871.0, 872.0, 871.0, 870.0, 869.0, 872.0, 869.0, 868.0, 867.0, 867.0, 873.0, 871.0, 873.0, 872.0, 868.0, 875.0, 874.0, 870.0, 870.0, 866.0, 870.0, 874.0, 872.0, 869.0, 873.0, 869.0, 865.0, 870.0, 867.0, 867.0, 868.0, 873.0, 875.0, 876.0, 874.0, 872.0, 874.0, 872.0, 865.0, 873.0, 866.0, 870.0, 871.0, 873.0, 872.0, 872.0, 867.0, 872.0, 868.0, 871.0, 869.0, 866.0, 871.0, 870.0, 876.0, 874.0, 874.0, 874.0, 872.0, 871.0, 869.0, 871.0, 867.0, 867.0, 866.0, 870.0, 870.0, 873.0, 873.0, 873.0, 873.0, 872.0, 872.0, 873.0, 867.0, 868.0, 868.0, 872.0, 872.0, 872.0, 871.0, 871.0, 871.0, 865.0, 871.0, 873.0, 871.0, 868.0, 872.0, 870.0, 869.0, 868.0, 871.0, 866.0, 872.0, 867.0, 873.0, 871.0, 871.0, 871.0, 872.0, 869.0, 865.0, 873.0, 870.0, 871.0, 869.0, 870.0, 869.0, 873.0, 873.0, 872.0, 870.0, 872.0, 872.0, 867.0, 873.0, 872.0, 872.0, 872.0, 869.0, 871.0, 869.0, 868.0, 866.0, 869.0, 871.0, 867.0, 869.0, 872.0, 874.0, 875.0, 874.0, 870.0, 873.0, 870.0, 872.0, 870.0, 871.0, 870.0, 871.0, 873.0, 874.0, 871.0, 876.0, 871.0, 868.0, 871.0, 871.0, 867.0, 872.0, 868.0, 867.0, 874.0, 873.0, 871.0, 871.0, 856.0, 867.0, 863.0, 863.0, 869.0, 866.0, 867.0, 874.0, 868.0, 872.0, 871.0, 865.0, 869.0, 871.0, 871.0, 872.0, 868.0, 870.0, 868.0, 870.0, 873.0, 875.0, 875.0, 874.0, 875.0, 871.0, 865.0, 870.0, 873.0, 871.0, 869.0]
    },
    "slices": {}
  }
}