{
  "AcquisitionMatrixPE": 96,
  "AcquisitionNumber": 1,
  "AcquisitionTime": "15:55:29.272500",
  "BandwidthPerPixelPhaseEncode": 18.939,
  "BaseResolution": 96,
  "BodyPartExamined": "BRAIN",
  "ConsistencyInfo": "N4_VE11C_LATEST_20160120",
  "ConversionSoftware": "dcm2niix",
  "ConversionSoftwareVersion": "v1.0.20170923 (OpenJPEG build) GCC6.3.0",
  "DerivedVendorReportedEchoSpacing": 0.000550011,
  "DeviceSerialNumber": "66112",
  "DwellTime": 2.3e-06,
  "EchoTime": 0.033,
  "EchoTrainLength": 96,
  "EffectiveEchoSpacing": 0.000550011,
  "FlipAngle": 64,
  "ImageType": [
    "ORIGINAL",
    "PRIMARY",
    "FMRI",
    "NONE",
    "ND",
    "NORM",
    "MOSAIC"
],
  "InstitutionAddress": "Maynard_3_Hanover_NH_US_03755",
  "InstitutionName": "Dartmouth_College_-_PBS",
  "MagneticFieldStrength": 3,
  "Manufacturer": "Siemens",
  "ManufacturersModelName": "Prisma",
  "Modality": "MR",
  "MultibandAccelerationFactor": 4,
  "PartialFourier": 1,
  "PercentPhaseFOV": 100,
  "PhaseEncodingDirection": "j-",
  "PhaseEncodingSteps": 96,
  "PhaseResolution": 1,
  "ProcedureStepDescription": "Gobbini_Matteo_1017_famface-angles",
  "ProtocolName": "func_run-09_task-fam1back",
  "PulseSequenceDetails": "%SiemensSeq%_ep2d_bold",
  "ReceiveCoilActiveElements": "HEA;HEP",
  "ReceiveCoilName": "Head_32",
  "ReconMatrixPE": 96,
  "RepetitionTime": 1.25,
  "ScanOptions": "FS",
  "ScanningSequence": "EP",
  "SequenceName": "_epfid2d1_96",
  "SequenceVariant": "SK",
  "SeriesDescription": "func_run-09_task-fam1back",
  "SliceTiming": [0.88, 0, 0.615, 0.09, 0.705, 0.1775, 0.7925, 0.3525, 0.9675, 0.44, 1.055, 0.5275, 1.1425, 0.265, 0.88, 0, 0.615, 0.09, 0.705, 0.1775, 0.7925, 0.3525, 0.9675, 0.44, 1.055, 0.5275, 1.1425, 0.265, 0.88, 0, 0.615, 0.09, 0.705, 0.1775, 0.7925, 0.3525, 0.9675, 0.44, 1.055, 0.5275, 1.1425, 0.265, 0.88, 0, 0.615, 0.09, 0.705, 0.1775, 0.7925, 0.3525, 0.9675, 0.44, 1.055, 0.5275, 1.1425, 0.265],
  "SoftwareVersions": "syngo_MR_E11",
  "StationName": "AWP66112",
  "TaskName": "fam1back",
  "TotalReadoutTime": 0.0522511,
  "dcmmeta_affine": [
    [-2.4959781169891357, 0.13998380303382874, 0.022302908822894096, 115.51658630371094],
    [0.1405237764120102, 2.4951913356781006, 0.0653679296374321, -115.20475006103516],
    [0.01859983056783676, -0.06651640683412552, 2.4990458488464355, -65.01366424560547],
    [0.0, 0.0, 0.0, 1.0]
],
  "dcmmeta_reorient_transform": [
    [0.0, -1.0, 0.0, 95.0],
    [1.0, 0.0, 0.0, 0.0],
    [0.0, 0.0, 1.0, 0.0],
    [0.0, 0.0, 0.0, 1.0]
],
  "dcmmeta_shape": [96, 96, 56, 280],
  "dcmmeta_slice_dim": 2,
  "dcmmeta_version": 0.6,
  "global": {
    "const": {
      "AccessionNumber": "A000466",
      "AcquisitionMatrix": [96, 0, 0, 96],
      "AngioFlag": "N",
      "BitsAllocated": 16,
      "BitsStored": 12,
      "BodyPartExamined": "BRAIN",
      "Columns": 768,
      "EchoNumbers": 1,
      "EchoTime": 33.0,
      "EchoTrainLength": 96,
      "FlipAngle": 64.0,
      "HighBit": 11,
      "ImageOrientationPatient": [0.99839127531587, -0.0562095079388, 0.00743993215231, 0.05599351937345, 0.99807655849099, 0.02660656270469],
      "ImagePositionPatient": [-1014.4982780047, -913.00675299057, -99.931781669165],
      "ImageType": [
        "ORIGINAL",
        "PRIMARY",
        "FMRI",
        "NONE",
        "ND",
        "NORM",
        "MOSAIC"
],
      "ImagedNucleus": "1H",
      "ImagingFrequency": 123.252371,
      "InPlanePhaseEncodingDirection": "COL",
      "MRAcquisitionType": "2D",
      "MagneticFieldStrength": 3.0,
      "Manufacturer": "SIEMENS",
      "ManufacturerModelName": "Prisma",
      "Modality": "MR",
      "NumberOfAverages": 1.0,
      "NumberOfPhaseEncodingSteps": 96,
      "PercentPhaseFieldOfView": 100.0,
      "PercentSampling": 100.0,
      "PerformedProcedureStepStartTime": "143328.798000",
      "PhotometricInterpretation": "MONOCHROME2",
      "PixelBandwidth": 2265.0,
      "PixelRepresentation": 0,
      "PixelSpacing": [2.5, 2.5],
      "PositionReferenceIndicator": "",
      "ProtocolName": "func_run-09_task-fam1back",
      "RepetitionTime": 1250.0,
      "Rows": 768,
      "SAR": 0.04378393971437,
      "SamplesPerPixel": 1,
      "ScanOptions": "FS",
      "ScanningSequence": "EP",
      "SequenceName": "*epfid2d1_96",
      "SequenceVariant": "SK",
      "SeriesDescription": "func_run-09_task-fam1back",
      "SeriesNumber": 64,
      "SeriesTime": "155530.558000",
      "SliceLocation": -66.970587462773,
      "SliceThickness": 2.5,
      "SmallestImagePixelValue": 0,
      "SoftwareVersions": "syngo MR E11",
      "SpacingBetweenSlices": 2.5000000300206,
      "SpecificCharacterSet": "ISO_IR 100",
      "StudyID": "3",
      "StudyTime": "143328.746000",
      "TransmitCoilName": "Body",
      "VariableFlipAngleFlag": "N",
      "WindowCenterWidthExplanation": "Algo1",
      "dBdt": 0.0},
    "slices": {}
  },
  "time": {
    "samples": {
      "AcquisitionNumber": [1, 2, 3, 4, 5, 6, 7, 8, 9, 10, 11, 12, 13, 14, 15, 16, 17, 18, 19, 20, 21, 22, 23, 24, 25, 26, 27, 28, 29, 30, 31, 32, 33, 34, 35, 36, 37, 38, 39, 40, 41, 42, 43, 44, 45, 46, 47, 48, 49, 50, 51, 52, 53, 54, 55, 56, 57, 58, 59, 60, 61, 62, 63, 64, 65, 66, 67, 68, 69, 70, 71, 72, 73, 74, 75, 76, 77, 78, 79, 80, 81, 82, 83, 84, 85, 86, 87, 88, 89, 90, 91, 92, 93, 94, 95, 96, 97, 98, 99, 100, 101, 102, 103, 104, 105, 106, 107, 108, 109, 110, 111, 112, 113, 114, 115, 116, 117, 118, 119, 120, 121, 122, 123, 124, 125, 126, 127, 128, 129, 130, 131, 132, 133, 134, 135, 136, 137, 138, 139, 140, 141, 142, 143, 144, 145, 146, 147, 148, 149, 150, 151, 152, 153, 154, 155, 156, 157, 158, 159, 160, 161, 162, 163, 164, 165, 166, 167, 168, 169, 170, 171, 172, 173, 174, 175, 176, 177, 178, 179, 180, 181, 182, 183, 184, 185, 186, 187, 188, 189, 190, 191, 192, 193, 194, 195, 196, 197, 198, 199, 200, 201, 202, 203, 204, 205, 206, 207, 208, 209, 210, 211, 212, 213, 214, 215, 216, 217, 218, 219, 220, 221, 222, 223, 224, 225, 226, 227, 228, 229, 230, 231, 232, 233, 234, 235, 236, 237, 238, 239, 240, 241, 242, 243, 244, 245, 246, 247, 248, 249, 250, 251, 252, 253, 254, 255, 256, 257, 258, 259, 260, 261, 262, 263, 264, 265, 266, 267, 268, 269, 270, 271, 272, 273, 274, 275, 276, 277, 278, 279, 280],
      "AcquisitionTime": ["155529.272500", "155530.522500", "155531.772500", "155533.022500", "155534.272500", "155535.522500", "155536.772500", "155538.022500", "155539.272500", "155540.522500", "155541.772500", "155543.022500", "155544.272500", "155545.522500", "155546.772500", "155548.022500", "155549.272500", "155550.522500", "155551.772500", "155553.022500", "155554.272500", "155555.522500", "155556.772500", "155558.022500", "155559.272500", "155600.522500", "155601.772500", "155603.022500", "155604.272500", "155605.522500", "155606.772500", "155608.022500", "155609.272500", "155610.522500", "155611.772500", "155613.022500", "155614.272500", "155615.522500", "155616.772500", "155618.022500", "155619.272500", "155620.522500", "155621.772500", "155623.022500", "155624.272500", "155625.522500", "155626.772500", "155628.022500", "155629.272500", "155630.522500", "155631.772500", "155633.022500", "155634.272500", "155635.522500", "155636.772500", "155638.022500", "155639.272500", "155640.522500", "155641.772500", "155643.022500", "155644.272500", "155645.522500", "155646.772500", "155648.022500", "155649.272500", "155650.522500", "155651.772500", "155653.022500", "155654.272500", "155655.522500", "155656.772500", "155658.022500", "155659.272500", "155700.522500", "155701.772500", "155703.022500", "155704.272500", "155705.522500", "155706.772500", "155708.022500", "155709.272500", "155710.522500", "155711.772500", "155713.022500", "155714.272500", "155715.522500", "155716.772500", "155718.022500", "155719.272500", "155720.522500", "155721.772500", "155723.022500", "155724.272500", "155725.522500", "155726.772500", "155728.022500", "155729.272500", "155730.522500", "155731.772500", "155733.022500", "155734.272500", "155735.522500", "155736.772500", "155738.022500", "155739.272500", "155740.522500", "155741.772500", "155743.022500", "155744.272500", "155745.522500", "155746.772500", "155748.022500", "155749.272500", "155750.522500", "155751.772500", "155753.022500", "155754.272500", "155755.522500", "155756.772500", "155758.022500", "155759.272500", "155800.522500", "155801.772500", "155803.022500", "155804.272500", "155805.522500", "155806.772500", "155808.022500", "155809.272500", "155810.522500", "155811.772500", "155813.022500", "155814.272500", "155815.522500", "155816.772500", "155818.022500", "155819.272500", "155820.522500", "155821.772500", "155823.022500", "155824.272500", "155825.522500", "155826.772500", "155828.022500", "155829.272500", "155830.522500", "155831.772500", "155833.022500", "155834.272500", "155835.522500", "155836.772500", "155838.022500", "155839.272500", "155840.522500", "155841.772500", "155843.022500", "155844.272500", "155845.522500", "155846.772500", "155848.022500", "155849.272500", "155850.522500", "155851.772500", "155853.022500", "155854.272500", "155855.522500", "155856.772500", "155858.022500", "155859.272500", "155900.522500", "155901.772500", "155903.022500", "155904.272500", "155905.522500", "155906.772500", "155908.022500", "155909.272500", "155910.522500", "155911.772500", "155913.022500", "155914.272500", "155915.522500", "155916.772500", "155918.022500", "155919.272500", "155920.522500", "155921.772500", "155923.022500", "155924.272500", "155925.522500", "155926.772500", "155928.022500", "155929.272500", "155930.522500", "155931.772500", "155933.022500", "155934.272500", "155935.522500", "155936.772500", "155938.022500", "155939.272500", "155940.522500", "155941.772500", "155943.022500", "155944.272500", "155945.522500", "155946.772500", "155948.022500", "155949.272500", "155950.522500", "155951.772500", "155953.022500", "155954.272500", "155955.522500", "155956.772500", "155958.022500", "155959.272500", "160000.522500", "160001.772500", "160003.022500", "160004.272500", "160005.522500", "160006.772500", "160008.022500", "160009.272500", "160010.522500", "160011.772500", "160013.022500", "160014.272500", "160015.522500", "160016.772500", "160018.022500", "160019.272500", "160020.522500", "160021.772500", "160023.022500", "160024.272500", "160025.522500", "160026.772500", "160028.022500", "160029.272500", "160030.522500", "160031.772500", "160033.022500", "160034.272500", "160035.522500", "160036.772500", "160038.022500", "160039.272500", "160040.522500", "160041.772500", "160043.022500", "160044.272500", "160045.522500", "160046.772500", "160048.022500", "160049.272500", "160050.522500", "160051.772500", "160053.022500", "160054.272500", "160055.522500", "160056.772500", "160058.022500", "160059.272500", "160100.522500", "160101.772500", "160103.022500", "160104.272500", "160105.522500", "160106.772500", "160108.022500", "160109.272500", "160110.522500", "160111.772500", "160113.022500", "160114.272500", "160115.522500", "160116.772500", "160118.022500"],
      "ContentTime": ["155530.562000", "155531.682000", "155532.906000", "155534.151000", "155535.388000", "155536.636000", "155537.877000", "155539.157000", "155540.379000", "155541.596000", "155542.872000", "155544.117000", "155545.401000", "155546.673000", "155547.897000", "155549.131000", "155550.398000", "155551.650000", "155552.948000", "155554.115000", "155555.364000", "155556.656000", "155557.850000", "155559.133000", "155600.374000", "155601.635000", "155602.897000", "155604.129000", "155605.381000", "155606.602000", "155607.908000", "155609.153000", "155610.382000", "155611.647000", "155612.885000", "155614.111000", "155615.374000", "155616.633000", "155617.877000", "155619.129000", "155620.382000", "155621.621000", "155622.865000", "155624.153000", "155625.387000", "155626.639000", "155627.893000", "155629.142000", "155630.419000", "155631.620000", "155632.879000", "155634.131000", "155635.404000", "155636.638000", "155637.866000", "155639.149000", "155640.371000", "155641.637000", "155642.877000", "155644.131000", "155645.389000", "155646.635000", "155647.891000", "155649.116000", "155650.402000", "155651.669000", "155652.880000", "155654.124000", "155655.364000", "155656.650000", "155657.879000", "155659.110000", "155700.389000", "155701.634000", "155702.887000", "155704.147000", "155705.373000", "155706.617000", "155707.896000", "155709.153000", "155710.397000", "155711.701000", "155712.880000", "155714.168000", "155715.390000", "155716.651000", "155717.898000", "155719.123000", "155720.410000", "155721.623000", "155722.891000", "155724.147000", "155725.401000", "155726.665000", "155727.881000", "155729.140000", "155730.370000", "155731.638000", "155732.887000", "155734.123000", "155735.399000", "155736.649000", "155737.916000", "155739.152000", "155740.390000", "155741.640000", "155742.883000", "155744.136000", "155745.424000", "155746.699000", "155747.901000", "155749.135000", "155750.396000", "155751.669000", "155752.913000", "155754.210000", "155755.437000", "155756.730000", "155757.882000", "155759.114000", "155800.413000", "155801.634000", "155802.915000", "155804.153000", "155805.434000", "155806.647000", "155807.889000", "155809.183000", "155810.408000", "155811.633000", "155812.896000", "155814.144000", "155815.427000", "155816.640000", "155817.904000", "155819.196000", "155820.434000", "155821.697000", "155822.932000", "155824.175000", "155825.390000", "155826.630000", "155827.868000", "155829.154000", "155830.429000", "155831.644000", "155832.917000", "155834.172000", "155835.375000", "155836.646000", "155837.898000", "155839.141000", "155840.432000", "155841.697000", "155842.904000", "155844.194000", "155845.423000", "155846.638000", "155847.892000", "155849.140000", "155850.401000", "155851.654000", "155852.886000", "155854.180000", "155855.396000", "155856.641000", "155857.945000", "155859.198000", "155900.366000", "155901.648000", "155902.907000", "155904.158000", "155905.462000", "155906.644000", "155907.908000", "155909.134000", "155910.356000", "155911.666000", "155912.894000", "155914.128000", "155915.413000", "155916.635000", "155917.905000", "155919.173000", "155920.430000", "155921.637000", "155922.889000", "155924.115000", "155925.360000", "155926.636000", "155927.887000", "155929.142000", "155930.393000", "155931.636000", "155932.899000", "155934.165000", "155935.362000", "155936.627000", "155937.887000", "155939.137000", "155940.412000", "155941.629000", "155942.874000", "155944.089000", "155945.396000", "155946.647000", "155947.883000", "155949.138000", "155950.406000", "155951.645000", "155952.899000", "155954.139000", "155955.400000", "155956.650000", "155957.935000", "155959.146000", "160000.352000", "160001.644000", "160002.893000", "160004.166000", "160005.396000", "160006.642000", "160007.875000", "160009.155000", "160010.417000", "160011.690000", "160012.921000", "160014.123000", "160015.396000", "160016.650000", "160017.910000", "160019.180000", "160020.435000", "160021.654000", "160022.902000", "160024.151000", "160025.399000", "160026.650000", "160027.916000", "160029.136000", "160030.388000", "160031.652000", "160032.904000", "160034.165000", "160035.392000", "160036.652000", "160037.879000", "160039.148000", "160040.401000", "160041.643000", "160042.888000", "160044.117000", "160045.389000", "160046.655000", "160047.900000", "160049.125000", "160050.406000", "160051.637000", "160052.893000", "160054.198000", "160055.395000", "160056.677000", "160057.905000", "160059.141000", "160100.387000", "160101.638000", "160102.888000", "160104.130000", "160105.362000", "160106.622000", "160107.895000", "160109.135000", "160110.388000", "160111.640000", "160112.857000", "160114.124000", "160115.397000", "160116.631000", "160117.891000", "160119.199000"],
      "InstanceCreationTime": ["155530.562000", "155531.682000", "155532.906000", "155534.151000", "155535.388000", "155536.636000", "155537.877000", "155539.157000", "155540.379000", "155541.596000", "155542.872000", "155544.117000", "155545.401000", "155546.673000", "155547.897000", "155549.131000", "155550.398000", "155551.650000", "155552.948000", "155554.115000", "155555.364000", "155556.656000", "155557.850000", "155559.133000", "155600.374000", "155601.635000", "155602.897000", "155604.129000", "155605.381000", "155606.602000", "155607.908000", "155609.153000", "155610.382000", "155611.647000", "155612.885000", "155614.111000", "155615.374000", "155616.633000", "155617.877000", "155619.129000", "155620.382000", "155621.621000", "155622.865000", "155624.153000", "155625.387000", "155626.639000", "155627.893000", "155629.142000", "155630.419000", "155631.620000", "155632.879000", "155634.131000", "155635.404000", "155636.638000", "155637.866000", "155639.149000", "155640.371000", "155641.637000", "155642.877000", "155644.131000", "155645.389000", "155646.635000", "155647.891000", "155649.116000", "155650.402000", "155651.669000", "155652.880000", "155654.124000", "155655.364000", "155656.650000", "155657.879000", "155659.110000", "155700.389000", "155701.634000", "155702.887000", "155704.147000", "155705.373000", "155706.617000", "155707.896000", "155709.153000", "155710.397000", "155711.701000", "155712.880000", "155714.168000", "155715.390000", "155716.651000", "155717.898000", "155719.123000", "155720.410000", "155721.623000", "155722.891000", "155724.147000", "155725.401000", "155726.665000", "155727.881000", "155729.140000", "155730.370000", "155731.638000", "155732.887000", "155734.123000", "155735.399000", "155736.649000", "155737.916000", "155739.152000", "155740.390000", "155741.640000", "155742.883000", "155744.136000", "155745.424000", "155746.699000", "155747.901000", "155749.135000", "155750.396000", "155751.669000", "155752.913000", "155754.210000", "155755.437000", "155756.730000", "155757.882000", "155759.114000", "155800.413000", "155801.634000", "155802.915000", "155804.153000", "155805.434000", "155806.647000", "155807.889000", "155809.183000", "155810.408000", "155811.633000", "155812.896000", "155814.144000", "155815.427000", "155816.640000", "155817.904000", "155819.196000", "155820.434000", "155821.697000", "155822.932000", "155824.175000", "155825.390000", "155826.630000", "155827.868000", "155829.154000", "155830.429000", "155831.644000", "155832.917000", "155834.172000", "155835.375000", "155836.646000", "155837.898000", "155839.141000", "155840.432000", "155841.697000", "155842.904000", "155844.194000", "155845.423000", "155846.638000", "155847.892000", "155849.140000", "155850.401000", "155851.654000", "155852.886000", "155854.180000", "155855.396000", "155856.641000", "155857.945000", "155859.198000", "155900.366000", "155901.648000", "155902.907000", "155904.158000", "155905.462000", "155906.644000", "155907.908000", "155909.134000", "155910.356000", "155911.666000", "155912.894000", "155914.128000", "155915.413000", "155916.635000", "155917.905000", "155919.173000", "155920.430000", "155921.637000", "155922.889000", "155924.115000", "155925.360000", "155926.636000", "155927.887000", "155929.142000", "155930.393000", "155931.636000", "155932.899000", "155934.165000", "155935.362000", "155936.627000", "155937.887000", "155939.137000", "155940.412000", "155941.629000", "155942.874000", "155944.089000", "155945.396000", "155946.647000", "155947.883000", "155949.138000", "155950.406000", "155951.645000", "155952.899000", "155954.139000", "155955.400000", "155956.650000", "155957.935000", "155959.146000", "160000.352000", "160001.644000", "160002.893000", "160004.166000", "160005.396000", "160006.642000", "160007.875000", "160009.155000", "160010.417000", "160011.690000", "160012.921000", "160014.123000", "160015.396000", "160016.650000", "160017.910000", "160019.180000", "160020.435000", "160021.654000", "160022.902000", "160024.151000", "160025.399000", "160026.650000", "160027.916000", "160029.136000", "160030.388000", "160031.652000", "160032.904000", "160034.165000", "160035.392000", "160036.652000", "160037.879000", "160039.148000", "160040.401000", "160041.643000", "160042.888000", "160044.117000", "160045.389000", "160046.655000", "160047.900000", "160049.125000", "160050.406000", "160051.637000", "160052.893000", "160054.198000", "160055.395000", "160056.677000", "160057.905000", "160059.141000", "160100.387000", "160101.638000", "160102.888000", "160104.130000", "160105.362000", "160106.622000", "160107.895000", "160109.135000", "160110.388000", "160111.640000", "160112.857000", "160114.124000", "160115.397000", "160116.631000", "160117.891000", "160119.199000"],
      "InstanceNumber": [1, 2, 3, 4, 5, 6, 7, 8, 9, 10, 11, 12, 13, 14, 15, 16, 17, 18, 19, 20, 21, 22, 23, 24, 25, 26, 27, 28, 29, 30, 31, 32, 33, 34, 35, 36, 37, 38, 39, 40, 41, 42, 43, 44, 45, 46, 47, 48, 49, 50, 51, 52, 53, 54, 55, 56, 57, 58, 59, 60, 61, 62, 63, 64, 65, 66, 67, 68, 69, 70, 71, 72, 73, 74, 75, 76, 77, 78, 79, 80, 81, 82, 83, 84, 85, 86, 87, 88, 89, 90, 91, 92, 93, 94, 95, 96, 97, 98, 99, 100, 101, 102, 103, 104, 105, 106, 107, 108, 109, 110, 111, 112, 113, 114, 115, 116, 117, 118, 119, 120, 121, 122, 123, 124, 125, 126, 127, 128, 129, 130, 131, 132, 133, 134, 135, 136, 137, 138, 139, 140, 141, 142, 143, 144, 145, 146, 147, 148, 149, 150, 151, 152, 153, 154, 155, 156, 157, 158, 159, 160, 161, 162, 163, 164, 165, 166, 167, 168, 169, 170, 171, 172, 173, 174, 175, 176, 177, 178, 179, 180, 181, 182, 183, 184, 185, 186, 187, 188, 189, 190, 191, 192, 193, 194, 195, 196, 197, 198, 199, 200, 201, 202, 203, 204, 205, 206, 207, 208, 209, 210, 211, 212, 213, 214, 215, 216, 217, 218, 219, 220, 221, 222, 223, 224, 225, 226, 227, 228, 229, 230, 231, 232, 233, 234, 235, 236, 237, 238, 239, 240, 241, 242, 243, 244, 245, 246, 247, 248, 249, 250, 251, 252, 253, 254, 255, 256, 257, 258, 259, 260, 261, 262, 263, 264, 265, 266, 267, 268, 269, 270, 271, 272, 273, 274, 275, 276, 277, 278, 279, 280],
      "LargestImagePixelValue": [746, 855, 755, 866, 716, 749, 721, 725, 743, 754, 702, 732, 696, 805, 761, 754, 831, 752, 731, 701, 709, 747, 704, 936, 702, 811, 716, 749, 717, 697, 702, 740, 750, 743, 795, 762, 708, 842, 699, 911, 718, 709, 703, 1002, 714, 852, 700, 702, 745, 787, 707, 734, 754, 708, 1018, 694, 952, 722, 805, 722, 698, 908, 705, 755, 733, 705, 905, 702, 900, 697, 781, 714, 711, 968, 736, 704, 918, 703, 771, 702, 856, 701, 877, 717, 822, 735, 776, 724, 775, 741, 769, 701, 706, 700, 719, 701, 746, 725, 771, 733, 783, 734, 813, 706, 866, 754, 817, 784, 700, 775, 699, 732, 696, 702, 803, 1033, 743, 723, 1019, 724, 699, 754, 700, 848, 699, 811, 726, 723, 884, 705, 876, 709, 977, 704, 892, 763, 812, 737, 715, 922, 704, 894, 708, 907, 699, 761, 718, 742, 809, 754, 830, 764, 776, 701, 1031, 706, 774, 689, 733, 692, 720, 690, 730, 756, 717, 751, 944, 754, 894, 704, 813, 698, 838, 720, 812, 732, 699, 906, 707, 820, 704, 797, 723, 823, 749, 696, 906, 698, 925, 712, 757, 759, 709, 748, 799, 720, 884, 693, 823, 701, 767, 727, 763, 696, 895, 692, 981, 697, 861, 741, 783, 716, 733, 685, 724, 761, 729, 916, 734, 850, 770, 756, 728, 739, 760, 741, 933, 756, 788, 787, 690, 795, 692, 743, 687, 907, 711, 951, 758, 864, 736, 710, 757, 722, 745, 714, 939, 704, 987, 697, 807, 772, 705, 921, 711, 861, 726, 738, 741, 696, 733, 757, 740, 754, 711, 789, 738, 783, 808, 771, 751, 766, 755, 704, 694, 702, 738, 728, 690, 872],
      "WindowCenter": [348.0, 349.0, 347.0, 348.0, 346.0, 346.0, 345.0, 345.0, 344.0, 344.0, 344.0, 345.0, 345.0, 347.0, 347.0, 346.0, 347.0, 345.0, 345.0, 344.0, 345.0, 346.0, 346.0, 349.0, 345.0, 347.0, 346.0, 346.0, 346.0, 346.0, 346.0, 348.0, 348.0, 348.0, 348.0, 347.0, 346.0, 349.0, 346.0, 349.0, 346.0, 345.0, 344.0, 348.0, 345.0, 347.0, 345.0, 346.0, 348.0, 348.0, 346.0, 346.0, 346.0, 344.0, 349.0, 345.0, 349.0, 346.0, 347.0, 345.0, 344.0, 347.0, 345.0, 346.0, 346.0, 346.0, 348.0, 345.0, 348.0, 345.0, 347.0, 346.0, 346.0, 348.0, 344.0, 343.0, 346.0, 343.0, 346.0, 346.0, 348.0, 346.0, 348.0, 345.0, 346.0, 344.0, 345.0, 344.0, 346.0, 345.0, 345.0, 344.0, 344.0, 345.0, 345.0, 346.0, 346.0, 346.0, 348.0, 346.0, 346.0, 346.0, 347.0, 345.0, 347.0, 345.0, 346.0, 346.0, 344.0, 345.0, 345.0, 346.0, 346.0, 346.0, 348.0, 351.0, 346.0, 344.0, 347.0, 343.0, 343.0, 345.0, 344.0, 347.0, 346.0, 347.0, 346.0, 345.0, 347.0, 344.0, 347.0, 345.0, 350.0, 346.0, 349.0, 346.0, 346.0, 345.0, 344.0, 348.0, 345.0, 348.0, 346.0, 348.0, 345.0, 346.0, 346.0, 346.0, 347.0, 346.0, 346.0, 344.0, 345.0, 344.0, 349.0, 345.0, 346.0, 345.0, 346.0, 345.0, 345.0, 344.0, 346.0, 346.0, 346.0, 346.0, 349.0, 345.0, 348.0, 345.0, 347.0, 346.0, 349.0, 347.0, 348.0, 345.0, 344.0, 346.0, 344.0, 346.0, 345.0, 347.0, 346.0, 348.0, 346.0, 344.0, 346.0, 344.0, 347.0, 345.0, 346.0, 346.0, 346.0, 346.0, 347.0, 345.0, 347.0, 344.0, 347.0, 346.0, 347.0, 346.0, 346.0, 345.0, 347.0, 344.0, 348.0, 345.0, 347.0, 346.0, 346.0, 345.0, 346.0, 345.0, 346.0, 348.0, 346.0, 349.0, 346.0, 347.0, 345.0, 345.0, 346.0, 346.0, 346.0, 345.0, 348.0, 345.0, 345.0, 345.0, 344.0, 346.0, 345.0, 346.0, 345.0, 349.0, 347.0, 349.0, 346.0, 347.0, 345.0, 344.0, 345.0, 346.0, 345.0, 346.0, 348.0, 345.0, 348.0, 346.0, 347.0, 347.0, 345.0, 348.0, 344.0, 346.0, 344.0, 344.0, 344.0, 344.0, 345.0, 345.0, 345.0, 345.0, 344.0, 345.0, 346.0, 347.0, 348.0, 347.0, 346.0, 345.0, 345.0, 344.0, 345.0, 346.0, 347.0, 347.0, 346.0, 348.0],
      "WindowWidth": [747.0, 748.0, 745.0, 746.0, 744.0, 743.0, 742.0, 741.0, 740.0, 739.0, 739.0, 741.0, 741.0, 744.0, 744.0, 743.0, 744.0, 741.0, 741.0, 740.0, 741.0, 742.0, 742.0, 747.0, 741.0, 744.0, 742.0, 742.0, 742.0, 742.0, 744.0, 746.0, 747.0, 746.0, 746.0, 744.0, 743.0, 747.0, 743.0, 746.0, 742.0, 741.0, 740.0, 745.0, 741.0, 744.0, 741.0, 744.0, 746.0, 746.0, 743.0, 744.0, 742.0, 740.0, 746.0, 741.0, 747.0, 743.0, 744.0, 741.0, 740.0, 743.0, 740.0, 743.0, 743.0, 742.0, 746.0, 741.0, 745.0, 741.0, 744.0, 743.0, 742.0, 746.0, 739.0, 737.0, 741.0, 738.0, 742.0, 743.0, 746.0, 743.0, 745.0, 741.0, 742.0, 740.0, 742.0, 740.0, 742.0, 741.0, 741.0, 738.0, 740.0, 741.0, 742.0, 742.0, 743.0, 744.0, 745.0, 743.0, 743.0, 742.0, 745.0, 742.0, 744.0, 741.0, 743.0, 741.0, 740.0, 741.0, 741.0, 742.0, 743.0, 744.0, 746.0, 750.0, 743.0, 740.0, 743.0, 738.0, 738.0, 740.0, 740.0, 744.0, 742.0, 745.0, 743.0, 741.0, 743.0, 740.0, 743.0, 741.0, 748.0, 743.0, 746.0, 743.0, 743.0, 741.0, 740.0, 744.0, 741.0, 745.0, 742.0, 746.0, 741.0, 743.0, 742.0, 742.0, 743.0, 742.0, 743.0, 739.0, 741.0, 740.0, 746.0, 741.0, 743.0, 741.0, 742.0, 741.0, 740.0, 740.0, 742.0, 743.0, 743.0, 743.0, 747.0, 742.0, 745.0, 741.0, 745.0, 743.0, 747.0, 744.0, 745.0, 741.0, 739.0, 743.0, 739.0, 742.0, 741.0, 744.0, 743.0, 745.0, 742.0, 740.0, 742.0, 739.0, 743.0, 741.0, 742.0, 743.0, 743.0, 743.0, 744.0, 741.0, 743.0, 740.0, 743.0, 743.0, 744.0, 743.0, 743.0, 741.0, 744.0, 740.0, 745.0, 741.0, 744.0, 742.0, 743.0, 741.0, 742.0, 742.0, 744.0, 745.0, 744.0, 746.0, 742.0, 743.0, 741.0, 742.0, 742.0, 743.0, 743.0, 741.0, 744.0, 740.0, 740.0, 741.0, 740.0, 742.0, 741.0, 742.0, 742.0, 747.0, 744.0, 747.0, 743.0, 743.0, 741.0, 740.0, 741.0, 742.0, 742.0, 742.0, 745.0, 741.0, 745.0, 742.0, 745.0, 744.0, 741.0, 745.0, 740.0, 742.0, 738.0, 739.0, 739.0, 738.0, 740.0, 741.0, 740.0, 740.0, 739.0, 741.0, 742.0, 744.0, 745.0, 744.0, 742.0, 741.0, 741.0, 740.0, 741.0, 742.0, 745.0, 744.0, 743.0, 746.0]
    },
    "slices": {}
  }
}