{
  "AcquisitionMatrixPE": 96,
  "AcquisitionNumber": 1,
  "AcquisitionTime": "17:17:52.215000",
  "BandwidthPerPixelPhaseEncode": 18.939,
  "BaseResolution": 96,
  "BodyPartExamined": "BRAIN",
  "ConsistencyInfo": "N4_VE11C_LATEST_20160120",
  "ConversionSoftware": "dcm2niix",
  "ConversionSoftwareVersion": "v1.0.20170923 (OpenJPEG build) GCC6.3.0",
  "DerivedVendorReportedEchoSpacing": 0.000550011,
  "DeviceSerialNumber": "66112",
  "DwellTime": 2.3e-06,
  "EchoTime": 0.033,
  "EchoTrainLength": 96,
  "EffectiveEchoSpacing": 0.000550011,
  "FlipAngle": 64,
  "ImageType": [
    "ORIGINAL",
    "PRIMARY",
    "FMRI",
    "NONE",
    "ND",
    "NORM",
    "MOSAIC"
],
  "InstitutionAddress": "Maynard_3_Hanover_NH_US_03755",
  "InstitutionName": "Dartmouth_College_-_PBS",
  "MagneticFieldStrength": 3,
  "Manufacturer": "Siemens",
  "ManufacturersModelName": "Prisma",
  "Modality": "MR",
  "MultibandAccelerationFactor": 4,
  "PartialFourier": 1,
  "PercentPhaseFOV": 100,
  "PhaseEncodingDirection": "j-",
  "PhaseEncodingSteps": 96,
  "PhaseResolution": 1,
  "ProcedureStepDescription": "Gobbini_Matteo_1017_famface-angles",
  "ProtocolName": "func_run-01_task-fam1back",
  "PulseSequenceDetails": "%SiemensSeq%_ep2d_bold",
  "ReceiveCoilActiveElements": "HEA;HEP",
  "ReceiveCoilName": "Head_32",
  "ReconMatrixPE": 96,
  "RepetitionTime": 1.25,
  "ScanOptions": "FS",
  "ScanningSequence": "EP",
  "SequenceName": "_epfid2d1_96",
  "SequenceVariant": "SK",
  "SeriesDescription": "func_run-01_task-fam1back",
  "SliceTiming": [0.8775, 0, 0.615, 0.0875, 0.7025, 0.175, 0.79, 0.35, 0.965, 0.4375, 1.0525, 0.525, 1.14, 0.2625, 0.8775, 0, 0.615, 0.0875, 0.7025, 0.175, 0.79, 0.35, 0.965, 0.4375, 1.0525, 0.525, 1.14, 0.2625, 0.8775, 0, 0.615, 0.0875, 0.7025, 0.175, 0.79, 0.35, 0.965, 0.4375, 1.0525, 0.525, 1.14, 0.2625, 0.8775, 0, 0.615, 0.0875, 0.7025, 0.175, 0.79, 0.35, 0.965, 0.4375, 1.0525, 0.525, 1.14, 0.2625],
  "SoftwareVersions": "syngo_MR_E11",
  "StationName": "AWP66112",
  "TaskName": "fam1back",
  "TotalReadoutTime": 0.0522511,
  "dcmmeta_affine": [
    [-2.4964139461517334, -0.10637681931257248, 0.0812472328543663, 129.83970642089844],
    [-0.10757065564393997, 2.497434616088867, -0.03534571826457977, -94.98224639892578],
    [0.07965987175703049, 0.03879094496369362, 2.498429298400879, -97.9753189086914],
    [0.0, 0.0, 0.0, 1.0]
],
  "dcmmeta_reorient_transform": [
    [0.0, -1.0, 0.0, 95.0],
    [1.0, 0.0, 0.0, 0.0],
    [0.0, 0.0, 1.0, 0.0],
    [0.0, 0.0, 0.0, 1.0]
],
  "dcmmeta_shape": [96, 96, 56, 280],
  "dcmmeta_slice_dim": 2,
  "dcmmeta_version": 0.6,
  "global": {
    "const": {
      "AccessionNumber": "A000288",
      "AcquisitionMatrix": [96, 0, 0, 96],
      "AngioFlag": "N",
      "BitsAllocated": 16,
      "BitsStored": 12,
      "BodyPartExamined": "BRAIN",
      "Columns": 768,
      "EchoNumbers": 1,
      "EchoTime": 33.0,
      "EchoTrainLength": 96,
      "FlipAngle": 64.0,
      "HighBit": 11,
      "ImageOrientationPatient": [0.99856559997975, 0.04302826077349, 0.03186395003597, -0.0425507273637, 0.998973812273, -0.0155163782364],
      "ImagePositionPatient": [-922.7863979583, -1017.5557757539, -108.02213725033],
      "ImageType": [
        "ORIGINAL",
        "PRIMARY",
        "FMRI",
        "NONE",
        "ND",
        "NORM",
        "MOSAIC"
],
      "ImagedNucleus": "1H",
      "ImagingFrequency": 123.252404,
      "InPlanePhaseEncodingDirection": "COL",
      "MRAcquisitionType": "2D",
      "MagneticFieldStrength": 3.0,
      "Manufacturer": "SIEMENS",
      "ManufacturerModelName": "Prisma",
      "Modality": "MR",
      "NumberOfAverages": 1.0,
      "NumberOfPhaseEncodingSteps": 96,
      "PercentPhaseFieldOfView": 100.0,
      "PercentSampling": 100.0,
      "PerformedProcedureStepStartTime": "165832.023000",
      "PhotometricInterpretation": "MONOCHROME2",
      "PixelBandwidth": 2265.0,
      "PixelRepresentation": 0,
      "PixelSpacing": [2.5, 2.5],
      "PositionReferenceIndicator": "",
      "ProtocolName": "func_run-01_task-fam1back",
      "RepetitionTime": 1250.0,
      "Rows": 768,
      "SAR": 0.0521049680728,
      "SamplesPerPixel": 1,
      "ScanOptions": "FS",
      "ScanningSequence": "EP",
      "SequenceName": "*epfid2d1_96",
      "SequenceVariant": "SK",
      "SeriesDescription": "func_run-01_task-fam1back",
      "SeriesNumber": 11,
      "SeriesTime": "171753.366000",
      "SliceLocation": -92.351232471011,
      "SliceThickness": 2.5,
      "SmallestImagePixelValue": 0,
      "SoftwareVersions": "syngo MR E11",
      "SpacingBetweenSlices": 2.4999999647722,
      "SpecificCharacterSet": "ISO_IR 100",
      "StudyID": "1",
      "StudyTime": "165831.981000",
      "TransmitCoilName": "Body",
      "VariableFlipAngleFlag": "N",
      "WindowCenterWidthExplanation": "Algo1",
      "dBdt": 0.0},
    "slices": {}
  },
  "time": {
    "samples": {
      "AcquisitionNumber": [1, 2, 3, 4, 5, 6, 7, 8, 9, 10, 11, 12, 13, 14, 15, 16, 17, 18, 19, 20, 21, 22, 23, 24, 25, 26, 27, 28, 29, 30, 31, 32, 33, 34, 35, 36, 37, 38, 39, 40, 41, 42, 43, 44, 45, 46, 47, 48, 49, 50, 51, 52, 53, 54, 55, 56, 57, 58, 59, 60, 61, 62, 63, 64, 65, 66, 67, 68, 69, 70, 71, 72, 73, 74, 75, 76, 77, 78, 79, 80, 81, 82, 83, 84, 85, 86, 87, 88, 89, 90, 91, 92, 93, 94, 95, 96, 97, 98, 99, 100, 101, 102, 103, 104, 105, 106, 107, 108, 109, 110, 111, 112, 113, 114, 115, 116, 117, 118, 119, 120, 121, 122, 123, 124, 125, 126, 127, 128, 129, 130, 131, 132, 133, 134, 135, 136, 137, 138, 139, 140, 141, 142, 143, 144, 145, 146, 147, 148, 149, 150, 151, 152, 153, 154, 155, 156, 157, 158, 159, 160, 161, 162, 163, 164, 165, 166, 167, 168, 169, 170, 171, 172, 173, 174, 175, 176, 177, 178, 179, 180, 181, 182, 183, 184, 185, 186, 187, 188, 189, 190, 191, 192, 193, 194, 195, 196, 197, 198, 199, 200, 201, 202, 203, 204, 205, 206, 207, 208, 209, 210, 211, 212, 213, 214, 215, 216, 217, 218, 219, 220, 221, 222, 223, 224, 225, 226, 227, 228, 229, 230, 231, 232, 233, 234, 235, 236, 237, 238, 239, 240, 241, 242, 243, 244, 245, 246, 247, 248, 249, 250, 251, 252, 253, 254, 255, 256, 257, 258, 259, 260, 261, 262, 263, 264, 265, 266, 267, 268, 269, 270, 271, 272, 273, 274, 275, 276, 277, 278, 279, 280],
      "AcquisitionTime": ["171752.215000", "171753.465000", "171754.715000", "171755.965000", "171757.215000", "171758.465000", "171759.715000", "171800.965000", "171802.215000", "171803.465000", "171804.715000", "171805.965000", "171807.215000", "171808.465000", "171809.715000", "171810.965000", "171812.215000", "171813.465000", "171814.715000", "171815.965000", "171817.215000", "171818.465000", "171819.715000", "171820.965000", "171822.215000", "171823.465000", "171824.715000", "171825.965000", "171827.215000", "171828.465000", "171829.715000", "171830.965000", "171832.215000", "171833.465000", "171834.715000", "171835.965000", "171837.215000", "171838.465000", "171839.715000", "171840.965000", "171842.215000", "171843.465000", "171844.715000", "171845.965000", "171847.215000", "171848.465000", "171849.715000", "171850.965000", "171852.215000", "171853.465000", "171854.715000", "171855.965000", "171857.215000", "171858.465000", "171859.715000", "171900.965000", "171902.215000", "171903.465000", "171904.715000", "171905.965000", "171907.215000", "171908.465000", "171909.715000", "171910.965000", "171912.215000", "171913.465000", "171914.715000", "171915.965000", "171917.215000", "171918.465000", "171919.715000", "171920.965000", "171922.215000", "171923.465000", "171924.715000", "171925.965000", "171927.215000", "171928.465000", "171929.715000", "171930.965000", "171932.215000", "171933.465000", "171934.715000", "171935.965000", "171937.215000", "171938.465000", "171939.715000", "171940.965000", "171942.215000", "171943.465000", "171944.715000", "171945.965000", "171947.215000", "171948.465000", "171949.715000", "171950.965000", "171952.215000", "171953.465000", "171954.715000", "171955.965000", "171957.215000", "171958.465000", "171959.715000", "172000.965000", "172002.215000", "172003.465000", "172004.715000", "172005.965000", "172007.215000", "172008.465000", "172009.715000", "172010.965000", "172012.215000", "172013.465000", "172014.715000", "172015.965000", "172017.215000", "172018.465000", "172019.715000", "172020.965000", "172022.215000", "172023.465000", "172024.715000", "172025.965000", "172027.215000", "172028.465000", "172029.715000", "172030.965000", "172032.215000", "172033.465000", "172034.715000", "172035.965000", "172037.215000", "172038.465000", "172039.715000", "172040.965000", "172042.215000", "172043.465000", "172044.715000", "172045.965000", "172047.215000", "172048.465000", "172049.715000", "172050.965000", "172052.215000", "172053.465000", "172054.715000", "172055.965000", "172057.215000", "172058.465000", "172059.715000", "172100.965000", "172102.215000", "172103.465000", "172104.715000", "172105.965000", "172107.215000", "172108.465000", "172109.715000", "172110.965000", "172112.215000", "172113.465000", "172114.715000", "172115.965000", "172117.215000", "172118.465000", "172119.715000", "172120.965000", "172122.215000", "172123.465000", "172124.715000", "172125.965000", "172127.215000", "172128.465000", "172129.715000", "172130.965000", "172132.215000", "172133.465000", "172134.715000", "172135.965000", "172137.215000", "172138.465000", "172139.715000", "172140.965000", "172142.215000", "172143.465000", "172144.715000", "172145.965000", "172147.215000", "172148.465000", "172149.715000", "172150.965000", "172152.215000", "172153.465000", "172154.715000", "172155.965000", "172157.215000", "172158.465000", "172159.715000", "172200.965000", "172202.215000", "172203.465000", "172204.715000", "172205.965000", "172207.215000", "172208.465000", "172209.715000", "172210.965000", "172212.215000", "172213.465000", "172214.715000", "172215.965000", "172217.215000", "172218.465000", "172219.715000", "172220.965000", "172222.215000", "172223.465000", "172224.715000", "172225.965000", "172227.215000", "172228.465000", "172229.715000", "172230.965000", "172232.215000", "172233.465000", "172234.715000", "172235.965000", "172237.215000", "172238.465000", "172239.715000", "172240.965000", "172242.215000", "172243.465000", "172244.715000", "172245.965000", "172247.215000", "172248.465000", "172249.715000", "172250.965000", "172252.215000", "172253.465000", "172254.715000", "172255.965000", "172257.215000", "172258.465000", "172259.715000", "172300.965000", "172302.215000", "172303.465000", "172304.715000", "172305.965000", "172307.215000", "172308.465000", "172309.715000", "172310.965000", "172312.215000", "172313.465000", "172314.715000", "172315.965000", "172317.215000", "172318.465000", "172319.715000", "172320.965000", "172322.215000", "172323.465000", "172324.715000", "172325.965000", "172327.215000", "172328.465000", "172329.715000", "172330.965000", "172332.215000", "172333.465000", "172334.715000", "172335.965000", "172337.215000", "172338.465000", "172339.715000", "172340.965000"],
      "ContentTime": ["171753.370000", "171754.451000", "171755.693000", "171756.939000", "171758.183000", "171759.447000", "171800.674000", "171801.940000", "171803.192000", "171804.437000", "171805.683000", "171807.009000", "171808.173000", "171809.420000", "171810.680000", "171811.936000", "171813.190000", "171814.420000", "171815.685000", "171816.931000", "171818.192000", "171819.444000", "171820.670000", "171821.934000", "171823.168000", "171824.450000", "171825.685000", "171826.937000", "171828.201000", "171829.437000", "171830.696000", "171831.944000", "171833.203000", "171834.444000", "171835.671000", "171836.962000", "171838.181000", "171839.434000", "171840.714000", "171841.947000", "171843.206000", "171844.409000", "171845.675000", "171846.945000", "171848.248000", "171849.447000", "171850.689000", "171851.946000", "171853.195000", "171854.436000", "171855.695000", "171856.944000", "171858.214000", "171859.489000", "171900.692000", "171901.927000", "171903.179000", "171904.434000", "171905.708000", "171906.937000", "171908.189000", "171909.433000", "171910.662000", "171911.930000", "171913.195000", "171914.446000", "171915.698000", "171916.938000", "171918.189000", "171919.427000", "171920.690000", "171921.921000", "171923.196000", "171924.501000", "171925.687000", "171926.929000", "171928.258000", "171929.432000", "171930.692000", "171931.960000", "171933.197000", "171934.425000", "171935.688000", "171936.937000", "171938.192000", "171939.433000", "171940.671000", "171941.993000", "171943.185000", "171944.430000", "171945.704000", "171946.939000", "171948.189000", "171949.455000", "171950.693000", "171951.956000", "171953.181000", "171954.423000", "171955.690000", "171956.933000", "171958.201000", "171959.432000", "172000.681000", "172001.958000", "172003.200000", "172004.458000", "172005.691000", "172006.946000", "172008.251000", "172009.444000", "172010.694000", "172011.962000", "172013.198000", "172014.462000", "172015.704000", "172016.972000", "172018.187000", "172019.447000", "172020.714000", "172021.961000", "172023.185000", "172024.454000", "172025.696000", "172026.960000", "172028.190000", "172029.449000", "172030.710000", "172031.936000", "172033.246000", "172034.459000", "172035.698000", "172036.964000", "172038.208000", "172039.474000", "172040.692000", "172041.978000", "172043.221000", "172044.456000", "172045.703000", "172046.947000", "172048.210000", "172049.436000", "172050.707000", "172051.961000", "172053.211000", "172054.444000", "172055.710000", "172056.948000", "172058.182000", "172059.469000", "172100.708000", "172101.945000", "172103.199000", "172104.458000", "172105.694000", "172106.940000", "172108.178000", "172109.439000", "172110.758000", "172111.964000", "172113.198000", "172114.496000", "172115.721000", "172116.941000", "172118.182000", "172119.450000", "172120.701000", "172121.945000", "172123.225000", "172124.455000", "172125.694000", "172126.958000", "172128.180000", "172129.445000", "172130.719000", "172131.979000", "172133.197000", "172134.462000", "172135.711000", "172136.952000", "172138.198000", "172139.457000", "172140.709000", "172141.943000", "172143.202000", "172144.468000", "172145.696000", "172146.950000", "172148.188000", "172149.467000", "172150.715000", "172151.950000", "172153.214000", "172154.427000", "172155.720000", "172156.938000", "172158.197000", "172159.473000", "172200.680000", "172201.955000", "172203.172000", "172204.438000", "172205.692000", "172206.931000", "172208.234000", "172209.453000", "172210.692000", "172211.929000", "172213.202000", "172214.439000", "172215.731000", "172216.939000", "172218.186000", "172219.451000", "172220.699000", "172221.939000", "172223.229000", "172224.429000", "172225.690000", "172226.944000", "172228.223000", "172229.447000", "172230.674000", "172231.943000", "172233.186000", "172234.456000", "172235.683000", "172236.962000", "172238.315000", "172239.456000", "172240.739000", "172241.993000", "172243.202000", "172244.458000", "172245.677000", "172246.934000", "172248.184000", "172249.447000", "172250.704000", "172251.975000", "172253.206000", "172254.448000", "172255.694000", "172256.943000", "172258.205000", "172259.454000", "172300.749000", "172301.921000", "172303.203000", "172304.448000", "172305.701000", "172306.948000", "172308.201000", "172309.434000", "172310.699000", "172311.957000", "172313.187000", "172314.437000", "172315.701000", "172316.926000", "172318.190000", "172319.443000", "172320.681000", "172321.984000", "172323.190000", "172324.425000", "172325.691000", "172326.967000", "172328.220000", "172329.466000", "172330.709000", "172331.951000", "172333.211000", "172334.440000", "172335.702000", "172336.945000", "172338.184000", "172339.485000", "172340.723000", "172341.997000"],
      "InstanceCreationTime": ["171753.370000", "171754.451000", "171755.693000", "171756.939000", "171758.183000", "171759.447000", "171800.674000", "171801.940000", "171803.192000", "171804.437000", "171805.683000", "171807.009000", "171808.173000", "171809.420000", "171810.680000", "171811.936000", "171813.190000", "171814.420000", "171815.685000", "171816.931000", "171818.192000", "171819.444000", "171820.670000", "171821.934000", "171823.168000", "171824.450000", "171825.685000", "171826.937000", "171828.201000", "171829.437000", "171830.696000", "171831.944000", "171833.203000", "171834.444000", "171835.671000", "171836.962000", "171838.181000", "171839.434000", "171840.714000", "171841.947000", "171843.206000", "171844.409000", "171845.675000", "171846.945000", "171848.248000", "171849.447000", "171850.689000", "171851.946000", "171853.195000", "171854.436000", "171855.695000", "171856.944000", "171858.214000", "171859.489000", "171900.692000", "171901.927000", "171903.179000", "171904.434000", "171905.708000", "171906.937000", "171908.189000", "171909.433000", "171910.662000", "171911.930000", "171913.195000", "171914.446000", "171915.698000", "171916.938000", "171918.189000", "171919.427000", "171920.690000", "171921.921000", "171923.196000", "171924.501000", "171925.687000", "171926.929000", "171928.258000", "171929.432000", "171930.692000", "171931.960000", "171933.197000", "171934.425000", "171935.688000", "171936.937000", "171938.192000", "171939.433000", "171940.671000", "171941.993000", "171943.185000", "171944.430000", "171945.704000", "171946.939000", "171948.189000", "171949.455000", "171950.693000", "171951.956000", "171953.181000", "171954.423000", "171955.690000", "171956.933000", "171958.201000", "171959.432000", "172000.681000", "172001.958000", "172003.200000", "172004.458000", "172005.691000", "172006.946000", "172008.251000", "172009.444000", "172010.694000", "172011.962000", "172013.198000", "172014.462000", "172015.704000", "172016.972000", "172018.187000", "172019.447000", "172020.714000", "172021.961000", "172023.185000", "172024.454000", "172025.696000", "172026.960000", "172028.190000", "172029.449000", "172030.710000", "172031.936000", "172033.246000", "172034.459000", "172035.698000", "172036.964000", "172038.208000", "172039.474000", "172040.692000", "172041.978000", "172043.221000", "172044.456000", "172045.703000", "172046.947000", "172048.210000", "172049.436000", "172050.707000", "172051.961000", "172053.211000", "172054.444000", "172055.710000", "172056.948000", "172058.182000", "172059.469000", "172100.708000", "172101.945000", "172103.199000", "172104.458000", "172105.694000", "172106.940000", "172108.178000", "172109.439000", "172110.758000", "172111.964000", "172113.198000", "172114.496000", "172115.721000", "172116.941000", "172118.182000", "172119.450000", "172120.701000", "172121.945000", "172123.225000", "172124.455000", "172125.694000", "172126.958000", "172128.180000", "172129.445000", "172130.719000", "172131.979000", "172133.197000", "172134.462000", "172135.711000", "172136.952000", "172138.198000", "172139.457000", "172140.709000", "172141.943000", "172143.202000", "172144.468000", "172145.696000", "172146.950000", "172148.188000", "172149.467000", "172150.715000", "172151.950000", "172153.214000", "172154.427000", "172155.720000", "172156.938000", "172158.197000", "172159.473000", "172200.680000", "172201.955000", "172203.172000", "172204.438000", "172205.692000", "172206.931000", "172208.234000", "172209.453000", "172210.692000", "172211.929000", "172213.202000", "172214.439000", "172215.731000", "172216.939000", "172218.186000", "172219.451000", "172220.699000", "172221.939000", "172223.229000", "172224.429000", "172225.690000", "172226.944000", "172228.223000", "172229.447000", "172230.674000", "172231.943000", "172233.186000", "172234.456000", "172235.683000", "172236.962000", "172238.315000", "172239.456000", "172240.739000", "172241.993000", "172243.202000", "172244.458000", "172245.677000", "172246.934000", "172248.184000", "172249.447000", "172250.704000", "172251.975000", "172253.206000", "172254.448000", "172255.694000", "172256.943000", "172258.205000", "172259.454000", "172300.749000", "172301.921000", "172303.203000", "172304.448000", "172305.701000", "172306.948000", "172308.201000", "172309.434000", "172310.699000", "172311.957000", "172313.187000", "172314.437000", "172315.701000", "172316.926000", "172318.190000", "172319.443000", "172320.681000", "172321.984000", "172323.190000", "172324.425000", "172325.691000", "172326.967000", "172328.220000", "172329.466000", "172330.709000", "172331.951000", "172333.211000", "172334.440000", "172335.702000", "172336.945000", "172338.184000", "172339.485000", "172340.723000", "172341.997000"],
      "InstanceNumber": [1, 2, 3, 4, 5, 6, 7, 8, 9, 10, 11, 12, 13, 14, 15, 16, 17, 18, 19, 20, 21, 22, 23, 24, 25, 26, 27, 28, 29, 30, 31, 32, 33, 34, 35, 36, 37, 38, 39, 40, 41, 42, 43, 44, 45, 46, 47, 48, 49, 50, 51, 52, 53, 54, 55, 56, 57, 58, 59, 60, 61, 62, 63, 64, 65, 66, 67, 68, 69, 70, 71, 72, 73, 74, 75, 76, 77, 78, 79, 80, 81, 82, 83, 84, 85, 86, 87, 88, 89, 90, 91, 92, 93, 94, 95, 96, 97, 98, 99, 100, 101, 102, 103, 104, 105, 106, 107, 108, 109, 110, 111, 112, 113, 114, 115, 116, 117, 118, 119, 120, 121, 122, 123, 124, 125, 126, 127, 128, 129, 130, 131, 132, 133, 134, 135, 136, 137, 138, 139, 140, 141, 142, 143, 144, 145, 146, 147, 148, 149, 150, 151, 152, 153, 154, 155, 156, 157, 158, 159, 160, 161, 162, 163, 164, 165, 166, 167, 168, 169, 170, 171, 172, 173, 174, 175, 176, 177, 178, 179, 180, 181, 182, 183, 184, 185, 186, 187, 188, 189, 190, 191, 192, 193, 194, 195, 196, 197, 198, 199, 200, 201, 202, 203, 204, 205, 206, 207, 208, 209, 210, 211, 212, 213, 214, 215, 216, 217, 218, 219, 220, 221, 222, 223, 224, 225, 226, 227, 228, 229, 230, 231, 232, 233, 234, 235, 236, 237, 238, 239, 240, 241, 242, 243, 244, 245, 246, 247, 248, 249, 250, 251, 252, 253, 254, 255, 256, 257, 258, 259, 260, 261, 262, 263, 264, 265, 266, 267, 268, 269, 270, 271, 272, 273, 274, 275, 276, 277, 278, 279, 280],
      "LargestImagePixelValue": [828, 1055, 1244, 1053, 845, 1040, 1254, 993, 810, 1050, 1033, 973, 1245, 896, 786, 975, 1156, 803, 934, 1234, 917, 1043, 1438, 847, 1010, 856, 1144, 1073, 1016, 1260, 1097, 816, 983, 949, 1229, 795, 978, 1270, 989, 1030, 996, 1209, 1182, 903, 1083, 875, 1219, 1132, 945, 1040, 1387, 871, 992, 980, 1077, 1053, 917, 1141, 1279, 832, 1000, 1072, 1107, 1107, 813, 889, 1178, 881, 975, 1454, 839, 929, 1073, 982, 1215, 1169, 839, 968, 1318, 1034, 961, 1038, 1016, 1042, 811, 873, 1174, 914, 954, 1244, 1436, 838, 930, 1195, 961, 836, 893, 1018, 954, 822, 903, 920, 834, 1036, 1120, 956, 1025, 1058, 1226, 849, 802, 934, 938, 924, 1190, 1316, 1023, 913, 1263, 884, 933, 1105, 1370, 1083, 910, 1022, 969, 946, 944, 854, 1077, 946, 1315, 847, 986, 1057, 1098, 943, 980, 853, 844, 940, 1077, 1155, 871, 989, 1194, 937, 998, 923, 882, 1033, 1115, 997, 1000, 1088, 954, 974, 1114, 1327, 939, 1063, 1307, 860, 788, 942, 862, 947, 1002, 1369, 1000, 815, 924, 930, 938, 956, 1141, 919, 869, 979, 909, 887, 1014, 1059, 965, 940, 1180, 856, 877, 1064, 1161, 776, 912, 1223, 1041, 1030, 1376, 837, 1123, 1117, 815, 790, 1208, 845, 831, 984, 1185, 793, 928, 842, 1025, 934, 1044, 1017, 1180, 865, 764, 984, 1202, 827, 1012, 1296, 1160, 918, 827, 774, 1242, 802, 842, 1184, 816, 839, 1081, 835, 1108, 957, 943, 1193, 878, 767, 1046, 815, 856, 1226, 1019, 851, 1201, 998, 918, 948, 1095, 812, 810, 963, 858, 842, 950, 963, 963, 1234, 1160, 877, 961, 894, 778, 1163, 943, 770, 896, 1150, 827, 917, 1052, 1022, 804, 809, 1200, 971, 768, 818],
      "WindowCenter": [378.0, 380.0, 381.0, 379.0, 376.0, 379.0, 380.0, 377.0, 376.0, 379.0, 378.0, 377.0, 379.0, 376.0, 376.0, 379.0, 381.0, 377.0, 379.0, 381.0, 378.0, 379.0, 382.0, 377.0, 379.0, 378.0, 381.0, 379.0, 379.0, 381.0, 379.0, 376.0, 378.0, 378.0, 381.0, 377.0, 379.0, 381.0, 379.0, 379.0, 379.0, 381.0, 380.0, 379.0, 380.0, 378.0, 381.0, 380.0, 378.0, 379.0, 381.0, 378.0, 379.0, 379.0, 380.0, 379.0, 378.0, 381.0, 381.0, 377.0, 379.0, 379.0, 379.0, 379.0, 376.0, 378.0, 381.0, 378.0, 379.0, 382.0, 377.0, 378.0, 380.0, 379.0, 381.0, 379.0, 377.0, 378.0, 381.0, 379.0, 378.0, 379.0, 379.0, 379.0, 377.0, 378.0, 381.0, 378.0, 379.0, 380.0, 381.0, 376.0, 377.0, 380.0, 377.0, 376.0, 377.0, 379.0, 378.0, 377.0, 378.0, 379.0, 378.0, 379.0, 379.0, 379.0, 379.0, 379.0, 381.0, 377.0, 377.0, 380.0, 380.0, 379.0, 381.0, 382.0, 379.0, 378.0, 382.0, 378.0, 379.0, 380.0, 381.0, 379.0, 378.0, 379.0, 378.0, 378.0, 378.0, 377.0, 379.0, 378.0, 381.0, 377.0, 378.0, 379.0, 378.0, 377.0, 378.0, 377.0, 378.0, 379.0, 380.0, 381.0, 378.0, 380.0, 381.0, 379.0, 380.0, 379.0, 378.0, 380.0, 380.0, 380.0, 379.0, 380.0, 379.0, 379.0, 381.0, 382.0, 378.0, 380.0, 381.0, 377.0, 376.0, 378.0, 377.0, 378.0, 379.0, 381.0, 379.0, 376.0, 377.0, 378.0, 378.0, 378.0, 380.0, 378.0, 377.0, 377.0, 378.0, 377.0, 378.0, 379.0, 378.0, 378.0, 380.0, 377.0, 377.0, 378.0, 379.0, 377.0, 378.0, 381.0, 379.0, 379.0, 381.0, 377.0, 379.0, 379.0, 376.0, 376.0, 380.0, 376.0, 377.0, 378.0, 380.0, 377.0, 378.0, 378.0, 380.0, 378.0, 379.0, 379.0, 380.0, 377.0, 376.0, 379.0, 380.0, 377.0, 379.0, 381.0, 380.0, 377.0, 376.0, 377.0, 380.0, 377.0, 377.0, 381.0, 376.0, 377.0, 379.0, 378.0, 380.0, 378.0, 378.0, 380.0, 377.0, 376.0, 380.0, 378.0, 378.0, 381.0, 379.0, 377.0, 380.0, 378.0, 377.0, 378.0, 379.0, 376.0, 376.0, 378.0, 378.0, 378.0, 379.0, 379.0, 379.0, 380.0, 379.0, 377.0, 378.0, 377.0, 377.0, 380.0, 378.0, 376.0, 377.0, 380.0, 377.0, 378.0, 379.0, 379.0, 376.0, 376.0, 380.0, 378.0, 376.0, 377.0],
      "WindowWidth": [807.0, 808.0, 810.0, 806.0, 803.0, 806.0, 808.0, 804.0, 802.0, 806.0, 805.0, 804.0, 806.0, 802.0, 802.0, 807.0, 809.0, 804.0, 807.0, 810.0, 806.0, 807.0, 811.0, 804.0, 806.0, 805.0, 810.0, 808.0, 808.0, 809.0, 806.0, 803.0, 805.0, 806.0, 809.0, 804.0, 807.0, 810.0, 807.0, 807.0, 808.0, 810.0, 809.0, 807.0, 809.0, 806.0, 811.0, 808.0, 806.0, 808.0, 810.0, 805.0, 808.0, 807.0, 809.0, 808.0, 806.0, 809.0, 810.0, 804.0, 807.0, 807.0, 807.0, 807.0, 803.0, 805.0, 810.0, 806.0, 807.0, 812.0, 805.0, 806.0, 809.0, 807.0, 809.0, 807.0, 804.0, 806.0, 810.0, 806.0, 806.0, 808.0, 807.0, 807.0, 805.0, 807.0, 810.0, 806.0, 807.0, 809.0, 810.0, 803.0, 804.0, 808.0, 804.0, 802.0, 804.0, 806.0, 806.0, 804.0, 806.0, 807.0, 806.0, 808.0, 807.0, 807.0, 808.0, 808.0, 810.0, 804.0, 804.0, 809.0, 809.0, 807.0, 810.0, 812.0, 808.0, 806.0, 811.0, 806.0, 807.0, 808.0, 810.0, 807.0, 805.0, 807.0, 805.0, 806.0, 805.0, 805.0, 807.0, 805.0, 809.0, 804.0, 805.0, 806.0, 806.0, 804.0, 806.0, 804.0, 806.0, 808.0, 809.0, 810.0, 807.0, 808.0, 810.0, 807.0, 809.0, 807.0, 807.0, 809.0, 809.0, 808.0, 808.0, 809.0, 807.0, 808.0, 810.0, 811.0, 806.0, 808.0, 810.0, 804.0, 803.0, 805.0, 804.0, 806.0, 806.0, 810.0, 806.0, 803.0, 804.0, 806.0, 806.0, 806.0, 808.0, 805.0, 804.0, 804.0, 805.0, 804.0, 806.0, 807.0, 806.0, 805.0, 809.0, 804.0, 804.0, 806.0, 807.0, 804.0, 806.0, 810.0, 808.0, 806.0, 810.0, 804.0, 807.0, 806.0, 802.0, 803.0, 808.0, 802.0, 804.0, 805.0, 808.0, 804.0, 806.0, 806.0, 808.0, 806.0, 806.0, 806.0, 808.0, 804.0, 803.0, 807.0, 809.0, 804.0, 807.0, 809.0, 807.0, 805.0, 803.0, 804.0, 809.0, 803.0, 805.0, 809.0, 803.0, 804.0, 807.0, 806.0, 809.0, 806.0, 806.0, 809.0, 804.0, 803.0, 808.0, 806.0, 806.0, 810.0, 807.0, 804.0, 808.0, 805.0, 804.0, 805.0, 807.0, 803.0, 804.0, 805.0, 805.0, 806.0, 807.0, 807.0, 807.0, 809.0, 807.0, 804.0, 806.0, 805.0, 804.0, 809.0, 806.0, 802.0, 805.0, 809.0, 805.0, 806.0, 806.0, 807.0, 803.0, 803.0, 809.0, 806.0, 803.0, 805.0]
    },
    "slices": {}
  }
}