{
  "AcquisitionMatrixPE": 96,
  "AcquisitionNumber": 1,
  "AcquisitionTime": "18:12:18.332500",
  "BandwidthPerPixelPhaseEncode": 18.939,
  "BaseResolution": 96,
  "BodyPartExamined": "BRAIN",
  "ConsistencyInfo": "N4_VE11C_LATEST_20160120",
  "ConversionSoftware": "dcm2niix",
  "ConversionSoftwareVersion": "v1.0.20170923 (OpenJPEG build) GCC6.3.0",
  "DerivedVendorReportedEchoSpacing": 0.000550011,
  "DeviceSerialNumber": "66112",
  "DwellTime": 2.3e-06,
  "EchoTime": 0.033,
  "EchoTrainLength": 96,
  "EffectiveEchoSpacing": 0.000550011,
  "FlipAngle": 64,
  "ImageType": [
    "ORIGINAL",
    "PRIMARY",
    "FMRI",
    "NONE",
    "ND",
    "NORM",
    "MOSAIC"
],
  "InstitutionAddress": "Maynard_3_Hanover_NH_US_03755",
  "InstitutionName": "Dartmouth_College_-_PBS",
  "MagneticFieldStrength": 3,
  "Manufacturer": "Siemens",
  "ManufacturersModelName": "Prisma",
  "Modality": "MR",
  "MultibandAccelerationFactor": 4,
  "PartialFourier": 1,
  "PercentPhaseFOV": 100,
  "PhaseEncodingDirection": "j-",
  "PhaseEncodingSteps": 96,
  "PhaseResolution": 1,
  "ProcedureStepDescription": "Gobbini_Matteo_1017_famface-angles",
  "ProtocolName": "func_run-09_task-str1back",
  "PulseSequenceDetails": "%SiemensSeq%_ep2d_bold",
  "ReceiveCoilActiveElements": "HEA;HEP",
  "ReceiveCoilName": "Head_32",
  "ReconMatrixPE": 96,
  "RepetitionTime": 1.25,
  "ScanOptions": "FS",
  "ScanningSequence": "EP",
  "SequenceName": "_epfid2d1_96",
  "SequenceVariant": "SK",
  "SeriesDescription": "func_run-09_task-str1back",
  "SliceTiming": [0.88, 0, 0.615, 0.0875, 0.7025, 0.1775, 0.7925, 0.3525, 0.9675, 0.44, 1.055, 0.5275, 1.1425, 0.265, 0.88, 0, 0.615, 0.0875, 0.7025, 0.1775, 0.7925, 0.3525, 0.9675, 0.44, 1.055, 0.5275, 1.1425, 0.265, 0.88, 0, 0.615, 0.0875, 0.7025, 0.1775, 0.7925, 0.3525, 0.9675, 0.44, 1.055, 0.5275, 1.1425, 0.265, 0.88, 0, 0.615, 0.0875, 0.7025, 0.1775, 0.7925, 0.3525, 0.9675, 0.44, 1.055, 0.5275, 1.1425, 0.265],
  "SoftwareVersions": "syngo_MR_E11",
  "StationName": "AWP66112",
  "TaskName": "str1back",
  "TotalReadoutTime": 0.0522511,
  "dcmmeta_affine": [
    [-2.4963953495025635, -0.10681237280368805, 0.0812472403049469, 129.85928344726562],
    [-0.10800638049840927, 2.497415781021118, -0.03534572571516037, -94.96044921875],
    [0.07965310662984848, 0.03880485147237778, 2.498429298400879, -97.97564697265625],
    [0.0, 0.0, 0.0, 1.0]
],
  "dcmmeta_reorient_transform": [
    [0.0, -1.0, 0.0, 95.0],
    [1.0, 0.0, 0.0, 0.0],
    [0.0, 0.0, 1.0, 0.0],
    [0.0, 0.0, 0.0, 1.0]
],
  "dcmmeta_shape": [96, 96, 56, 280],
  "dcmmeta_slice_dim": 2,
  "dcmmeta_version": 0.6,
  "global": {
    "const": {
      "AccessionNumber": "A000288",
      "AcquisitionMatrix": [96, 0, 0, 96],
      "AngioFlag": "N",
      "BitsAllocated": 16,
      "BitsStored": 12,
      "BodyPartExamined": "BRAIN",
      "Columns": 768,
      "EchoNumbers": 1,
      "EchoTime": 33.0,
      "EchoTrainLength": 96,
      "FlipAngle": 64.0,
      "HighBit": 11,
      "ImageOrientationPatient": [0.99855816080821, 0.0432025534305, 0.03186124386161, -0.0427249486984, 0.99896628978956, -0.0155219400461],
      "ImagePositionPatient": [-922.61200387232, -1017.7158751205, -108.01419998561],
      "ImageType": [
        "ORIGINAL",
        "PRIMARY",
        "FMRI",
        "NONE",
        "ND",
        "NORM",
        "MOSAIC"
],
      "ImagedNucleus": "1H",
      "ImagingFrequency": 123.252407,
      "InPlanePhaseEncodingDirection": "COL",
      "MRAcquisitionType": "2D",
      "MagneticFieldStrength": 3.0,
      "Manufacturer": "SIEMENS",
      "ManufacturerModelName": "Prisma",
      "Modality": "MR",
      "NumberOfAverages": 1.0,
      "NumberOfPhaseEncodingSteps": 96,
      "PercentPhaseFieldOfView": 100.0,
      "PercentSampling": 100.0,
      "PerformedProcedureStepStartTime": "165832.023000",
      "PhotometricInterpretation": "MONOCHROME2",
      "PixelBandwidth": 2265.0,
      "PixelRepresentation": 0,
      "PixelSpacing": [2.5, 2.5],
      "PositionReferenceIndicator": "",
      "ProtocolName": "func_run-09_task-str1back",
      "RepetitionTime": 1250.0,
      "Rows": 768,
      "SAR": 0.0521049680728,
      "SamplesPerPixel": 1,
      "ScanOptions": "FS",
      "ScanningSequence": "EP",
      "SequenceName": "*epfid2d1_96",
      "SequenceVariant": "SK",
      "SeriesDescription": "func_run-09_task-str1back",
      "SeriesNumber": 67,
      "SeriesTime": "181219.523000",
      "SliceLocation": -92.351232499625,
      "SliceThickness": 2.5,
      "SmallestImagePixelValue": 0,
      "SoftwareVersions": "syngo MR E11",
      "SpacingBetweenSlices": 2.4999999647722,
      "SpecificCharacterSet": "ISO_IR 100",
      "StudyID": "1",
      "StudyTime": "165831.981000",
      "TransmitCoilName": "Body",
      "VariableFlipAngleFlag": "N",
      "WindowCenterWidthExplanation": "Algo1",
      "dBdt": 0.0},
    "slices": {}
  },
  "time": {
    "samples": {
      "AcquisitionNumber": [1, 2, 3, 4, 5, 6, 7, 8, 9, 10, 11, 12, 13, 14, 15, 16, 17, 18, 19, 20, 21, 22, 23, 24, 25, 26, 27, 28, 29, 30, 31, 32, 33, 34, 35, 36, 37, 38, 39, 40, 41, 42, 43, 44, 45, 46, 47, 48, 49, 50, 51, 52, 53, 54, 55, 56, 57, 58, 59, 60, 61, 62, 63, 64, 65, 66, 67, 68, 69, 70, 71, 72, 73, 74, 75, 76, 77, 78, 79, 80, 81, 82, 83, 84, 85, 86, 87, 88, 89, 90, 91, 92, 93, 94, 95, 96, 97, 98, 99, 100, 101, 102, 103, 104, 105, 106, 107, 108, 109, 110, 111, 112, 113, 114, 115, 116, 117, 118, 119, 120, 121, 122, 123, 124, 125, 126, 127, 128, 129, 130, 131, 132, 133, 134, 135, 136, 137, 138, 139, 140, 141, 142, 143, 144, 145, 146, 147, 148, 149, 150, 151, 152, 153, 154, 155, 156, 157, 158, 159, 160, 161, 162, 163, 164, 165, 166, 167, 168, 169, 170, 171, 172, 173, 174, 175, 176, 177, 178, 179, 180, 181, 182, 183, 184, 185, 186, 187, 188, 189, 190, 191, 192, 193, 194, 195, 196, 197, 198, 199, 200, 201, 202, 203, 204, 205, 206, 207, 208, 209, 210, 211, 212, 213, 214, 215, 216, 217, 218, 219, 220, 221, 222, 223, 224, 225, 226, 227, 228, 229, 230, 231, 232, 233, 234, 235, 236, 237, 238, 239, 240, 241, 242, 243, 244, 245, 246, 247, 248, 249, 250, 251, 252, 253, 254, 255, 256, 257, 258, 259, 260, 261, 262, 263, 264, 265, 266, 267, 268, 269, 270, 271, 272, 273, 274, 275, 276, 277, 278, 279, 280],
      "AcquisitionTime": ["181218.332500", "181219.582500", "181220.832500", "181222.082500", "181223.332500", "181224.582500", "181225.832500", "181227.082500", "181228.332500", "181229.582500", "181230.832500", "181232.082500", "181233.332500", "181234.582500", "181235.832500", "181237.082500", "181238.332500", "181239.582500", "181240.832500", "181242.082500", "181243.332500", "181244.582500", "181245.832500", "181247.082500", "181248.332500", "181249.582500", "181250.832500", "181252.082500", "181253.332500", "181254.582500", "181255.832500", "181257.082500", "181258.332500", "181259.582500", "181300.832500", "181302.082500", "181303.332500", "181304.582500", "181305.832500", "181307.082500", "181308.332500", "181309.582500", "181310.832500", "181312.082500", "181313.332500", "181314.582500", "181315.832500", "181317.082500", "181318.332500", "181319.582500", "181320.832500", "181322.082500", "181323.332500", "181324.582500", "181325.832500", "181327.082500", "181328.332500", "181329.582500", "181330.832500", "181332.082500", "181333.332500", "181334.582500", "181335.832500", "181337.082500", "181338.332500", "181339.582500", "181340.832500", "181342.082500", "181343.332500", "181344.582500", "181345.832500", "181347.082500", "181348.332500", "181349.582500", "181350.832500", "181352.082500", "181353.332500", "181354.582500", "181355.832500", "181357.082500", "181358.332500", "181359.582500", "181400.832500", "181402.082500", "181403.332500", "181404.582500", "181405.832500", "181407.082500", "181408.332500", "181409.582500", "181410.832500", "181412.082500", "181413.332500", "181414.582500", "181415.832500", "181417.082500", "181418.332500", "181419.582500", "181420.832500", "181422.082500", "181423.332500", "181424.582500", "181425.832500", "181427.082500", "181428.332500", "181429.582500", "181430.832500", "181432.082500", "181433.332500", "181434.582500", "181435.832500", "181437.082500", "181438.332500", "181439.582500", "181440.832500", "181442.082500", "181443.332500", "181444.582500", "181445.832500", "181447.082500", "181448.332500", "181449.582500", "181450.832500", "181452.082500", "181453.332500", "181454.582500", "181455.832500", "181457.082500", "181458.332500", "181459.582500", "181500.832500", "181502.082500", "181503.332500", "181504.582500", "181505.832500", "181507.082500", "181508.332500", "181509.582500", "181510.832500", "181512.082500", "181513.332500", "181514.582500", "181515.832500", "181517.082500", "181518.332500", "181519.582500", "181520.832500", "181522.082500", "181523.332500", "181524.582500", "181525.832500", "181527.082500", "181528.332500", "181529.582500", "181530.832500", "181532.082500", "181533.332500", "181534.582500", "181535.832500", "181537.082500", "181538.332500", "181539.582500", "181540.832500", "181542.082500", "181543.332500", "181544.582500", "181545.832500", "181547.082500", "181548.332500", "181549.582500", "181550.832500", "181552.082500", "181553.332500", "181554.582500", "181555.832500", "181557.082500", "181558.332500", "181559.582500", "181600.832500", "181602.082500", "181603.332500", "181604.582500", "181605.832500", "181607.082500", "181608.332500", "181609.582500", "181610.832500", "181612.082500", "181613.332500", "181614.582500", "181615.832500", "181617.082500", "181618.332500", "181619.582500", "181620.832500", "181622.082500", "181623.332500", "181624.582500", "181625.832500", "181627.082500", "181628.332500", "181629.582500", "181630.832500", "181632.082500", "181633.332500", "181634.582500", "181635.832500", "181637.082500", "181638.332500", "181639.582500", "181640.832500", "181642.082500", "181643.332500", "181644.582500", "181645.832500", "181647.082500", "181648.332500", "181649.582500", "181650.832500", "181652.082500", "181653.332500", "181654.582500", "181655.832500", "181657.082500", "181658.332500", "181659.582500", "181700.832500", "181702.082500", "181703.332500", "181704.582500", "181705.832500", "181707.082500", "181708.332500", "181709.582500", "181710.832500", "181712.082500", "181713.332500", "181714.582500", "181715.832500", "181717.082500", "181718.332500", "181719.582500", "181720.832500", "181722.082500", "181723.332500", "181724.582500", "181725.832500", "181727.082500", "181728.332500", "181729.582500", "181730.832500", "181732.082500", "181733.332500", "181734.582500", "181735.832500", "181737.082500", "181738.332500", "181739.582500", "181740.832500", "181742.082500", "181743.332500", "181744.582500", "181745.832500", "181747.082500", "181748.332500", "181749.582500", "181750.832500", "181752.082500", "181753.332500", "181754.582500", "181755.832500", "181757.082500", "181758.332500", "181759.582500", "181800.832500", "181802.082500", "181803.332500", "181804.582500", "181805.832500", "181807.082500"],
      "ContentTime": ["181219.527000", "181220.568000", "181221.827000", "181223.084000", "181224.336000", "181225.592000", "181226.819000", "181228.054000", "181229.318000", "181230.586000", "181231.829000", "181233.070000", "181234.323000", "181235.568000", "181236.804000", "181238.074000", "181239.317000", "181240.558000", "181241.831000", "181243.128000", "181244.314000", "181245.569000", "181246.806000", "181248.060000", "181249.383000", "181250.560000", "181251.797000", "181253.078000", "181254.305000", "181255.572000", "181256.860000", "181258.069000", "181259.330000", "181300.569000", "181301.818000", "181303.060000", "181304.315000", "181305.573000", "181306.817000", "181308.081000", "181309.308000", "181310.571000", "181311.823000", "181313.052000", "181314.322000", "181315.587000", "181316.819000", "181318.055000", "181319.316000", "181320.571000", "181321.828000", "181323.088000", "181324.314000", "181325.601000", "181326.807000", "181328.065000", "181329.323000", "181330.562000", "181331.845000", "181333.076000", "181334.309000", "181335.561000", "181336.787000", "181338.051000", "181339.306000", "181340.569000", "181341.812000", "181343.085000", "181344.312000", "181345.561000", "181346.876000", "181348.071000", "181349.300000", "181350.540000", "181351.799000", "181353.072000", "181354.335000", "181355.558000", "181356.815000", "181358.084000", "181359.335000", "181400.560000", "181401.814000", "181403.056000", "181404.314000", "181405.568000", "181406.805000", "181408.077000", "181409.328000", "181410.586000", "181411.825000", "181413.059000", "181414.328000", "181415.569000", "181416.816000", "181418.057000", "181419.321000", "181420.567000", "181421.809000", "181423.046000", "181424.359000", "181425.584000", "181426.842000", "181428.064000", "181429.350000", "181430.587000", "181431.833000", "181433.050000", "181434.323000", "181435.567000", "181436.819000", "181438.062000", "181439.317000", "181440.569000", "181441.842000", "181443.076000", "181444.324000", "181445.586000", "181446.830000", "181448.078000", "181449.306000", "181450.575000", "181451.829000", "181453.050000", "181454.319000", "181455.580000", "181456.846000", "181458.085000", "181459.326000", "181500.570000", "181501.872000", "181503.092000", "181504.346000", "181505.588000", "181506.866000", "181508.061000", "181509.329000", "181510.589000", "181511.831000", "181513.062000", "181514.320000", "181515.578000", "181516.837000", "181518.099000", "181519.332000", "181520.559000", "181521.834000", "181523.089000", "181524.383000", "181525.584000", "181526.823000", "181528.081000", "181529.334000", "181530.581000", "181531.811000", "181533.079000", "181534.358000", "181535.581000", "181536.832000", "181538.093000", "181539.332000", "181540.581000", "181541.853000", "181543.059000", "181544.343000", "181545.586000", "181546.813000", "181548.080000", "181549.314000", "181550.559000", "181551.842000", "181553.092000", "181554.326000", "181555.607000", "181556.896000", "181558.064000", "181559.367000", "181600.571000", "181601.823000", "181603.073000", "181604.349000", "181605.573000", "181606.829000", "181608.071000", "181609.334000", "181610.582000", "181611.826000", "181613.085000", "181614.312000", "181615.604000", "181616.888000", "181618.089000", "181619.324000", "181620.574000", "181621.828000", "181623.066000", "181624.330000", "181625.582000", "181626.838000", "181628.096000", "181629.322000", "181630.569000", "181631.831000", "181633.079000", "181634.307000", "181635.582000", "181636.803000", "181638.083000", "181639.347000", "181640.573000", "181641.821000", "181643.090000", "181644.334000", "181645.570000", "181646.827000", "181648.067000", "181649.325000", "181650.584000", "181651.813000", "181653.098000", "181654.331000", "181655.573000", "181656.817000", "181658.083000", "181659.332000", "181700.581000", "181701.824000", "181703.069000", "181704.315000", "181705.562000", "181706.865000", "181708.037000", "181709.317000", "181710.580000", "181711.823000", "181713.071000", "181714.331000", "181715.577000", "181716.818000", "181718.056000", "181719.331000", "181720.578000", "181721.831000", "181723.078000", "181724.333000", "181725.567000", "181726.804000", "181728.066000", "181729.330000", "181730.576000", "181731.843000", "181733.058000", "181734.339000", "181735.585000", "181736.809000", "181738.083000", "181739.326000", "181740.605000", "181741.836000", "181743.074000", "181744.319000", "181745.589000", "181746.829000", "181748.083000", "181749.327000", "181750.568000", "181751.853000", "181753.073000", "181754.310000", "181755.594000", "181756.852000", "181758.055000", "181759.335000", "181800.582000", "181801.846000", "181803.084000", "181804.324000", "181805.573000", "181806.805000", "181808.158000"],
      "InstanceCreationTime": ["181219.527000", "181220.568000", "181221.827000", "181223.084000", "181224.336000", "181225.592000", "181226.819000", "181228.054000", "181229.318000", "181230.586000", "181231.829000", "181233.070000", "181234.323000", "181235.568000", "181236.804000", "181238.074000", "181239.317000", "181240.558000", "181241.831000", "181243.128000", "181244.314000", "181245.569000", "181246.806000", "181248.060000", "181249.383000", "181250.560000", "181251.797000", "181253.078000", "181254.305000", "181255.572000", "181256.860000", "181258.069000", "181259.330000", "181300.569000", "181301.818000", "181303.060000", "181304.315000", "181305.573000", "181306.817000", "181308.081000", "181309.308000", "181310.571000", "181311.823000", "181313.052000", "181314.322000", "181315.587000", "181316.819000", "181318.055000", "181319.316000", "181320.571000", "181321.828000", "181323.088000", "181324.314000", "181325.601000", "181326.807000", "181328.065000", "181329.323000", "181330.562000", "181331.845000", "181333.076000", "181334.309000", "181335.561000", "181336.787000", "181338.051000", "181339.306000", "181340.569000", "181341.812000", "181343.085000", "181344.312000", "181345.561000", "181346.876000", "181348.071000", "181349.300000", "181350.540000", "181351.799000", "181353.072000", "181354.335000", "181355.558000", "181356.815000", "181358.084000", "181359.335000", "181400.560000", "181401.814000", "181403.056000", "181404.314000", "181405.568000", "181406.805000", "181408.077000", "181409.328000", "181410.586000", "181411.825000", "181413.059000", "181414.328000", "181415.569000", "181416.816000", "181418.057000", "181419.321000", "181420.567000", "181421.809000", "181423.046000", "181424.359000", "181425.584000", "181426.842000", "181428.064000", "181429.350000", "181430.587000", "181431.833000", "181433.050000", "181434.323000", "181435.567000", "181436.819000", "181438.062000", "181439.317000", "181440.569000", "181441.842000", "181443.076000", "181444.324000", "181445.586000", "181446.830000", "181448.078000", "181449.306000", "181450.575000", "181451.829000", "181453.050000", "181454.319000", "181455.580000", "181456.846000", "181458.085000", "181459.326000", "181500.570000", "181501.872000", "181503.092000", "181504.346000", "181505.588000", "181506.866000", "181508.061000", "181509.329000", "181510.589000", "181511.831000", "181513.062000", "181514.320000", "181515.578000", "181516.837000", "181518.099000", "181519.332000", "181520.559000", "181521.834000", "181523.089000", "181524.383000", "181525.584000", "181526.823000", "181528.081000", "181529.334000", "181530.581000", "181531.811000", "181533.079000", "181534.358000", "181535.581000", "181536.832000", "181538.093000", "181539.332000", "181540.581000", "181541.853000", "181543.059000", "181544.343000", "181545.586000", "181546.813000", "181548.080000", "181549.314000", "181550.559000", "181551.842000", "181553.092000", "181554.326000", "181555.607000", "181556.896000", "181558.064000", "181559.367000", "181600.571000", "181601.823000", "181603.073000", "181604.349000", "181605.573000", "181606.829000", "181608.071000", "181609.334000", "181610.582000", "181611.826000", "181613.085000", "181614.312000", "181615.604000", "181616.888000", "181618.089000", "181619.324000", "181620.574000", "181621.828000", "181623.066000", "181624.330000", "181625.582000", "181626.838000", "181628.096000", "181629.322000", "181630.569000", "181631.831000", "181633.079000", "181634.307000", "181635.582000", "181636.803000", "181638.083000", "181639.347000", "181640.573000", "181641.821000", "181643.090000", "181644.334000", "181645.570000", "181646.827000", "181648.067000", "181649.325000", "181650.584000", "181651.813000", "181653.098000", "181654.331000", "181655.573000", "181656.817000", "181658.083000", "181659.332000", "181700.581000", "181701.824000", "181703.069000", "181704.315000", "181705.562000", "181706.865000", "181708.037000", "181709.317000", "181710.580000", "181711.823000", "181713.071000", "181714.331000", "181715.577000", "181716.818000", "181718.056000", "181719.331000", "181720.578000", "181721.831000", "181723.078000", "181724.333000", "181725.567000", "181726.804000", "181728.066000", "181729.330000", "181730.576000", "181731.843000", "181733.058000", "181734.339000", "181735.585000", "181736.809000", "181738.083000", "181739.326000", "181740.605000", "181741.836000", "181743.074000", "181744.319000", "181745.589000", "181746.829000", "181748.083000", "181749.327000", "181750.568000", "181751.853000", "181753.073000", "181754.310000", "181755.594000", "181756.852000", "181758.055000", "181759.335000", "181800.582000", "181801.846000", "181803.084000", "181804.324000", "181805.573000", "181806.805000", "181808.158000"],
      "InstanceNumber": [1, 2, 3, 4, 5, 6, 7, 8, 9, 10, 11, 12, 13, 14, 15, 16, 17, 18, 19, 20, 21, 22, 23, 24, 25, 26, 27, 28, 29, 30, 31, 32, 33, 34, 35, 36, 37, 38, 39, 40, 41, 42, 43, 44, 45, 46, 47, 48, 49, 50, 51, 52, 53, 54, 55, 56, 57, 58, 59, 60, 61, 62, 63, 64, 65, 66, 67, 68, 69, 70, 71, 72, 73, 74, 75, 76, 77, 78, 79, 80, 81, 82, 83, 84, 85, 86, 87, 88, 89, 90, 91, 92, 93, 94, 95, 96, 97, 98, 99, 100, 101, 102, 103, 104, 105, 106, 107, 108, 109, 110, 111, 112, 113, 114, 115, 116, 117, 118, 119, 120, 121, 122, 123, 124, 125, 126, 127, 128, 129, 130, 131, 132, 133, 134, 135, 136, 137, 138, 139, 140, 141, 142, 143, 144, 145, 146, 147, 148, 149, 150, 151, 152, 153, 154, 155, 156, 157, 158, 159, 160, 161, 162, 163, 164, 165, 166, 167, 168, 169, 170, 171, 172, 173, 174, 175, 176, 177, 178, 179, 180, 181, 182, 183, 184, 185, 186, 187, 188, 189, 190, 191, 192, 193, 194, 195, 196, 197, 198, 199, 200, 201, 202, 203, 204, 205, 206, 207, 208, 209, 210, 211, 212, 213, 214, 215, 216, 217, 218, 219, 220, 221, 222, 223, 224, 225, 226, 227, 228, 229, 230, 231, 232, 233, 234, 235, 236, 237, 238, 239, 240, 241, 242, 243, 244, 245, 246, 247, 248, 249, 250, 251, 252, 253, 254, 255, 256, 257, 258, 259, 260, 261, 262, 263, 264, 265, 266, 267, 268, 269, 270, 271, 272, 273, 274, 275, 276, 277, 278, 279, 280],
      "LargestImagePixelValue": [916, 996, 1002, 968, 927, 812, 885, 1287, 889, 941, 1223, 831, 825, 1048, 1180, 799, 800, 956, 1187, 816, 842, 1128, 1217, 886, 844, 977, 1227, 883, 860, 975, 1183, 1030, 835, 987, 1268, 909, 821, 946, 984, 1167, 837, 981, 1173, 1018, 879, 1380, 822, 1153, 865, 1120, 858, 1254, 838, 972, 1190, 799, 805, 1068, 1004, 906, 1107, 928, 1149, 967, 1232, 1031, 810, 891, 1036, 852, 1047, 1087, 1106, 921, 870, 941, 1121, 1063, 770, 858, 951, 928, 858, 991, 1212, 1291, 1232, 924, 995, 1193, 971, 768, 1096, 849, 849, 1150, 1315, 1126, 849, 964, 814, 903, 900, 1119, 841, 822, 1113, 1260, 801, 936, 1185, 987, 885, 1042, 1102, 756, 1098, 1017, 899, 995, 830, 798, 1038, 1021, 785, 1067, 1324, 1100, 977, 1194, 1147, 780, 1004, 1068, 807, 868, 959, 1007, 914, 822, 1051, 1324, 1123, 936, 1208, 901, 1040, 963, 982, 926, 1174, 965, 818, 915, 973, 763, 884, 960, 1197, 1291, 899, 795, 969, 1150, 909, 920, 1160, 997, 917, 1130, 1115, 834, 996, 1132, 1098, 970, 879, 783, 1046, 1018, 1178, 1239, 1006, 1267, 797, 874, 978, 1036, 812, 828, 1004, 758, 842, 1017, 1011, 1050, 1118, 838, 1078, 1152, 946, 790, 1102, 1112, 833, 866, 1044, 1151, 753, 943, 1116, 1154, 874, 950, 1280, 1004, 806, 1182, 898, 1108, 948, 921, 939, 811, 934, 1162, 1207, 912, 952, 1200, 840, 843, 978, 871, 944, 958, 1210, 1064, 1060, 981, 807, 887, 993, 750, 882, 1111, 1096, 1155, 766, 1084, 880, 1076, 1241, 1139, 1100, 1206, 1039, 800, 1000, 853, 801, 1005, 796, 1033, 1075, 799, 844, 1031, 1121, 857, 890, 942, 1035, 1144, 783, 833, 862, 857, 1079, 953],
      "WindowCenter": [375.0, 376.0, 377.0, 377.0, 376.0, 376.0, 378.0, 381.0, 378.0, 378.0, 380.0, 377.0, 377.0, 378.0, 380.0, 377.0, 376.0, 378.0, 381.0, 377.0, 377.0, 380.0, 380.0, 377.0, 377.0, 378.0, 380.0, 377.0, 376.0, 378.0, 379.0, 378.0, 376.0, 378.0, 380.0, 378.0, 376.0, 377.0, 378.0, 379.0, 376.0, 378.0, 381.0, 379.0, 377.0, 381.0, 377.0, 379.0, 377.0, 379.0, 377.0, 380.0, 376.0, 377.0, 379.0, 376.0, 375.0, 379.0, 379.0, 378.0, 380.0, 378.0, 379.0, 377.0, 380.0, 378.0, 376.0, 377.0, 379.0, 378.0, 379.0, 379.0, 379.0, 377.0, 376.0, 377.0, 379.0, 379.0, 375.0, 377.0, 378.0, 378.0, 377.0, 380.0, 381.0, 380.0, 379.0, 377.0, 377.0, 379.0, 377.0, 375.0, 378.0, 376.0, 376.0, 379.0, 379.0, 378.0, 376.0, 377.0, 376.0, 378.0, 378.0, 380.0, 377.0, 376.0, 379.0, 380.0, 376.0, 377.0, 378.0, 377.0, 376.0, 379.0, 379.0, 375.0, 378.0, 377.0, 375.0, 377.0, 376.0, 376.0, 378.0, 378.0, 376.0, 378.0, 380.0, 378.0, 377.0, 378.0, 378.0, 374.0, 377.0, 378.0, 375.0, 376.0, 377.0, 378.0, 378.0, 377.0, 379.0, 382.0, 379.0, 378.0, 379.0, 376.0, 377.0, 377.0, 377.0, 377.0, 379.0, 377.0, 375.0, 377.0, 377.0, 376.0, 378.0, 379.0, 381.0, 380.0, 377.0, 376.0, 378.0, 379.0, 377.0, 378.0, 380.0, 378.0, 377.0, 379.0, 379.0, 376.0, 378.0, 379.0, 378.0, 377.0, 377.0, 377.0, 379.0, 378.0, 379.0, 379.0, 376.0, 377.0, 373.0, 374.0, 375.0, 376.0, 373.0, 374.0, 376.0, 375.0, 376.0, 379.0, 379.0, 379.0, 379.0, 377.0, 379.0, 379.0, 377.0, 376.0, 379.0, 379.0, 376.0, 376.0, 378.0, 379.0, 376.0, 379.0, 381.0, 380.0, 377.0, 378.0, 380.0, 378.0, 377.0, 380.0, 377.0, 378.0, 376.0, 377.0, 377.0, 376.0, 378.0, 379.0, 379.0, 376.0, 377.0, 379.0, 376.0, 376.0, 377.0, 377.0, 378.0, 378.0, 380.0, 379.0, 378.0, 378.0, 376.0, 376.0, 377.0, 376.0, 378.0, 380.0, 379.0, 379.0, 376.0, 380.0, 377.0, 378.0, 380.0, 378.0, 378.0, 378.0, 376.0, 373.0, 375.0, 375.0, 375.0, 377.0, 377.0, 379.0, 378.0, 375.0, 376.0, 378.0, 379.0, 376.0, 377.0, 377.0, 378.0, 379.0, 376.0, 376.0, 378.0, 378.0, 380.0, 378.0],
      "WindowWidth": [801.0, 801.0, 802.0, 803.0, 802.0, 803.0, 805.0, 810.0, 805.0, 805.0, 808.0, 803.0, 803.0, 805.0, 808.0, 804.0, 803.0, 806.0, 809.0, 803.0, 804.0, 808.0, 809.0, 804.0, 804.0, 806.0, 809.0, 804.0, 803.0, 805.0, 806.0, 805.0, 803.0, 805.0, 809.0, 805.0, 802.0, 803.0, 805.0, 807.0, 803.0, 805.0, 809.0, 806.0, 804.0, 809.0, 803.0, 807.0, 804.0, 807.0, 804.0, 808.0, 802.0, 804.0, 806.0, 802.0, 800.0, 807.0, 808.0, 806.0, 809.0, 806.0, 807.0, 803.0, 807.0, 805.0, 801.0, 803.0, 806.0, 805.0, 808.0, 807.0, 807.0, 803.0, 802.0, 803.0, 806.0, 806.0, 801.0, 803.0, 805.0, 807.0, 804.0, 808.0, 809.0, 809.0, 806.0, 803.0, 804.0, 806.0, 804.0, 801.0, 806.0, 803.0, 803.0, 806.0, 807.0, 805.0, 801.0, 802.0, 803.0, 805.0, 804.0, 808.0, 805.0, 803.0, 807.0, 808.0, 802.0, 803.0, 806.0, 803.0, 802.0, 806.0, 806.0, 801.0, 805.0, 803.0, 801.0, 804.0, 801.0, 802.0, 805.0, 805.0, 802.0, 805.0, 808.0, 805.0, 804.0, 805.0, 804.0, 799.0, 802.0, 805.0, 801.0, 803.0, 804.0, 805.0, 805.0, 804.0, 808.0, 811.0, 807.0, 804.0, 807.0, 802.0, 804.0, 803.0, 803.0, 803.0, 806.0, 803.0, 800.0, 803.0, 804.0, 802.0, 806.0, 807.0, 809.0, 808.0, 804.0, 802.0, 804.0, 807.0, 803.0, 804.0, 808.0, 805.0, 804.0, 807.0, 806.0, 803.0, 805.0, 806.0, 805.0, 804.0, 803.0, 804.0, 806.0, 805.0, 806.0, 806.0, 802.0, 803.0, 797.0, 798.0, 799.0, 800.0, 797.0, 798.0, 802.0, 801.0, 802.0, 806.0, 807.0, 807.0, 807.0, 803.0, 806.0, 806.0, 804.0, 802.0, 807.0, 807.0, 803.0, 803.0, 805.0, 807.0, 802.0, 807.0, 810.0, 808.0, 804.0, 804.0, 809.0, 804.0, 803.0, 808.0, 803.0, 804.0, 802.0, 803.0, 804.0, 803.0, 805.0, 807.0, 806.0, 802.0, 803.0, 806.0, 801.0, 802.0, 804.0, 804.0, 806.0, 806.0, 809.0, 807.0, 805.0, 804.0, 802.0, 803.0, 804.0, 802.0, 805.0, 808.0, 807.0, 807.0, 803.0, 808.0, 804.0, 805.0, 808.0, 805.0, 804.0, 804.0, 801.0, 797.0, 800.0, 800.0, 800.0, 803.0, 803.0, 806.0, 805.0, 801.0, 801.0, 805.0, 806.0, 803.0, 803.0, 804.0, 805.0, 807.0, 802.0, 803.0, 805.0, 806.0, 809.0, 806.0]
    },
    "slices": {}
  }
}