{
  "AcquisitionMatrixPE": 96,
  "AcquisitionNumber": 1,
  "AcquisitionTime": "17:30:39.250000",
  "BandwidthPerPixelPhaseEncode": 18.939,
  "BaseResolution": 96,
  "BodyPartExamined": "BRAIN",
  "ConsistencyInfo": "N4_VE11C_LATEST_20160120",
  "ConversionSoftware": "dcm2niix",
  "ConversionSoftwareVersion": "v1.0.20170923 (OpenJPEG build) GCC6.3.0",
  "DerivedVendorReportedEchoSpacing": 0.000550011,
  "DeviceSerialNumber": "66112",
  "DwellTime": 2.3e-06,
  "EchoTime": 0.033,
  "EchoTrainLength": 96,
  "EffectiveEchoSpacing": 0.000550011,
  "FlipAngle": 64,
  "ImageType": [
    "ORIGINAL",
    "PRIMARY",
    "FMRI",
    "NONE",
    "ND",
    "NORM",
    "MOSAIC"
],
  "InstitutionAddress": "Maynard_3_Hanover_NH_US_03755",
  "InstitutionName": "Dartmouth_College_-_PBS",
  "MagneticFieldStrength": 3,
  "Manufacturer": "Siemens",
  "ManufacturersModelName": "Prisma",
  "Modality": "MR",
  "MultibandAccelerationFactor": 4,
  "PartialFourier": 1,
  "PercentPhaseFOV": 100,
  "PhaseEncodingDirection": "j-",
  "PhaseEncodingSteps": 96,
  "PhaseResolution": 1,
  "ProcedureStepDescription": "Gobbini_Matteo_1017_famface-angles",
  "ProtocolName": "func_run-03_task-fam1back",
  "PulseSequenceDetails": "%SiemensSeq%_ep2d_bold",
  "ReceiveCoilActiveElements": "HEA;HEP",
  "ReceiveCoilName": "Head_32",
  "ReconMatrixPE": 96,
  "RepetitionTime": 1.25,
  "ScanOptions": "FS",
  "ScanningSequence": "EP",
  "SequenceName": "_epfid2d1_96",
  "SequenceVariant": "SK",
  "SeriesDescription": "func_run-03_task-fam1back",
  "SliceTiming": [0.8775, 0, 0.615, 0.0875, 0.7025, 0.175, 0.79, 0.35, 0.965, 0.4375, 1.0525, 0.5275, 1.14, 0.2625, 0.8775, 0, 0.615, 0.0875, 0.7025, 0.175, 0.79, 0.35, 0.965, 0.4375, 1.0525, 0.5275, 1.14, 0.2625, 0.8775, 0, 0.615, 0.0875, 0.7025, 0.175, 0.79, 0.35, 0.965, 0.4375, 1.0525, 0.5275, 1.14, 0.2625, 0.8775, 0, 0.615, 0.0875, 0.7025, 0.175, 0.79, 0.35, 0.965, 0.4375, 1.0525, 0.5275, 1.14, 0.2625],
  "SoftwareVersions": "syngo_MR_E11",
  "StationName": "AWP66112",
  "TaskName": "fam1back",
  "TotalReadoutTime": 0.0522511,
  "dcmmeta_affine": [
    [-2.4963953495025635, -0.10681237280368805, 0.0812472403049469, 129.85928344726562],
    [-0.10800638049840927, 2.497415781021118, -0.03534572571516037, -94.96044921875],
    [0.07965310662984848, 0.03880485147237778, 2.498429298400879, -97.97564697265625],
    [0.0, 0.0, 0.0, 1.0]
],
  "dcmmeta_reorient_transform": [
    [0.0, -1.0, 0.0, 95.0],
    [1.0, 0.0, 0.0, 0.0],
    [0.0, 0.0, 1.0, 0.0],
    [0.0, 0.0, 0.0, 1.0]
],
  "dcmmeta_shape": [96, 96, 56, 280],
  "dcmmeta_slice_dim": 2,
  "dcmmeta_version": 0.6,
  "global": {
    "const": {
      "AccessionNumber": "A000288",
      "AcquisitionMatrix": [96, 0, 0, 96],
      "AngioFlag": "N",
      "BitsAllocated": 16,
      "BitsStored": 12,
      "BodyPartExamined": "BRAIN",
      "Columns": 768,
      "EchoNumbers": 1,
      "EchoTime": 33.0,
      "EchoTrainLength": 96,
      "FlipAngle": 64.0,
      "HighBit": 11,
      "ImageOrientationPatient": [0.99855816080821, 0.0432025534305, 0.03186124386161, -0.0427249486984, 0.99896628978956, -0.0155219400461],
      "ImagePositionPatient": [-922.61200387232, -1017.7158751205, -108.01419998561],
      "ImageType": [
        "ORIGINAL",
        "PRIMARY",
        "FMRI",
        "NONE",
        "ND",
        "NORM",
        "MOSAIC"
],
      "ImagedNucleus": "1H",
      "ImagingFrequency": 123.252407,
      "InPlanePhaseEncodingDirection": "COL",
      "MRAcquisitionType": "2D",
      "MagneticFieldStrength": 3.0,
      "Manufacturer": "SIEMENS",
      "ManufacturerModelName": "Prisma",
      "Modality": "MR",
      "NumberOfAverages": 1.0,
      "NumberOfPhaseEncodingSteps": 96,
      "PercentPhaseFieldOfView": 100.0,
      "PercentSampling": 100.0,
      "PerformedProcedureStepStartTime": "165832.023000",
      "PhotometricInterpretation": "MONOCHROME2",
      "PixelBandwidth": 2265.0,
      "PixelRepresentation": 0,
      "PixelSpacing": [2.5, 2.5],
      "PositionReferenceIndicator": "",
      "ProtocolName": "func_run-03_task-fam1back",
      "RepetitionTime": 1250.0,
      "Rows": 768,
      "SAR": 0.0521049680728,
      "SamplesPerPixel": 1,
      "ScanOptions": "FS",
      "ScanningSequence": "EP",
      "SequenceName": "*epfid2d1_96",
      "SequenceVariant": "SK",
      "SeriesDescription": "func_run-03_task-fam1back",
      "SeriesNumber": 25,
      "SeriesTime": "173040.278000",
      "SliceLocation": -92.351232499625,
      "SliceThickness": 2.5,
      "SmallestImagePixelValue": 0,
      "SoftwareVersions": "syngo MR E11",
      "SpacingBetweenSlices": 2.4999999647722,
      "SpecificCharacterSet": "ISO_IR 100",
      "StudyID": "1",
      "StudyTime": "165831.981000",
      "TransmitCoilName": "Body",
      "VariableFlipAngleFlag": "N",
      "WindowCenterWidthExplanation": "Algo1",
      "dBdt": 0.0},
    "slices": {}
  },
  "time": {
    "samples": {
      "AcquisitionNumber": [1, 2, 3, 4, 5, 6, 7, 8, 9, 10, 11, 12, 13, 14, 15, 16, 17, 18, 19, 20, 21, 22, 23, 24, 25, 26, 27, 28, 29, 30, 31, 32, 33, 34, 35, 36, 37, 38, 39, 40, 41, 42, 43, 44, 45, 46, 47, 48, 49, 50, 51, 52, 53, 54, 55, 56, 57, 58, 59, 60, 61, 62, 63, 64, 65, 66, 67, 68, 69, 70, 71, 72, 73, 74, 75, 76, 77, 78, 79, 80, 81, 82, 83, 84, 85, 86, 87, 88, 89, 90, 91, 92, 93, 94, 95, 96, 97, 98, 99, 100, 101, 102, 103, 104, 105, 106, 107, 108, 109, 110, 111, 112, 113, 114, 115, 116, 117, 118, 119, 120, 121, 122, 123, 124, 125, 126, 127, 128, 129, 130, 131, 132, 133, 134, 135, 136, 137, 138, 139, 140, 141, 142, 143, 144, 145, 146, 147, 148, 149, 150, 151, 152, 153, 154, 155, 156, 157, 158, 159, 160, 161, 162, 163, 164, 165, 166, 167, 168, 169, 170, 171, 172, 173, 174, 175, 176, 177, 178, 179, 180, 181, 182, 183, 184, 185, 186, 187, 188, 189, 190, 191, 192, 193, 194, 195, 196, 197, 198, 199, 200, 201, 202, 203, 204, 205, 206, 207, 208, 209, 210, 211, 212, 213, 214, 215, 216, 217, 218, 219, 220, 221, 222, 223, 224, 225, 226, 227, 228, 229, 230, 231, 232, 233, 234, 235, 236, 237, 238, 239, 240, 241, 242, 243, 244, 245, 246, 247, 248, 249, 250, 251, 252, 253, 254, 255, 256, 257, 258, 259, 260, 261, 262, 263, 264, 265, 266, 267, 268, 269, 270, 271, 272, 273, 274, 275, 276, 277, 278, 279, 280],
      "AcquisitionTime": ["173039.250000", "173040.500000", "173041.750000", "173043.000000", "173044.250000", "173045.500000", "173046.750000", "173048.000000", "173049.250000", "173050.500000", "173051.750000", "173053.000000", "173054.250000", "173055.500000", "173056.750000", "173058.000000", "173059.250000", "173100.500000", "173101.750000", "173103.000000", "173104.250000", "173105.500000", "173106.750000", "173108.000000", "173109.250000", "173110.500000", "173111.750000", "173113.000000", "173114.250000", "173115.500000", "173116.750000", "173118.000000", "173119.250000", "173120.500000", "173121.750000", "173123.000000", "173124.250000", "173125.500000", "173126.750000", "173128.000000", "173129.250000", "173130.500000", "173131.750000", "173133.000000", "173134.250000", "173135.500000", "173136.750000", "173138.000000", "173139.250000", "173140.500000", "173141.750000", "173143.000000", "173144.250000", "173145.500000", "173146.750000", "173148.000000", "173149.250000", "173150.500000", "173151.750000", "173153.000000", "173154.250000", "173155.500000", "173156.750000", "173158.000000", "173159.250000", "173200.500000", "173201.750000", "173203.000000", "173204.250000", "173205.500000", "173206.750000", "173208.000000", "173209.250000", "173210.500000", "173211.750000", "173213.000000", "173214.250000", "173215.500000", "173216.750000", "173218.000000", "173219.250000", "173220.500000", "173221.750000", "173223.000000", "173224.250000", "173225.500000", "173226.750000", "173228.000000", "173229.250000", "173230.500000", "173231.750000", "173233.000000", "173234.250000", "173235.500000", "173236.750000", "173238.000000", "173239.250000", "173240.500000", "173241.750000", "173243.000000", "173244.250000", "173245.500000", "173246.750000", "173248.000000", "173249.250000", "173250.500000", "173251.750000", "173253.000000", "173254.250000", "173255.500000", "173256.750000", "173258.000000", "173259.250000", "173300.500000", "173301.750000", "173303.000000", "173304.250000", "173305.500000", "173306.750000", "173308.000000", "173309.250000", "173310.500000", "173311.750000", "173313.000000", "173314.250000", "173315.500000", "173316.750000", "173318.000000", "173319.250000", "173320.500000", "173321.750000", "173323.000000", "173324.250000", "173325.500000", "173326.750000", "173328.000000", "173329.250000", "173330.500000", "173331.750000", "173333.000000", "173334.250000", "173335.500000", "173336.750000", "173338.000000", "173339.250000", "173340.500000", "173341.750000", "173343.000000", "173344.250000", "173345.500000", "173346.750000", "173348.000000", "173349.250000", "173350.500000", "173351.750000", "173353.000000", "173354.250000", "173355.500000", "173356.750000", "173358.000000", "173359.250000", "173400.500000", "173401.750000", "173403.000000", "173404.250000", "173405.500000", "173406.750000", "173408.000000", "173409.250000", "173410.500000", "173411.750000", "173413.000000", "173414.250000", "173415.500000", "173416.750000", "173418.000000", "173419.250000", "173420.500000", "173421.750000", "173423.000000", "173424.250000", "173425.500000", "173426.750000", "173428.000000", "173429.250000", "173430.500000", "173431.750000", "173433.000000", "173434.250000", "173435.500000", "173436.750000", "173438.000000", "173439.250000", "173440.500000", "173441.750000", "173443.000000", "173444.250000", "173445.500000", "173446.750000", "173448.000000", "173449.250000", "173450.500000", "173451.750000", "173453.000000", "173454.250000", "173455.500000", "173456.750000", "173458.000000", "173459.250000", "173500.500000", "173501.750000", "173503.000000", "173504.250000", "173505.500000", "173506.750000", "173508.000000", "173509.250000", "173510.500000", "173511.750000", "173513.000000", "173514.250000", "173515.500000", "173516.750000", "173518.000000", "173519.250000", "173520.500000", "173521.750000", "173523.000000", "173524.250000", "173525.500000", "173526.750000", "173528.000000", "173529.250000", "173530.500000", "173531.750000", "173533.000000", "173534.250000", "173535.500000", "173536.750000", "173538.000000", "173539.250000", "173540.500000", "173541.750000", "173543.000000", "173544.250000", "173545.500000", "173546.750000", "173548.000000", "173549.250000", "173550.500000", "173551.750000", "173553.000000", "173554.250000", "173555.500000", "173556.750000", "173558.000000", "173559.250000", "173600.500000", "173601.750000", "173603.000000", "173604.250000", "173605.500000", "173606.750000", "173608.000000", "173609.250000", "173610.500000", "173611.750000", "173613.000000", "173614.250000", "173615.500000", "173616.750000", "173618.000000", "173619.250000", "173620.500000", "173621.750000", "173623.000000", "173624.250000", "173625.500000", "173626.750000", "173628.000000"],
      "ContentTime": ["173040.282000", "173041.379000", "173042.603000", "173043.864000", "173045.105000", "173046.370000", "173047.640000", "173048.873000", "173050.117000", "173051.387000", "173052.666000", "173053.898000", "173055.120000", "173056.360000", "173057.626000", "173058.860000", "173100.106000", "173101.365000", "173102.603000", "173103.863000", "173105.093000", "173106.358000", "173107.619000", "173108.871000", "173110.137000", "173111.373000", "173112.621000", "173113.858000", "173115.122000", "173116.413000", "173117.634000", "173118.880000", "173120.106000", "173121.366000", "173122.619000", "173123.868000", "173125.105000", "173126.372000", "173127.613000", "173128.873000", "173130.115000", "173131.389000", "173132.608000", "173133.865000", "173135.119000", "173136.404000", "173137.608000", "173138.859000", "173140.114000", "173141.372000", "173142.610000", "173143.889000", "173145.121000", "173146.364000", "173147.603000", "173148.869000", "173150.142000", "173151.380000", "173152.609000", "173153.865000", "173155.161000", "173156.356000", "173157.589000", "173158.891000", "173200.115000", "173201.376000", "173202.632000", "173203.874000", "173205.124000", "173206.357000", "173207.626000", "173208.865000", "173210.129000", "173211.379000", "173212.612000", "173213.894000", "173215.124000", "173216.355000", "173217.670000", "173218.874000", "173220.139000", "173221.376000", "173222.626000", "173223.876000", "173225.125000", "173226.394000", "173227.634000", "173228.864000", "173230.124000", "173231.378000", "173232.604000", "173233.871000", "173235.103000", "173236.358000", "173237.613000", "173238.851000", "173240.111000", "173241.369000", "173242.609000", "173243.948000", "173245.144000", "173246.374000", "173247.616000", "173248.912000", "173250.130000", "173251.376000", "173252.638000", "173253.938000", "173255.195000", "173256.377000", "173257.612000", "173258.893000", "173300.119000", "173301.402000", "173302.611000", "173303.875000", "173305.142000", "173306.423000", "173307.609000", "173308.873000", "173310.131000", "173311.384000", "173312.653000", "173313.871000", "173315.131000", "173316.386000", "173317.641000", "173318.902000", "173320.118000", "173321.393000", "173322.616000", "173323.865000", "173325.169000", "173326.395000", "173327.624000", "173328.863000", "173330.135000", "173331.381000", "173332.622000", "173333.886000", "173335.127000", "173336.399000", "173337.619000", "173338.878000", "173340.137000", "173341.364000", "173342.623000", "173343.863000", "173345.119000", "173346.375000", "173347.616000", "173348.871000", "173350.130000", "173351.377000", "173352.603000", "173353.885000", "173355.122000", "173356.363000", "173357.619000", "173358.873000", "173400.118000", "173401.385000", "173402.637000", "173403.881000", "173405.144000", "173406.382000", "173407.653000", "173408.854000", "173410.120000", "173411.373000", "173412.659000", "173413.874000", "173415.130000", "173416.380000", "173417.616000", "173418.875000", "173420.118000", "173421.379000", "173422.623000", "173423.885000", "173425.167000", "173426.406000", "173427.632000", "173428.868000", "173430.152000", "173431.376000", "173432.632000", "173433.904000", "173435.129000", "173436.440000", "173437.630000", "173438.884000", "173440.131000", "173441.384000", "173442.621000", "173443.871000", "173445.133000", "173446.365000", "173447.625000", "173448.859000", "173450.125000", "173451.359000", "173452.649000", "173453.876000", "173455.152000", "173456.378000", "173457.609000", "173458.851000", "173500.132000", "173501.380000", "173502.626000", "173503.875000", "173505.112000", "173506.364000", "173507.664000", "173508.902000", "173510.130000", "173511.383000", "173512.617000", "173513.881000", "173515.113000", "173516.361000", "173517.634000", "173518.871000", "173520.116000", "173521.376000", "173522.630000", "173523.875000", "173525.122000", "173526.400000", "173527.626000", "173528.895000", "173530.150000", "173531.368000", "173532.601000", "173533.883000", "173535.133000", "173536.385000", "173537.633000", "173538.874000", "173540.116000", "173541.417000", "173542.636000", "173543.892000", "173545.136000", "173546.403000", "173547.663000", "173548.912000", "173550.123000", "173551.382000", "173552.629000", "173553.897000", "173555.108000", "173556.377000", "173557.610000", "173558.870000", "173600.126000", "173601.380000", "173602.620000", "173603.896000", "173605.131000", "173606.375000", "173607.644000", "173608.874000", "173610.114000", "173611.375000", "173612.625000", "173613.880000", "173615.120000", "173616.417000", "173617.627000", "173618.886000", "173620.115000", "173621.360000", "173622.611000", "173623.876000", "173625.133000", "173626.362000", "173627.634000", "173628.937000"],
      "InstanceCreationTime": ["173040.282000", "173041.379000", "173042.603000", "173043.864000", "173045.105000", "173046.370000", "173047.640000", "173048.873000", "173050.117000", "173051.387000", "173052.666000", "173053.898000", "173055.120000", "173056.360000", "173057.626000", "173058.860000", "173100.106000", "173101.365000", "173102.603000", "173103.863000", "173105.093000", "173106.358000", "173107.619000", "173108.871000", "173110.137000", "173111.373000", "173112.621000", "173113.858000", "173115.122000", "173116.413000", "173117.634000", "173118.880000", "173120.106000", "173121.366000", "173122.619000", "173123.868000", "173125.105000", "173126.372000", "173127.613000", "173128.873000", "173130.115000", "173131.389000", "173132.608000", "173133.865000", "173135.119000", "173136.404000", "173137.608000", "173138.859000", "173140.114000", "173141.372000", "173142.610000", "173143.889000", "173145.121000", "173146.364000", "173147.603000", "173148.869000", "173150.142000", "173151.380000", "173152.609000", "173153.865000", "173155.161000", "173156.356000", "173157.589000", "173158.891000", "173200.115000", "173201.376000", "173202.632000", "173203.874000", "173205.124000", "173206.357000", "173207.626000", "173208.865000", "173210.129000", "173211.379000", "173212.612000", "173213.894000", "173215.124000", "173216.355000", "173217.670000", "173218.874000", "173220.139000", "173221.376000", "173222.626000", "173223.876000", "173225.125000", "173226.394000", "173227.634000", "173228.864000", "173230.124000", "173231.378000", "173232.604000", "173233.871000", "173235.103000", "173236.358000", "173237.613000", "173238.851000", "173240.111000", "173241.369000", "173242.609000", "173243.948000", "173245.144000", "173246.374000", "173247.616000", "173248.912000", "173250.130000", "173251.376000", "173252.638000", "173253.938000", "173255.195000", "173256.377000", "173257.612000", "173258.893000", "173300.119000", "173301.402000", "173302.611000", "173303.875000", "173305.142000", "173306.423000", "173307.609000", "173308.873000", "173310.131000", "173311.384000", "173312.653000", "173313.871000", "173315.131000", "173316.386000", "173317.641000", "173318.902000", "173320.118000", "173321.393000", "173322.616000", "173323.865000", "173325.169000", "173326.395000", "173327.624000", "173328.863000", "173330.135000", "173331.381000", "173332.622000", "173333.886000", "173335.127000", "173336.399000", "173337.619000", "173338.878000", "173340.137000", "173341.364000", "173342.623000", "173343.863000", "173345.119000", "173346.375000", "173347.616000", "173348.871000", "173350.130000", "173351.377000", "173352.603000", "173353.885000", "173355.122000", "173356.363000", "173357.619000", "173358.873000", "173400.118000", "173401.385000", "173402.637000", "173403.881000", "173405.144000", "173406.382000", "173407.653000", "173408.854000", "173410.120000", "173411.373000", "173412.659000", "173413.874000", "173415.130000", "173416.380000", "173417.616000", "173418.875000", "173420.118000", "173421.379000", "173422.623000", "173423.885000", "173425.167000", "173426.406000", "173427.632000", "173428.868000", "173430.152000", "173431.376000", "173432.632000", "173433.904000", "173435.129000", "173436.440000", "173437.630000", "173438.884000", "173440.131000", "173441.384000", "173442.621000", "173443.871000", "173445.133000", "173446.365000", "173447.625000", "173448.859000", "173450.125000", "173451.359000", "173452.649000", "173453.876000", "173455.152000", "173456.378000", "173457.609000", "173458.851000", "173500.132000", "173501.380000", "173502.626000", "173503.875000", "173505.112000", "173506.364000", "173507.664000", "173508.902000", "173510.130000", "173511.383000", "173512.617000", "173513.881000", "173515.113000", "173516.361000", "173517.634000", "173518.871000", "173520.116000", "173521.376000", "173522.630000", "173523.875000", "173525.122000", "173526.400000", "173527.626000", "173528.895000", "173530.150000", "173531.368000", "173532.601000", "173533.883000", "173535.133000", "173536.385000", "173537.633000", "173538.874000", "173540.116000", "173541.417000", "173542.636000", "173543.892000", "173545.136000", "173546.403000", "173547.663000", "173548.912000", "173550.123000", "173551.382000", "173552.629000", "173553.897000", "173555.108000", "173556.377000", "173557.610000", "173558.870000", "173600.126000", "173601.380000", "173602.620000", "173603.896000", "173605.131000", "173606.375000", "173607.644000", "173608.874000", "173610.114000", "173611.375000", "173612.625000", "173613.880000", "173615.120000", "173616.417000", "173617.627000", "173618.886000", "173620.115000", "173621.360000", "173622.611000", "173623.876000", "173625.133000", "173626.362000", "173627.634000", "173628.937000"],
      "InstanceNumber": [1, 2, 3, 4, 5, 6, 7, 8, 9, 10, 11, 12, 13, 14, 15, 16, 17, 18, 19, 20, 21, 22, 23, 24, 25, 26, 27, 28, 29, 30, 31, 32, 33, 34, 35, 36, 37, 38, 39, 40, 41, 42, 43, 44, 45, 46, 47, 48, 49, 50, 51, 52, 53, 54, 55, 56, 57, 58, 59, 60, 61, 62, 63, 64, 65, 66, 67, 68, 69, 70, 71, 72, 73, 74, 75, 76, 77, 78, 79, 80, 81, 82, 83, 84, 85, 86, 87, 88, 89, 90, 91, 92, 93, 94, 95, 96, 97, 98, 99, 100, 101, 102, 103, 104, 105, 106, 107, 108, 109, 110, 111, 112, 113, 114, 115, 116, 117, 118, 119, 120, 121, 122, 123, 124, 125, 126, 127, 128, 129, 130, 131, 132, 133, 134, 135, 136, 137, 138, 139, 140, 141, 142, 143, 144, 145, 146, 147, 148, 149, 150, 151, 152, 153, 154, 155, 156, 157, 158, 159, 160, 161, 162, 163, 164, 165, 166, 167, 168, 169, 170, 171, 172, 173, 174, 175, 176, 177, 178, 179, 180, 181, 182, 183, 184, 185, 186, 187, 188, 189, 190, 191, 192, 193, 194, 195, 196, 197, 198, 199, 200, 201, 202, 203, 204, 205, 206, 207, 208, 209, 210, 211, 212, 213, 214, 215, 216, 217, 218, 219, 220, 221, 222, 223, 224, 225, 226, 227, 228, 229, 230, 231, 232, 233, 234, 235, 236, 237, 238, 239, 240, 241, 242, 243, 244, 245, 246, 247, 248, 249, 250, 251, 252, 253, 254, 255, 256, 257, 258, 259, 260, 261, 262, 263, 264, 265, 266, 267, 268, 269, 270, 271, 272, 273, 274, 275, 276, 277, 278, 279, 280],
      "LargestImagePixelValue": [1064, 1140, 1184, 1341, 1050, 941, 1182, 855, 860, 1063, 1183, 872, 837, 875, 1207, 871, 913, 1202, 1026, 776, 1112, 1058, 964, 854, 777, 857, 1166, 1003, 789, 1059, 1279, 815, 876, 1315, 1098, 771, 1051, 1060, 1099, 973, 830, 1009, 918, 832, 1204, 908, 887, 1244, 793, 873, 1279, 823, 809, 1154, 825, 827, 1294, 896, 870, 925, 855, 905, 931, 852, 1207, 881, 1235, 1320, 802, 807, 1383, 801, 901, 1409, 891, 892, 1451, 909, 803, 1108, 797, 846, 950, 870, 1167, 892, 1094, 845, 924, 784, 1053, 1210, 813, 831, 1217, 781, 875, 1339, 834, 948, 1240, 798, 1120, 792, 829, 1244, 984, 798, 943, 985, 861, 957, 1112, 797, 1133, 1054, 944, 975, 872, 1128, 822, 1023, 1051, 794, 845, 927, 876, 909, 1157, 1263, 779, 809, 1010, 815, 777, 865, 996, 795, 1036, 783, 1032, 978, 898, 776, 1010, 792, 1248, 1136, 778, 849, 907, 894, 785, 981, 1112, 849, 887, 1063, 827, 941, 1267, 1034, 872, 1230, 846, 908, 1296, 798, 840, 1285, 808, 909, 1230, 810, 831, 990, 874, 826, 1189, 1008, 814, 805, 1324, 866, 846, 1383, 878, 797, 1326, 1388, 762, 846, 1340, 920, 808, 1194, 967, 787, 834, 1113, 1124, 850, 1056, 1130, 810, 824, 1134, 1133, 870, 765, 960, 1173, 774, 844, 1044, 1106, 761, 897, 1309, 1010, 801, 893, 1305, 792, 862, 1356, 781, 806, 1212, 854, 846, 972, 756, 844, 1277, 778, 827, 1265, 776, 849, 1356, 893, 808, 1026, 770, 1249, 1195, 762, 838, 1157, 799, 916, 1221, 765, 1216, 1280, 779, 826, 1334, 789, 989, 955, 785, 965, 1405, 1136, 844, 820, 986, 782, 864, 1329, 787, 913, 1062, 833, 882, 978, 1123, 863],
      "WindowCenter": [382.0, 380.0, 379.0, 380.0, 378.0, 376.0, 378.0, 375.0, 375.0, 376.0, 377.0, 374.0, 374.0, 375.0, 378.0, 376.0, 377.0, 379.0, 378.0, 375.0, 379.0, 378.0, 379.0, 378.0, 377.0, 378.0, 380.0, 378.0, 376.0, 378.0, 380.0, 376.0, 377.0, 381.0, 379.0, 376.0, 379.0, 379.0, 379.0, 378.0, 376.0, 378.0, 377.0, 378.0, 380.0, 377.0, 377.0, 379.0, 375.0, 377.0, 380.0, 377.0, 376.0, 380.0, 376.0, 376.0, 381.0, 377.0, 377.0, 378.0, 377.0, 377.0, 378.0, 377.0, 380.0, 378.0, 380.0, 380.0, 375.0, 376.0, 381.0, 376.0, 377.0, 381.0, 377.0, 377.0, 381.0, 376.0, 375.0, 377.0, 375.0, 376.0, 378.0, 377.0, 380.0, 377.0, 378.0, 375.0, 377.0, 376.0, 379.0, 379.0, 376.0, 376.0, 379.0, 375.0, 377.0, 381.0, 376.0, 377.0, 379.0, 375.0, 379.0, 376.0, 376.0, 379.0, 377.0, 376.0, 377.0, 378.0, 377.0, 378.0, 379.0, 376.0, 380.0, 378.0, 377.0, 377.0, 376.0, 378.0, 376.0, 378.0, 378.0, 376.0, 376.0, 377.0, 377.0, 377.0, 379.0, 379.0, 376.0, 375.0, 378.0, 376.0, 376.0, 377.0, 379.0, 376.0, 378.0, 376.0, 378.0, 377.0, 377.0, 376.0, 378.0, 376.0, 379.0, 378.0, 375.0, 375.0, 376.0, 376.0, 375.0, 377.0, 378.0, 376.0, 377.0, 379.0, 377.0, 379.0, 381.0, 379.0, 377.0, 380.0, 377.0, 377.0, 381.0, 376.0, 377.0, 380.0, 376.0, 378.0, 381.0, 377.0, 377.0, 378.0, 377.0, 377.0, 380.0, 378.0, 377.0, 377.0, 381.0, 378.0, 378.0, 382.0, 377.0, 377.0, 381.0, 381.0, 375.0, 376.0, 380.0, 377.0, 375.0, 379.0, 377.0, 376.0, 377.0, 379.0, 379.0, 376.0, 378.0, 378.0, 375.0, 376.0, 378.0, 378.0, 376.0, 374.0, 376.0, 378.0, 374.0, 375.0, 378.0, 378.0, 375.0, 376.0, 379.0, 377.0, 375.0, 377.0, 380.0, 376.0, 375.0, 379.0, 374.0, 375.0, 378.0, 375.0, 375.0, 376.0, 374.0, 375.0, 379.0, 375.0, 375.0, 379.0, 376.0, 377.0, 381.0, 377.0, 376.0, 377.0, 376.0, 380.0, 379.0, 375.0, 376.0, 380.0, 376.0, 378.0, 380.0, 376.0, 380.0, 380.0, 376.0, 376.0, 380.0, 376.0, 378.0, 378.0, 376.0, 377.0, 381.0, 378.0, 375.0, 375.0, 377.0, 376.0, 376.0, 379.0, 375.0, 376.0, 378.0, 376.0, 377.0, 377.0, 378.0, 376.0],
      "WindowWidth": [812.0, 809.0, 807.0, 807.0, 804.0, 802.0, 804.0, 800.0, 800.0, 801.0, 803.0, 798.0, 799.0, 800.0, 805.0, 803.0, 804.0, 807.0, 806.0, 801.0, 806.0, 806.0, 806.0, 805.0, 804.0, 807.0, 809.0, 805.0, 802.0, 806.0, 808.0, 803.0, 804.0, 809.0, 807.0, 803.0, 807.0, 807.0, 806.0, 805.0, 803.0, 804.0, 804.0, 805.0, 809.0, 804.0, 804.0, 807.0, 801.0, 804.0, 808.0, 804.0, 803.0, 808.0, 803.0, 803.0, 809.0, 804.0, 803.0, 805.0, 804.0, 804.0, 805.0, 805.0, 809.0, 805.0, 809.0, 808.0, 801.0, 802.0, 809.0, 803.0, 805.0, 809.0, 804.0, 804.0, 810.0, 802.0, 801.0, 804.0, 801.0, 802.0, 805.0, 805.0, 808.0, 804.0, 805.0, 801.0, 803.0, 803.0, 806.0, 807.0, 803.0, 802.0, 806.0, 801.0, 803.0, 809.0, 802.0, 804.0, 806.0, 801.0, 806.0, 803.0, 802.0, 807.0, 804.0, 801.0, 803.0, 805.0, 804.0, 805.0, 807.0, 803.0, 808.0, 805.0, 803.0, 804.0, 802.0, 805.0, 802.0, 805.0, 804.0, 801.0, 802.0, 804.0, 805.0, 804.0, 806.0, 806.0, 801.0, 801.0, 804.0, 803.0, 802.0, 803.0, 806.0, 803.0, 806.0, 803.0, 805.0, 803.0, 803.0, 801.0, 804.0, 802.0, 807.0, 805.0, 800.0, 801.0, 801.0, 803.0, 800.0, 803.0, 805.0, 801.0, 804.0, 807.0, 804.0, 807.0, 810.0, 806.0, 804.0, 808.0, 803.0, 804.0, 809.0, 803.0, 803.0, 808.0, 802.0, 805.0, 810.0, 804.0, 804.0, 804.0, 804.0, 804.0, 807.0, 805.0, 804.0, 804.0, 810.0, 805.0, 805.0, 812.0, 804.0, 804.0, 809.0, 809.0, 801.0, 802.0, 807.0, 803.0, 801.0, 806.0, 804.0, 802.0, 804.0, 807.0, 806.0, 802.0, 805.0, 805.0, 801.0, 802.0, 805.0, 805.0, 802.0, 799.0, 802.0, 804.0, 799.0, 801.0, 804.0, 805.0, 800.0, 802.0, 806.0, 803.0, 800.0, 803.0, 808.0, 801.0, 801.0, 806.0, 799.0, 800.0, 804.0, 801.0, 800.0, 801.0, 799.0, 801.0, 805.0, 800.0, 801.0, 806.0, 801.0, 803.0, 809.0, 803.0, 802.0, 804.0, 802.0, 807.0, 806.0, 801.0, 803.0, 807.0, 803.0, 805.0, 808.0, 802.0, 808.0, 808.0, 802.0, 803.0, 808.0, 802.0, 805.0, 805.0, 802.0, 804.0, 809.0, 804.0, 801.0, 801.0, 803.0, 801.0, 802.0, 806.0, 800.0, 802.0, 805.0, 802.0, 803.0, 803.0, 805.0, 802.0]
    },
    "slices": {}
  }
}