{
  "AcquisitionMatrixPE": 96,
  "AcquisitionNumber": 1,
  "AcquisitionTime": "17:43:36.302500",
  "BandwidthPerPixelPhaseEncode": 18.939,
  "BaseResolution": 96,
  "BodyPartExamined": "BRAIN",
  "ConsistencyInfo": "N4_VE11C_LATEST_20160120",
  "ConversionSoftware": "dcm2niix",
  "ConversionSoftwareVersion": "v1.0.20170923 (OpenJPEG build) GCC6.3.0",
  "DerivedVendorReportedEchoSpacing": 0.000550011,
  "DeviceSerialNumber": "66112",
  "DwellTime": 2.3e-06,
  "EchoTime": 0.033,
  "EchoTrainLength": 96,
  "EffectiveEchoSpacing": 0.000550011,
  "FlipAngle": 64,
  "ImageType": [
    "ORIGINAL",
    "PRIMARY",
    "FMRI",
    "NONE",
    "ND",
    "NORM",
    "MOSAIC"
],
  "InstitutionAddress": "Maynard_3_Hanover_NH_US_03755",
  "InstitutionName": "Dartmouth_College_-_PBS",
  "MagneticFieldStrength": 3,
  "Manufacturer": "Siemens",
  "ManufacturersModelName": "Prisma",
  "Modality": "MR",
  "MultibandAccelerationFactor": 4,
  "PartialFourier": 1,
  "PercentPhaseFOV": 100,
  "PhaseEncodingDirection": "j-",
  "PhaseEncodingSteps": 96,
  "PhaseResolution": 1,
  "ProcedureStepDescription": "Gobbini_Matteo_1017_famface-angles",
  "ProtocolName": "func_run-05_task-fam1back",
  "PulseSequenceDetails": "%SiemensSeq%_ep2d_bold",
  "ReceiveCoilActiveElements": "HEA;HEP",
  "ReceiveCoilName": "Head_32",
  "ReconMatrixPE": 96,
  "RepetitionTime": 1.25,
  "ScanOptions": "FS",
  "ScanningSequence": "EP",
  "SequenceName": "_epfid2d1_96",
  "SequenceVariant": "SK",
  "SeriesDescription": "func_run-05_task-fam1back",
  "SliceTiming": [0.8775, 0, 0.615, 0.0875, 0.7025, 0.175, 0.79, 0.35, 0.965, 0.44, 1.0525, 0.5275, 1.1425, 0.2625, 0.8775, 0, 0.615, 0.0875, 0.7025, 0.175, 0.79, 0.35, 0.965, 0.44, 1.0525, 0.5275, 1.1425, 0.2625, 0.8775, 0, 0.615, 0.0875, 0.7025, 0.175, 0.79, 0.35, 0.965, 0.44, 1.0525, 0.5275, 1.1425, 0.2625, 0.8775, 0, 0.615, 0.0875, 0.7025, 0.175, 0.79, 0.35, 0.965, 0.44, 1.0525, 0.5275, 1.1425, 0.2625],
  "SoftwareVersions": "syngo_MR_E11",
  "StationName": "AWP66112",
  "TaskName": "fam1back",
  "TotalReadoutTime": 0.0522511,
  "dcmmeta_affine": [
    [-2.4963953495025635, -0.10681237280368805, 0.0812472403049469, 129.85928344726562],
    [-0.10800638049840927, 2.497415781021118, -0.03534572571516037, -94.96044921875],
    [0.07965310662984848, 0.03880485147237778, 2.498429298400879, -97.97564697265625],
    [0.0, 0.0, 0.0, 1.0]
],
  "dcmmeta_reorient_transform": [
    [0.0, -1.0, 0.0, 95.0],
    [1.0, 0.0, 0.0, 0.0],
    [0.0, 0.0, 1.0, 0.0],
    [0.0, 0.0, 0.0, 1.0]
],
  "dcmmeta_shape": [96, 96, 56, 280],
  "dcmmeta_slice_dim": 2,
  "dcmmeta_version": 0.6,
  "global": {
    "const": {
      "AccessionNumber": "A000288",
      "AcquisitionMatrix": [96, 0, 0, 96],
      "AngioFlag": "N",
      "BitsAllocated": 16,
      "BitsStored": 12,
      "BodyPartExamined": "BRAIN",
      "Columns": 768,
      "EchoNumbers": 1,
      "EchoTime": 33.0,
      "EchoTrainLength": 96,
      "FlipAngle": 64.0,
      "HighBit": 11,
      "ImageOrientationPatient": [0.99855816080821, 0.0432025534305, 0.03186124386161, -0.0427249486984, 0.99896628978956, -0.0155219400461],
      "ImagePositionPatient": [-922.61200387232, -1017.7158751205, -108.01419998561],
      "ImageType": [
        "ORIGINAL",
        "PRIMARY",
        "FMRI",
        "NONE",
        "ND",
        "NORM",
        "MOSAIC"
],
      "ImagedNucleus": "1H",
      "ImagingFrequency": 123.252407,
      "InPlanePhaseEncodingDirection": "COL",
      "MRAcquisitionType": "2D",
      "MagneticFieldStrength": 3.0,
      "Manufacturer": "SIEMENS",
      "ManufacturerModelName": "Prisma",
      "Modality": "MR",
      "NumberOfAverages": 1.0,
      "NumberOfPhaseEncodingSteps": 96,
      "PercentPhaseFieldOfView": 100.0,
      "PercentSampling": 100.0,
      "PerformedProcedureStepStartTime": "165832.023000",
      "PhotometricInterpretation": "MONOCHROME2",
      "PixelBandwidth": 2265.0,
      "PixelRepresentation": 0,
      "PixelSpacing": [2.5, 2.5],
      "PositionReferenceIndicator": "",
      "ProtocolName": "func_run-05_task-fam1back",
      "RepetitionTime": 1250.0,
      "Rows": 768,
      "SAR": 0.0521049680728,
      "SamplesPerPixel": 1,
      "ScanOptions": "FS",
      "ScanningSequence": "EP",
      "SequenceName": "*epfid2d1_96",
      "SequenceVariant": "SK",
      "SeriesDescription": "func_run-05_task-fam1back",
      "SeriesNumber": 39,
      "SeriesTime": "174338.039000",
      "SliceLocation": -92.351232499625,
      "SliceThickness": 2.5,
      "SmallestImagePixelValue": 0,
      "SoftwareVersions": "syngo MR E11",
      "SpacingBetweenSlices": 2.4999999647722,
      "SpecificCharacterSet": "ISO_IR 100",
      "StudyID": "1",
      "StudyTime": "165831.981000",
      "TransmitCoilName": "Body",
      "VariableFlipAngleFlag": "N",
      "WindowCenterWidthExplanation": "Algo1",
      "dBdt": 0.0},
    "slices": {}
  },
  "time": {
    "samples": {
      "AcquisitionNumber": [1, 2, 3, 4, 5, 6, 7, 8, 9, 10, 11, 12, 13, 14, 15, 16, 17, 18, 19, 20, 21, 22, 23, 24, 25, 26, 27, 28, 29, 30, 31, 32, 33, 34, 35, 36, 37, 38, 39, 40, 41, 42, 43, 44, 45, 46, 47, 48, 49, 50, 51, 52, 53, 54, 55, 56, 57, 58, 59, 60, 61, 62, 63, 64, 65, 66, 67, 68, 69, 70, 71, 72, 73, 74, 75, 76, 77, 78, 79, 80, 81, 82, 83, 84, 85, 86, 87, 88, 89, 90, 91, 92, 93, 94, 95, 96, 97, 98, 99, 100, 101, 102, 103, 104, 105, 106, 107, 108, 109, 110, 111, 112, 113, 114, 115, 116, 117, 118, 119, 120, 121, 122, 123, 124, 125, 126, 127, 128, 129, 130, 131, 132, 133, 134, 135, 136, 137, 138, 139, 140, 141, 142, 143, 144, 145, 146, 147, 148, 149, 150, 151, 152, 153, 154, 155, 156, 157, 158, 159, 160, 161, 162, 163, 164, 165, 166, 167, 168, 169, 170, 171, 172, 173, 174, 175, 176, 177, 178, 179, 180, 181, 182, 183, 184, 185, 186, 187, 188, 189, 190, 191, 192, 193, 194, 195, 196, 197, 198, 199, 200, 201, 202, 203, 204, 205, 206, 207, 208, 209, 210, 211, 212, 213, 214, 215, 216, 217, 218, 219, 220, 221, 222, 223, 224, 225, 226, 227, 228, 229, 230, 231, 232, 233, 234, 235, 236, 237, 238, 239, 240, 241, 242, 243, 244, 245, 246, 247, 248, 249, 250, 251, 252, 253, 254, 255, 256, 257, 258, 259, 260, 261, 262, 263, 264, 265, 266, 267, 268, 269, 270, 271, 272, 273, 274, 275, 276, 277, 278, 279, 280],
      "AcquisitionTime": ["174336.302500", "174337.552500", "174338.802500", "174340.052500", "174341.302500", "174342.552500", "174343.802500", "174345.052500", "174346.302500", "174347.552500", "174348.802500", "174350.052500", "174351.302500", "174352.552500", "174353.802500", "174355.052500", "174356.302500", "174357.552500", "174358.802500", "174400.052500", "174401.302500", "174402.552500", "174403.802500", "174405.052500", "174406.302500", "174407.552500", "174408.802500", "174410.052500", "174411.302500", "174412.552500", "174413.802500", "174415.052500", "174416.302500", "174417.552500", "174418.802500", "174420.052500", "174421.302500", "174422.552500", "174423.802500", "174425.052500", "174426.302500", "174427.552500", "174428.802500", "174430.052500", "174431.302500", "174432.552500", "174433.802500", "174435.052500", "174436.302500", "174437.552500", "174438.802500", "174440.052500", "174441.302500", "174442.552500", "174443.802500", "174445.052500", "174446.302500", "174447.552500", "174448.802500", "174450.052500", "174451.302500", "174452.552500", "174453.802500", "174455.052500", "174456.302500", "174457.552500", "174458.802500", "174500.052500", "174501.302500", "174502.552500", "174503.802500", "174505.052500", "174506.302500", "174507.552500", "174508.802500", "174510.052500", "174511.302500", "174512.552500", "174513.802500", "174515.052500", "174516.302500", "174517.552500", "174518.802500", "174520.052500", "174521.302500", "174522.552500", "174523.802500", "174525.052500", "174526.302500", "174527.552500", "174528.802500", "174530.052500", "174531.302500", "174532.552500", "174533.802500", "174535.052500", "174536.302500", "174537.552500", "174538.802500", "174540.052500", "174541.302500", "174542.552500", "174543.802500", "174545.052500", "174546.302500", "174547.552500", "174548.802500", "174550.052500", "174551.302500", "174552.552500", "174553.802500", "174555.052500", "174556.302500", "174557.552500", "174558.802500", "174600.052500", "174601.302500", "174602.552500", "174603.802500", "174605.052500", "174606.302500", "174607.552500", "174608.802500", "174610.052500", "174611.302500", "174612.552500", "174613.802500", "174615.052500", "174616.302500", "174617.552500", "174618.802500", "174620.052500", "174621.302500", "174622.552500", "174623.802500", "174625.052500", "174626.302500", "174627.552500", "174628.802500", "174630.052500", "174631.302500", "174632.552500", "174633.802500", "174635.052500", "174636.302500", "174637.552500", "174638.802500", "174640.052500", "174641.302500", "174642.552500", "174643.802500", "174645.052500", "174646.302500", "174647.552500", "174648.802500", "174650.052500", "174651.302500", "174652.552500", "174653.802500", "174655.052500", "174656.302500", "174657.552500", "174658.802500", "174700.052500", "174701.302500", "174702.552500", "174703.802500", "174705.052500", "174706.302500", "174707.552500", "174708.802500", "174710.052500", "174711.302500", "174712.552500", "174713.802500", "174715.052500", "174716.302500", "174717.552500", "174718.802500", "174720.052500", "174721.302500", "174722.552500", "174723.802500", "174725.052500", "174726.302500", "174727.552500", "174728.802500", "174730.052500", "174731.302500", "174732.552500", "174733.802500", "174735.052500", "174736.302500", "174737.552500", "174738.802500", "174740.052500", "174741.302500", "174742.552500", "174743.802500", "174745.052500", "174746.302500", "174747.552500", "174748.802500", "174750.052500", "174751.302500", "174752.552500", "174753.802500", "174755.052500", "174756.302500", "174757.552500", "174758.802500", "174800.052500", "174801.302500", "174802.552500", "174803.802500", "174805.052500", "174806.302500", "174807.552500", "174808.802500", "174810.052500", "174811.302500", "174812.552500", "174813.802500", "174815.052500", "174816.302500", "174817.552500", "174818.802500", "174820.052500", "174821.302500", "174822.552500", "174823.802500", "174825.052500", "174826.302500", "174827.552500", "174828.802500", "174830.052500", "174831.302500", "174832.552500", "174833.802500", "174835.052500", "174836.302500", "174837.552500", "174838.802500", "174840.052500", "174841.302500", "174842.552500", "174843.802500", "174845.052500", "174846.302500", "174847.552500", "174848.802500", "174850.052500", "174851.302500", "174852.552500", "174853.802500", "174855.052500", "174856.302500", "174857.552500", "174858.802500", "174900.052500", "174901.302500", "174902.552500", "174903.802500", "174905.052500", "174906.302500", "174907.552500", "174908.802500", "174910.052500", "174911.302500", "174912.552500", "174913.802500", "174915.052500", "174916.302500", "174917.552500", "174918.802500", "174920.052500", "174921.302500", "174922.552500", "174923.802500", "174925.052500"],
      "ContentTime": ["174338.044000", "174339.069000", "174340.320000", "174341.572000", "174342.827000", "174344.079000", "174345.317000", "174346.560000", "174347.805000", "174349.077000", "174350.315000", "174351.539000", "174352.818000", "174354.069000", "174355.311000", "174356.557000", "174357.846000", "174359.087000", "174400.307000", "174401.592000", "174402.807000", "174404.076000", "174405.324000", "174406.568000", "174407.823000", "174409.086000", "174410.321000", "174411.537000", "174412.824000", "174414.047000", "174415.346000", "174416.543000", "174417.806000", "174419.107000", "174420.312000", "174421.545000", "174422.805000", "174424.062000", "174425.305000", "174426.571000", "174427.815000", "174429.098000", "174430.306000", "174431.582000", "174432.872000", "174434.069000", "174435.306000", "174436.560000", "174437.841000", "174439.057000", "174440.326000", "174441.587000", "174442.803000", "174444.059000", "174445.312000", "174446.580000", "174447.862000", "174449.062000", "174450.310000", "174451.553000", "174452.813000", "174454.063000", "174455.308000", "174456.574000", "174457.829000", "174459.104000", "174500.319000", "174501.562000", "174502.800000", "174504.068000", "174505.323000", "174506.565000", "174507.828000", "174509.067000", "174510.317000", "174511.559000", "174512.823000", "174514.059000", "174515.341000", "174516.555000", "174517.809000", "174519.054000", "174520.313000", "174521.558000", "174522.809000", "174524.066000", "174525.296000", "174526.576000", "174527.816000", "174529.075000", "174530.298000", "174531.582000", "174532.833000", "174534.063000", "174535.297000", "174536.554000", "174537.791000", "174539.071000", "174540.310000", "174541.559000", "174542.838000", "174544.068000", "174545.325000", "174546.566000", "174547.811000", "174549.067000", "174550.322000", "174551.592000", "174552.829000", "174554.080000", "174555.323000", "174556.569000", "174557.824000", "174559.054000", "174600.310000", "174601.582000", "174602.823000", "174604.060000", "174605.316000", "174606.585000", "174607.830000", "174609.078000", "174610.319000", "174611.550000", "174612.845000", "174614.070000", "174615.326000", "174616.570000", "174617.874000", "174619.052000", "174620.305000", "174621.562000", "174622.829000", "174624.079000", "174625.305000", "174626.583000", "174627.824000", "174629.085000", "174630.331000", "174631.560000", "174632.832000", "174634.080000", "174635.306000", "174636.583000", "174637.828000", "174639.083000", "174640.328000", "174641.557000", "174642.816000", "174644.071000", "174645.377000", "174646.570000", "174647.811000", "174649.086000", "174650.310000", "174651.563000", "174652.845000", "174654.080000", "174655.311000", "174656.549000", "174657.824000", "174659.063000", "174700.327000", "174701.561000", "174702.813000", "174704.059000", "174705.295000", "174706.560000", "174707.830000", "174709.055000", "174710.316000", "174711.576000", "174712.827000", "174714.064000", "174715.357000", "174716.556000", "174717.802000", "174719.064000", "174720.330000", "174721.569000", "174722.842000", "174724.086000", "174725.322000", "174726.566000", "174727.818000", "174729.081000", "174730.328000", "174731.569000", "174732.824000", "174734.064000", "174735.314000", "174736.596000", "174737.830000", "174739.062000", "174740.330000", "174741.564000", "174742.833000", "174744.079000", "174745.310000", "174746.566000", "174747.811000", "174749.067000", "174750.313000", "174751.585000", "174752.815000", "174754.087000", "174755.296000", "174756.550000", "174757.833000", "174759.079000", "174800.355000", "174801.593000", "174802.823000", "174804.076000", "174805.328000", "174806.546000", "174807.821000", "174809.080000", "174810.325000", "174811.569000", "174812.821000", "174814.064000", "174815.311000", "174816.563000", "174817.814000", "174819.051000", "174820.319000", "174821.591000", "174822.814000", "174824.078000", "174825.313000", "174826.580000", "174827.819000", "174829.090000", "174830.360000", "174831.581000", "174832.827000", "174834.124000", "174835.307000", "174836.561000", "174837.814000", "174839.078000", "174840.335000", "174841.574000", "174842.796000", "174844.104000", "174845.315000", "174846.593000", "174847.791000", "174849.087000", "174850.346000", "174851.589000", "174852.818000", "174854.136000", "174855.353000", "174856.577000", "174857.800000", "174859.074000", "174900.371000", "174901.578000", "174902.811000", "174904.139000", "174905.321000", "174906.566000", "174907.815000", "174909.062000", "174910.321000", "174911.550000", "174912.817000", "174914.067000", "174915.321000", "174916.569000", "174917.812000", "174919.082000", "174920.323000", "174921.568000", "174922.820000", "174924.083000", "174925.330000", "174926.622000"],
      "InstanceCreationTime": ["174338.044000", "174339.069000", "174340.320000", "174341.572000", "174342.827000", "174344.079000", "174345.317000", "174346.560000", "174347.805000", "174349.077000", "174350.315000", "174351.539000", "174352.818000", "174354.069000", "174355.311000", "174356.557000", "174357.846000", "174359.087000", "174400.307000", "174401.592000", "174402.807000", "174404.076000", "174405.324000", "174406.568000", "174407.823000", "174409.086000", "174410.321000", "174411.537000", "174412.824000", "174414.047000", "174415.346000", "174416.543000", "174417.806000", "174419.107000", "174420.312000", "174421.545000", "174422.805000", "174424.062000", "174425.305000", "174426.571000", "174427.815000", "174429.098000", "174430.306000", "174431.582000", "174432.872000", "174434.069000", "174435.306000", "174436.560000", "174437.841000", "174439.057000", "174440.326000", "174441.587000", "174442.803000", "174444.059000", "174445.312000", "174446.580000", "174447.862000", "174449.062000", "174450.310000", "174451.553000", "174452.813000", "174454.063000", "174455.308000", "174456.574000", "174457.829000", "174459.104000", "174500.319000", "174501.562000", "174502.800000", "174504.068000", "174505.323000", "174506.565000", "174507.828000", "174509.067000", "174510.317000", "174511.559000", "174512.823000", "174514.059000", "174515.341000", "174516.555000", "174517.809000", "174519.054000", "174520.313000", "174521.558000", "174522.809000", "174524.066000", "174525.296000", "174526.576000", "174527.816000", "174529.075000", "174530.298000", "174531.582000", "174532.833000", "174534.063000", "174535.297000", "174536.554000", "174537.791000", "174539.071000", "174540.310000", "174541.559000", "174542.838000", "174544.068000", "174545.325000", "174546.566000", "174547.811000", "174549.067000", "174550.322000", "174551.592000", "174552.829000", "174554.080000", "174555.323000", "174556.569000", "174557.824000", "174559.054000", "174600.310000", "174601.582000", "174602.823000", "174604.060000", "174605.316000", "174606.585000", "174607.830000", "174609.078000", "174610.319000", "174611.550000", "174612.845000", "174614.070000", "174615.326000", "174616.570000", "174617.874000", "174619.052000", "174620.305000", "174621.562000", "174622.829000", "174624.079000", "174625.305000", "174626.583000", "174627.824000", "174629.085000", "174630.331000", "174631.560000", "174632.832000", "174634.080000", "174635.306000", "174636.583000", "174637.828000", "174639.083000", "174640.328000", "174641.557000", "174642.816000", "174644.071000", "174645.377000", "174646.570000", "174647.811000", "174649.086000", "174650.310000", "174651.563000", "174652.845000", "174654.080000", "174655.311000", "174656.549000", "174657.824000", "174659.063000", "174700.327000", "174701.561000", "174702.813000", "174704.059000", "174705.295000", "174706.560000", "174707.830000", "174709.055000", "174710.316000", "174711.576000", "174712.827000", "174714.064000", "174715.357000", "174716.556000", "174717.802000", "174719.064000", "174720.330000", "174721.569000", "174722.842000", "174724.086000", "174725.322000", "174726.566000", "174727.818000", "174729.081000", "174730.328000", "174731.569000", "174732.824000", "174734.064000", "174735.314000", "174736.596000", "174737.830000", "174739.062000", "174740.330000", "174741.564000", "174742.833000", "174744.079000", "174745.310000", "174746.566000", "174747.811000", "174749.067000", "174750.313000", "174751.585000", "174752.815000", "174754.087000", "174755.296000", "174756.550000", "174757.833000", "174759.079000", "174800.355000", "174801.593000", "174802.823000", "174804.076000", "174805.328000", "174806.546000", "174807.821000", "174809.080000", "174810.325000", "174811.569000", "174812.821000", "174814.064000", "174815.311000", "174816.563000", "174817.814000", "174819.051000", "174820.319000", "174821.591000", "174822.814000", "174824.078000", "174825.313000", "174826.580000", "174827.819000", "174829.090000", "174830.360000", "174831.581000", "174832.827000", "174834.124000", "174835.307000", "174836.561000", "174837.814000", "174839.078000", "174840.335000", "174841.574000", "174842.796000", "174844.104000", "174845.315000", "174846.593000", "174847.791000", "174849.087000", "174850.346000", "174851.589000", "174852.818000", "174854.136000", "174855.353000", "174856.577000", "174857.800000", "174859.074000", "174900.371000", "174901.578000", "174902.811000", "174904.139000", "174905.321000", "174906.566000", "174907.815000", "174909.062000", "174910.321000", "174911.550000", "174912.817000", "174914.067000", "174915.321000", "174916.569000", "174917.812000", "174919.082000", "174920.323000", "174921.568000", "174922.820000", "174924.083000", "174925.330000", "174926.622000"],
      "InstanceNumber": [1, 2, 3, 4, 5, 6, 7, 8, 9, 10, 11, 12, 13, 14, 15, 16, 17, 18, 19, 20, 21, 22, 23, 24, 25, 26, 27, 28, 29, 30, 31, 32, 33, 34, 35, 36, 37, 38, 39, 40, 41, 42, 43, 44, 45, 46, 47, 48, 49, 50, 51, 52, 53, 54, 55, 56, 57, 58, 59, 60, 61, 62, 63, 64, 65, 66, 67, 68, 69, 70, 71, 72, 73, 74, 75, 76, 77, 78, 79, 80, 81, 82, 83, 84, 85, 86, 87, 88, 89, 90, 91, 92, 93, 94, 95, 96, 97, 98, 99, 100, 101, 102, 103, 104, 105, 106, 107, 108, 109, 110, 111, 112, 113, 114, 115, 116, 117, 118, 119, 120, 121, 122, 123, 124, 125, 126, 127, 128, 129, 130, 131, 132, 133, 134, 135, 136, 137, 138, 139, 140, 141, 142, 143, 144, 145, 146, 147, 148, 149, 150, 151, 152, 153, 154, 155, 156, 157, 158, 159, 160, 161, 162, 163, 164, 165, 166, 167, 168, 169, 170, 171, 172, 173, 174, 175, 176, 177, 178, 179, 180, 181, 182, 183, 184, 185, 186, 187, 188, 189, 190, 191, 192, 193, 194, 195, 196, 197, 198, 199, 200, 201, 202, 203, 204, 205, 206, 207, 208, 209, 210, 211, 212, 213, 214, 215, 216, 217, 218, 219, 220, 221, 222, 223, 224, 225, 226, 227, 228, 229, 230, 231, 232, 233, 234, 235, 236, 237, 238, 239, 240, 241, 242, 243, 244, 245, 246, 247, 248, 249, 250, 251, 252, 253, 254, 255, 256, 257, 258, 259, 260, 261, 262, 263, 264, 265, 266, 267, 268, 269, 270, 271, 272, 273, 274, 275, 276, 277, 278, 279, 280],
      "LargestImagePixelValue": [1053, 1079, 1398, 807, 923, 1200, 1022, 1172, 1041, 1020, 1090, 1054, 749, 938, 992, 1191, 1109, 1251, 1017, 988, 876, 1274, 969, 1204, 930, 1175, 1077, 797, 938, 1010, 841, 863, 1107, 1209, 826, 920, 1129, 1193, 954, 990, 1003, 1114, 841, 915, 1020, 1199, 850, 898, 1178, 1228, 844, 944, 1073, 865, 970, 1029, 1112, 820, 1080, 1066, 1163, 844, 956, 1023, 946, 809, 1110, 1007, 1105, 876, 943, 1235, 1156, 906, 919, 1070, 881, 867, 1013, 1331, 845, 980, 1252, 1210, 799, 859, 1061, 1171, 811, 1026, 1200, 1050, 859, 889, 969, 1073, 865, 884, 1029, 1093, 1000, 1044, 1358, 829, 882, 1105, 1157, 885, 904, 925, 1022, 825, 881, 1114, 1287, 892, 913, 1037, 917, 867, 1010, 1291, 1010, 898, 1021, 1274, 945, 889, 975, 1094, 815, 988, 1125, 1013, 827, 932, 1103, 813, 887, 1287, 1081, 920, 1126, 1007, 794, 867, 988, 863, 961, 1128, 1293, 795, 892, 1018, 809, 854, 970, 1307, 807, 903, 1282, 1119, 996, 1153, 1156, 803, 886, 1234, 815, 945, 1328, 804, 916, 1314, 798, 881, 1330, 1100, 912, 974, 1219, 794, 854, 1045, 792, 893, 1224, 814, 923, 1398, 1087, 1103, 867, 954, 1097, 766, 868, 1035, 759, 936, 1219, 1026, 919, 1331, 755, 1009, 1272, 798, 829, 1009, 783, 895, 1298, 1032, 861, 1281, 864, 898, 918, 1066, 787, 896, 901, 1015, 1151, 1271, 1065, 863, 1264, 811, 908, 1016, 762, 884, 1240, 796, 928, 1308, 1111, 1083, 826, 1233, 1287, 868, 1019, 1022, 787, 1041, 913, 969, 1331, 1264, 1048, 984, 965, 812, 1054, 881, 1095, 1284, 840, 866, 977, 1129, 790, 902, 1161, 937, 938, 1341, 1183, 949, 1159, 993, 814, 855, 910, 850, 1128, 1196],
      "WindowCenter": [381.0, 380.0, 381.0, 376.0, 379.0, 381.0, 379.0, 379.0, 378.0, 379.0, 379.0, 379.0, 376.0, 380.0, 381.0, 382.0, 380.0, 381.0, 379.0, 378.0, 379.0, 383.0, 379.0, 381.0, 379.0, 380.0, 378.0, 376.0, 378.0, 379.0, 378.0, 379.0, 381.0, 381.0, 377.0, 379.0, 380.0, 381.0, 379.0, 379.0, 378.0, 379.0, 377.0, 378.0, 379.0, 381.0, 379.0, 378.0, 381.0, 381.0, 377.0, 378.0, 379.0, 378.0, 379.0, 380.0, 381.0, 378.0, 380.0, 379.0, 381.0, 377.0, 379.0, 379.0, 379.0, 378.0, 381.0, 379.0, 380.0, 378.0, 378.0, 381.0, 380.0, 377.0, 378.0, 380.0, 378.0, 378.0, 380.0, 382.0, 377.0, 379.0, 381.0, 380.0, 376.0, 377.0, 380.0, 381.0, 377.0, 380.0, 380.0, 379.0, 377.0, 377.0, 377.0, 379.0, 377.0, 378.0, 380.0, 381.0, 379.0, 379.0, 381.0, 377.0, 377.0, 380.0, 380.0, 377.0, 378.0, 378.0, 379.0, 378.0, 379.0, 380.0, 381.0, 378.0, 378.0, 379.0, 378.0, 377.0, 379.0, 382.0, 379.0, 377.0, 378.0, 380.0, 377.0, 377.0, 378.0, 380.0, 378.0, 379.0, 380.0, 380.0, 377.0, 378.0, 380.0, 378.0, 379.0, 382.0, 380.0, 378.0, 380.0, 379.0, 377.0, 378.0, 379.0, 378.0, 379.0, 380.0, 381.0, 376.0, 378.0, 380.0, 378.0, 378.0, 380.0, 382.0, 377.0, 378.0, 381.0, 379.0, 378.0, 380.0, 379.0, 376.0, 378.0, 381.0, 377.0, 379.0, 382.0, 377.0, 378.0, 383.0, 378.0, 378.0, 382.0, 379.0, 377.0, 378.0, 380.0, 377.0, 377.0, 379.0, 377.0, 378.0, 381.0, 377.0, 378.0, 382.0, 379.0, 379.0, 377.0, 378.0, 379.0, 376.0, 377.0, 379.0, 377.0, 379.0, 382.0, 380.0, 379.0, 382.0, 376.0, 379.0, 380.0, 377.0, 377.0, 380.0, 378.0, 379.0, 382.0, 379.0, 377.0, 380.0, 377.0, 376.0, 377.0, 379.0, 377.0, 379.0, 380.0, 380.0, 381.0, 381.0, 379.0, 376.0, 381.0, 376.0, 377.0, 379.0, 376.0, 378.0, 381.0, 377.0, 378.0, 381.0, 380.0, 380.0, 377.0, 381.0, 381.0, 377.0, 379.0, 379.0, 377.0, 380.0, 379.0, 380.0, 382.0, 381.0, 379.0, 378.0, 379.0, 378.0, 380.0, 379.0, 380.0, 381.0, 377.0, 377.0, 378.0, 379.0, 377.0, 378.0, 381.0, 379.0, 378.0, 382.0, 380.0, 378.0, 379.0, 378.0, 377.0, 377.0, 379.0, 379.0, 381.0, 381.0],
      "WindowWidth": [811.0, 809.0, 810.0, 803.0, 807.0, 810.0, 808.0, 807.0, 805.0, 806.0, 807.0, 806.0, 803.0, 808.0, 810.0, 812.0, 809.0, 810.0, 806.0, 804.0, 808.0, 813.0, 808.0, 810.0, 807.0, 809.0, 805.0, 803.0, 806.0, 806.0, 806.0, 807.0, 810.0, 810.0, 805.0, 808.0, 809.0, 810.0, 807.0, 807.0, 806.0, 807.0, 805.0, 806.0, 808.0, 810.0, 807.0, 807.0, 809.0, 810.0, 804.0, 806.0, 807.0, 806.0, 808.0, 808.0, 810.0, 806.0, 810.0, 808.0, 809.0, 805.0, 807.0, 807.0, 808.0, 807.0, 810.0, 807.0, 809.0, 806.0, 806.0, 809.0, 808.0, 804.0, 805.0, 808.0, 805.0, 806.0, 808.0, 811.0, 805.0, 806.0, 809.0, 808.0, 803.0, 804.0, 809.0, 809.0, 805.0, 808.0, 809.0, 807.0, 805.0, 804.0, 804.0, 807.0, 805.0, 805.0, 808.0, 810.0, 808.0, 808.0, 810.0, 803.0, 805.0, 809.0, 808.0, 804.0, 806.0, 805.0, 807.0, 806.0, 807.0, 809.0, 811.0, 806.0, 806.0, 807.0, 806.0, 805.0, 807.0, 811.0, 807.0, 804.0, 806.0, 808.0, 804.0, 804.0, 806.0, 808.0, 806.0, 808.0, 809.0, 808.0, 805.0, 806.0, 809.0, 806.0, 807.0, 812.0, 808.0, 805.0, 809.0, 807.0, 804.0, 806.0, 807.0, 806.0, 808.0, 808.0, 809.0, 803.0, 805.0, 808.0, 806.0, 806.0, 808.0, 812.0, 805.0, 806.0, 810.0, 807.0, 806.0, 808.0, 807.0, 803.0, 805.0, 809.0, 805.0, 808.0, 812.0, 805.0, 806.0, 813.0, 806.0, 806.0, 811.0, 808.0, 804.0, 806.0, 808.0, 803.0, 804.0, 808.0, 805.0, 807.0, 811.0, 805.0, 806.0, 812.0, 806.0, 807.0, 805.0, 806.0, 806.0, 803.0, 804.0, 807.0, 804.0, 807.0, 812.0, 809.0, 807.0, 811.0, 803.0, 807.0, 808.0, 804.0, 803.0, 808.0, 806.0, 808.0, 812.0, 807.0, 804.0, 808.0, 803.0, 803.0, 804.0, 806.0, 804.0, 808.0, 809.0, 810.0, 810.0, 811.0, 807.0, 803.0, 809.0, 802.0, 804.0, 806.0, 803.0, 806.0, 809.0, 804.0, 805.0, 810.0, 808.0, 808.0, 805.0, 809.0, 809.0, 804.0, 807.0, 806.0, 804.0, 809.0, 808.0, 809.0, 812.0, 810.0, 807.0, 806.0, 807.0, 805.0, 809.0, 808.0, 808.0, 811.0, 804.0, 803.0, 804.0, 807.0, 804.0, 805.0, 810.0, 807.0, 806.0, 811.0, 808.0, 805.0, 807.0, 806.0, 803.0, 804.0, 808.0, 807.0, 810.0, 810.0]
    },
    "slices": {}
  }
}