{
  "AcquisitionMatrixPE": 96,
  "AcquisitionNumber": 1,
  "AcquisitionTime": "18:05:47.490000",
  "BandwidthPerPixelPhaseEncode": 18.939,
  "BaseResolution": 96,
  "BodyPartExamined": "BRAIN",
  "ConsistencyInfo": "N4_VE11C_LATEST_20160120",
  "ConversionSoftware": "dcm2niix",
  "ConversionSoftwareVersion": "v1.0.20170923 (OpenJPEG build) GCC6.3.0",
  "DerivedVendorReportedEchoSpacing": 0.000550011,
  "DeviceSerialNumber": "66112",
  "DwellTime": 2.3e-06,
  "EchoTime": 0.033,
  "EchoTrainLength": 96,
  "EffectiveEchoSpacing": 0.000550011,
  "FlipAngle": 64,
  "ImageType": [
    "ORIGINAL",
    "PRIMARY",
    "FMRI",
    "NONE",
    "ND",
    "NORM",
    "MOSAIC"
],
  "InstitutionAddress": "Maynard_3_Hanover_NH_US_03755",
  "InstitutionName": "Dartmouth_College_-_PBS",
  "MagneticFieldStrength": 3,
  "Manufacturer": "Siemens",
  "ManufacturersModelName": "Prisma",
  "Modality": "MR",
  "MultibandAccelerationFactor": 4,
  "PartialFourier": 1,
  "PercentPhaseFOV": 100,
  "PhaseEncodingDirection": "j-",
  "PhaseEncodingSteps": 96,
  "PhaseResolution": 1,
  "ProcedureStepDescription": "Gobbini_Matteo_1017_famface-angles",
  "ProtocolName": "func_run-08_task-fam1back",
  "PulseSequenceDetails": "%SiemensSeq%_ep2d_bold",
  "ReceiveCoilActiveElements": "HEA;HEP",
  "ReceiveCoilName": "Head_32",
  "ReconMatrixPE": 96,
  "RepetitionTime": 1.25,
  "ScanOptions": "FS",
  "ScanningSequence": "EP",
  "SequenceName": "_epfid2d1_96",
  "SequenceVariant": "SK",
  "SeriesDescription": "func_run-08_task-fam1back",
  "SliceTiming": [0.8775, 0, 0.615, 0.0875, 0.7025, 0.175, 0.79, 0.3525, 0.9675, 0.44, 1.055, 0.5275, 1.1425, 0.2625, 0.8775, 0, 0.615, 0.0875, 0.7025, 0.175, 0.79, 0.3525, 0.9675, 0.44, 1.055, 0.5275, 1.1425, 0.2625, 0.8775, 0, 0.615, 0.0875, 0.7025, 0.175, 0.79, 0.3525, 0.9675, 0.44, 1.055, 0.5275, 1.1425, 0.2625, 0.8775, 0, 0.615, 0.0875, 0.7025, 0.175, 0.79, 0.3525, 0.9675, 0.44, 1.055, 0.5275, 1.1425, 0.2625],
  "SoftwareVersions": "syngo_MR_E11",
  "StationName": "AWP66112",
  "TaskName": "fam1back",
  "TotalReadoutTime": 0.0522511,
  "dcmmeta_affine": [
    [-2.4963953495025635, -0.10681237280368805, 0.0812472403049469, 129.85928344726562],
    [-0.10800638049840927, 2.497415781021118, -0.03534572571516037, -94.96044921875],
    [0.07965310662984848, 0.03880485147237778, 2.498429298400879, -97.97564697265625],
    [0.0, 0.0, 0.0, 1.0]
],
  "dcmmeta_reorient_transform": [
    [0.0, -1.0, 0.0, 95.0],
    [1.0, 0.0, 0.0, 0.0],
    [0.0, 0.0, 1.0, 0.0],
    [0.0, 0.0, 0.0, 1.0]
],
  "dcmmeta_shape": [96, 96, 56, 280],
  "dcmmeta_slice_dim": 2,
  "dcmmeta_version": 0.6,
  "global": {
    "const": {
      "AccessionNumber": "A000288",
      "AcquisitionMatrix": [96, 0, 0, 96],
      "AngioFlag": "N",
      "BitsAllocated": 16,
      "BitsStored": 12,
      "BodyPartExamined": "BRAIN",
      "Columns": 768,
      "EchoNumbers": 1,
      "EchoTime": 33.0,
      "EchoTrainLength": 96,
      "FlipAngle": 64.0,
      "HighBit": 11,
      "ImageOrientationPatient": [0.99855816080821, 0.0432025534305, 0.03186124386161, -0.0427249486984, 0.99896628978956, -0.0155219400461],
      "ImagePositionPatient": [-922.61200387232, -1017.7158751205, -108.01419998561],
      "ImageType": [
        "ORIGINAL",
        "PRIMARY",
        "FMRI",
        "NONE",
        "ND",
        "NORM",
        "MOSAIC"
],
      "ImagedNucleus": "1H",
      "ImagingFrequency": 123.252407,
      "InPlanePhaseEncodingDirection": "COL",
      "MRAcquisitionType": "2D",
      "MagneticFieldStrength": 3.0,
      "Manufacturer": "SIEMENS",
      "ManufacturerModelName": "Prisma",
      "Modality": "MR",
      "NumberOfAverages": 1.0,
      "NumberOfPhaseEncodingSteps": 96,
      "PercentPhaseFieldOfView": 100.0,
      "PercentSampling": 100.0,
      "PerformedProcedureStepStartTime": "165832.023000",
      "PhotometricInterpretation": "MONOCHROME2",
      "PixelBandwidth": 2265.0,
      "PixelRepresentation": 0,
      "PixelSpacing": [2.5, 2.5],
      "PositionReferenceIndicator": "",
      "ProtocolName": "func_run-08_task-fam1back",
      "RepetitionTime": 1250.0,
      "Rows": 768,
      "SAR": 0.0521049680728,
      "SamplesPerPixel": 1,
      "ScanOptions": "FS",
      "ScanningSequence": "EP",
      "SequenceName": "*epfid2d1_96",
      "SequenceVariant": "SK",
      "SeriesDescription": "func_run-08_task-fam1back",
      "SeriesNumber": 60,
      "SeriesTime": "180549.156000",
      "SliceLocation": -92.351232499625,
      "SliceThickness": 2.5,
      "SmallestImagePixelValue": 0,
      "SoftwareVersions": "syngo MR E11",
      "SpacingBetweenSlices": 2.4999999647722,
      "SpecificCharacterSet": "ISO_IR 100",
      "StudyID": "1",
      "StudyTime": "165831.981000",
      "TransmitCoilName": "Body",
      "VariableFlipAngleFlag": "N",
      "WindowCenterWidthExplanation": "Algo1",
      "dBdt": 0.0},
    "slices": {}
  },
  "time": {
    "samples": {
      "AcquisitionNumber": [1, 2, 3, 4, 5, 6, 7, 8, 9, 10, 11, 12, 13, 14, 15, 16, 17, 18, 19, 20, 21, 22, 23, 24, 25, 26, 27, 28, 29, 30, 31, 32, 33, 34, 35, 36, 37, 38, 39, 40, 41, 42, 43, 44, 45, 46, 47, 48, 49, 50, 51, 52, 53, 54, 55, 56, 57, 58, 59, 60, 61, 62, 63, 64, 65, 66, 67, 68, 69, 70, 71, 72, 73, 74, 75, 76, 77, 78, 79, 80, 81, 82, 83, 84, 85, 86, 87, 88, 89, 90, 91, 92, 93, 94, 95, 96, 97, 98, 99, 100, 101, 102, 103, 104, 105, 106, 107, 108, 109, 110, 111, 112, 113, 114, 115, 116, 117, 118, 119, 120, 121, 122, 123, 124, 125, 126, 127, 128, 129, 130, 131, 132, 133, 134, 135, 136, 137, 138, 139, 140, 141, 142, 143, 144, 145, 146, 147, 148, 149, 150, 151, 152, 153, 154, 155, 156, 157, 158, 159, 160, 161, 162, 163, 164, 165, 166, 167, 168, 169, 170, 171, 172, 173, 174, 175, 176, 177, 178, 179, 180, 181, 182, 183, 184, 185, 186, 187, 188, 189, 190, 191, 192, 193, 194, 195, 196, 197, 198, 199, 200, 201, 202, 203, 204, 205, 206, 207, 208, 209, 210, 211, 212, 213, 214, 215, 216, 217, 218, 219, 220, 221, 222, 223, 224, 225, 226, 227, 228, 229, 230, 231, 232, 233, 234, 235, 236, 237, 238, 239, 240, 241, 242, 243, 244, 245, 246, 247, 248, 249, 250, 251, 252, 253, 254, 255, 256, 257, 258, 259, 260, 261, 262, 263, 264, 265, 266, 267, 268, 269, 270, 271, 272, 273, 274, 275, 276, 277, 278, 279, 280],
      "AcquisitionTime": ["180547.490000", "180548.740000", "180549.990000", "180551.240000", "180552.490000", "180553.740000", "180554.990000", "180556.240000", "180557.490000", "180558.740000", "180559.990000", "180601.240000", "180602.490000", "180603.740000", "180604.990000", "180606.240000", "180607.490000", "180608.740000", "180609.990000", "180611.240000", "180612.490000", "180613.740000", "180614.990000", "180616.240000", "180617.490000", "180618.740000", "180619.990000", "180621.240000", "180622.490000", "180623.740000", "180624.990000", "180626.240000", "180627.490000", "180628.740000", "180629.990000", "180631.240000", "180632.490000", "180633.740000", "180634.990000", "180636.240000", "180637.490000", "180638.740000", "180639.990000", "180641.240000", "180642.490000", "180643.740000", "180644.990000", "180646.240000", "180647.490000", "180648.740000", "180649.990000", "180651.240000", "180652.490000", "180653.740000", "180654.990000", "180656.240000", "180657.490000", "180658.740000", "180659.990000", "180701.240000", "180702.490000", "180703.740000", "180704.990000", "180706.240000", "180707.490000", "180708.740000", "180709.990000", "180711.240000", "180712.490000", "180713.740000", "180714.990000", "180716.240000", "180717.490000", "180718.740000", "180719.990000", "180721.240000", "180722.490000", "180723.740000", "180724.990000", "180726.240000", "180727.490000", "180728.740000", "180729.990000", "180731.240000", "180732.490000", "180733.740000", "180734.990000", "180736.240000", "180737.490000", "180738.740000", "180739.990000", "180741.240000", "180742.490000", "180743.740000", "180744.990000", "180746.240000", "180747.490000", "180748.740000", "180749.990000", "180751.240000", "180752.490000", "180753.740000", "180754.990000", "180756.240000", "180757.490000", "180758.740000", "180759.990000", "180801.240000", "180802.490000", "180803.740000", "180804.990000", "180806.240000", "180807.490000", "180808.740000", "180809.990000", "180811.240000", "180812.490000", "180813.740000", "180814.990000", "180816.240000", "180817.490000", "180818.740000", "180819.990000", "180821.240000", "180822.490000", "180823.740000", "180824.990000", "180826.240000", "180827.490000", "180828.740000", "180829.990000", "180831.240000", "180832.490000", "180833.740000", "180834.990000", "180836.240000", "180837.490000", "180838.740000", "180839.990000", "180841.240000", "180842.490000", "180843.740000", "180844.990000", "180846.240000", "180847.490000", "180848.740000", "180849.990000", "180851.240000", "180852.490000", "180853.740000", "180854.990000", "180856.240000", "180857.490000", "180858.740000", "180859.990000", "180901.240000", "180902.490000", "180903.740000", "180904.990000", "180906.240000", "180907.490000", "180908.740000", "180909.990000", "180911.240000", "180912.490000", "180913.740000", "180914.990000", "180916.240000", "180917.490000", "180918.740000", "180919.990000", "180921.240000", "180922.490000", "180923.740000", "180924.990000", "180926.240000", "180927.490000", "180928.740000", "180929.990000", "180931.240000", "180932.490000", "180933.740000", "180934.990000", "180936.240000", "180937.490000", "180938.740000", "180939.990000", "180941.240000", "180942.490000", "180943.740000", "180944.990000", "180946.240000", "180947.490000", "180948.740000", "180949.990000", "180951.240000", "180952.490000", "180953.740000", "180954.990000", "180956.240000", "180957.490000", "180958.740000", "180959.990000", "181001.240000", "181002.490000", "181003.740000", "181004.990000", "181006.240000", "181007.490000", "181008.740000", "181009.990000", "181011.240000", "181012.490000", "181013.740000", "181014.990000", "181016.240000", "181017.490000", "181018.740000", "181019.990000", "181021.240000", "181022.490000", "181023.740000", "181024.990000", "181026.240000", "181027.490000", "181028.740000", "181029.990000", "181031.240000", "181032.490000", "181033.740000", "181034.990000", "181036.240000", "181037.490000", "181038.740000", "181039.990000", "181041.240000", "181042.490000", "181043.740000", "181044.990000", "181046.240000", "181047.490000", "181048.740000", "181049.990000", "181051.240000", "181052.490000", "181053.740000", "181054.990000", "181056.240000", "181057.490000", "181058.740000", "181059.990000", "181101.240000", "181102.490000", "181103.740000", "181104.990000", "181106.240000", "181107.490000", "181108.740000", "181109.990000", "181111.240000", "181112.490000", "181113.740000", "181114.990000", "181116.240000", "181117.490000", "181118.740000", "181119.990000", "181121.240000", "181122.490000", "181123.740000", "181124.990000", "181126.240000", "181127.490000", "181128.740000", "181129.990000", "181131.240000", "181132.490000", "181133.740000", "181134.990000", "181136.240000"],
      "ContentTime": ["180549.161000", "180550.258000", "180551.492000", "180552.750000", "180553.990000", "180555.238000", "180556.477000", "180557.750000", "180558.996000", "180600.232000", "180601.509000", "180602.748000", "180604.004000", "180605.206000", "180606.461000", "180607.726000", "180608.984000", "180610.227000", "180611.525000", "180612.716000", "180613.976000", "180615.230000", "180616.470000", "180617.726000", "180619.002000", "180620.239000", "180621.470000", "180622.747000", "180623.985000", "180625.217000", "180626.501000", "180627.732000", "180628.974000", "180630.220000", "180631.497000", "180632.753000", "180633.967000", "180635.237000", "180636.474000", "180637.724000", "180639.007000", "180640.247000", "180641.474000", "180642.732000", "180644.059000", "180645.233000", "180646.474000", "180647.726000", "180648.991000", "180650.230000", "180651.512000", "180652.724000", "180654.009000", "180655.250000", "180656.515000", "180657.746000", "180659.026000", "180700.239000", "180701.519000", "180702.718000", "180704.011000", "180705.249000", "180706.499000", "180707.730000", "180708.972000", "180710.207000", "180711.485000", "180712.721000", "180714.004000", "180715.233000", "180716.501000", "180717.755000", "180718.985000", "180720.198000", "180721.484000", "180722.723000", "180723.992000", "180725.213000", "180726.494000", "180727.739000", "180728.962000", "180730.244000", "180731.481000", "180732.738000", "180733.969000", "180735.221000", "180736.507000", "180737.727000", "180738.982000", "180740.216000", "180741.490000", "180742.732000", "180743.972000", "180745.211000", "180746.469000", "180747.732000", "180748.973000", "180750.228000", "180751.476000", "180752.739000", "180753.990000", "180755.246000", "180756.500000", "180757.773000", "180759.075000", "180800.257000", "180801.485000", "180802.797000", "180804.014000", "180805.259000", "180806.496000", "180807.754000", "180808.997000", "180810.218000", "180811.481000", "180812.731000", "180814.022000", "180815.247000", "180816.560000", "180817.735000", "180818.987000", "180820.288000", "180821.478000", "180822.754000", "180823.986000", "180825.248000", "180826.483000", "180827.740000", "180828.984000", "180830.239000", "180831.528000", "180832.738000", "180833.998000", "180835.271000", "180836.483000", "180837.744000", "180839.001000", "180840.232000", "180841.482000", "180842.734000", "180844.019000", "180845.247000", "180846.488000", "180847.731000", "180848.980000", "180850.241000", "180851.510000", "180852.753000", "180853.996000", "180855.256000", "180856.479000", "180857.732000", "180859.010000", "180900.279000", "180901.489000", "180902.734000", "180903.981000", "180905.229000", "180906.545000", "180907.736000", "180908.995000", "180910.234000", "180911.508000", "180912.729000", "180913.997000", "180915.242000", "180916.487000", "180917.753000", "180918.995000", "180920.241000", "180921.479000", "180922.747000", "180924.015000", "180925.229000", "180926.497000", "180927.746000", "180928.993000", "180930.241000", "180931.502000", "180932.740000", "180933.989000", "180935.238000", "180936.515000", "180937.730000", "180938.996000", "180940.262000", "180941.507000", "180942.772000", "180943.978000", "180945.264000", "180946.479000", "180947.729000", "180948.990000", "180950.235000", "180951.495000", "180952.752000", "180954.035000", "180955.217000", "180956.482000", "180957.754000", "180959.002000", "181000.263000", "181001.520000", "181002.749000", "181003.978000", "181005.239000", "181006.511000", "181007.760000", "181009.008000", "181010.242000", "181011.498000", "181012.741000", "181013.997000", "181015.233000", "181016.494000", "181017.740000", "181018.987000", "181020.260000", "181021.483000", "181022.729000", "181024.015000", "181025.226000", "181026.504000", "181027.720000", "181029.008000", "181030.255000", "181031.501000", "181032.732000", "181033.993000", "181035.244000", "181036.489000", "181037.743000", "181039.002000", "181040.249000", "181041.499000", "181042.727000", "181043.989000", "181045.248000", "181046.507000", "181047.778000", "181048.982000", "181050.239000", "181051.478000", "181052.724000", "181054.015000", "181055.259000", "181056.478000", "181057.738000", "181059.007000", "181100.235000", "181101.495000", "181102.774000", "181103.995000", "181105.240000", "181106.495000", "181107.744000", "181108.992000", "181110.228000", "181111.469000", "181112.723000", "181113.992000", "181115.261000", "181116.499000", "181117.750000", "181119.004000", "181120.278000", "181121.496000", "181122.737000", "181123.981000", "181125.220000", "181126.547000", "181127.802000", "181129.001000", "181130.228000", "181131.515000", "181132.739000", "181133.982000", "181135.253000", "181136.518000", "181137.794000"],
      "InstanceCreationTime": ["180549.161000", "180550.258000", "180551.492000", "180552.750000", "180553.990000", "180555.238000", "180556.477000", "180557.750000", "180558.996000", "180600.232000", "180601.509000", "180602.748000", "180604.004000", "180605.206000", "180606.461000", "180607.726000", "180608.984000", "180610.227000", "180611.525000", "180612.716000", "180613.976000", "180615.230000", "180616.470000", "180617.726000", "180619.002000", "180620.239000", "180621.470000", "180622.747000", "180623.985000", "180625.217000", "180626.501000", "180627.732000", "180628.974000", "180630.220000", "180631.497000", "180632.753000", "180633.967000", "180635.237000", "180636.474000", "180637.724000", "180639.007000", "180640.247000", "180641.474000", "180642.732000", "180644.059000", "180645.233000", "180646.474000", "180647.726000", "180648.991000", "180650.230000", "180651.512000", "180652.724000", "180654.009000", "180655.250000", "180656.515000", "180657.746000", "180659.026000", "180700.239000", "180701.519000", "180702.718000", "180704.011000", "180705.249000", "180706.499000", "180707.730000", "180708.972000", "180710.207000", "180711.485000", "180712.721000", "180714.004000", "180715.233000", "180716.501000", "180717.755000", "180718.985000", "180720.198000", "180721.484000", "180722.723000", "180723.992000", "180725.213000", "180726.494000", "180727.739000", "180728.962000", "180730.244000", "180731.481000", "180732.738000", "180733.969000", "180735.221000", "180736.507000", "180737.727000", "180738.982000", "180740.216000", "180741.490000", "180742.732000", "180743.972000", "180745.211000", "180746.469000", "180747.732000", "180748.973000", "180750.228000", "180751.476000", "180752.739000", "180753.990000", "180755.246000", "180756.500000", "180757.773000", "180759.075000", "180800.257000", "180801.485000", "180802.797000", "180804.014000", "180805.259000", "180806.496000", "180807.754000", "180808.997000", "180810.218000", "180811.481000", "180812.731000", "180814.022000", "180815.247000", "180816.560000", "180817.735000", "180818.987000", "180820.288000", "180821.478000", "180822.754000", "180823.986000", "180825.248000", "180826.483000", "180827.740000", "180828.984000", "180830.239000", "180831.528000", "180832.738000", "180833.998000", "180835.271000", "180836.483000", "180837.744000", "180839.001000", "180840.232000", "180841.482000", "180842.734000", "180844.019000", "180845.247000", "180846.488000", "180847.731000", "180848.980000", "180850.241000", "180851.510000", "180852.753000", "180853.996000", "180855.256000", "180856.479000", "180857.732000", "180859.010000", "180900.279000", "180901.489000", "180902.734000", "180903.981000", "180905.229000", "180906.545000", "180907.736000", "180908.995000", "180910.234000", "180911.508000", "180912.729000", "180913.997000", "180915.242000", "180916.487000", "180917.753000", "180918.995000", "180920.241000", "180921.479000", "180922.747000", "180924.015000", "180925.229000", "180926.497000", "180927.746000", "180928.993000", "180930.241000", "180931.502000", "180932.740000", "180933.989000", "180935.238000", "180936.515000", "180937.730000", "180938.996000", "180940.262000", "180941.507000", "180942.772000", "180943.978000", "180945.264000", "180946.479000", "180947.729000", "180948.990000", "180950.235000", "180951.495000", "180952.752000", "180954.035000", "180955.217000", "180956.482000", "180957.754000", "180959.002000", "181000.263000", "181001.520000", "181002.749000", "181003.978000", "181005.239000", "181006.511000", "181007.760000", "181009.008000", "181010.242000", "181011.498000", "181012.741000", "181013.997000", "181015.233000", "181016.494000", "181017.740000", "181018.987000", "181020.260000", "181021.483000", "181022.729000", "181024.015000", "181025.226000", "181026.504000", "181027.720000", "181029.008000", "181030.255000", "181031.501000", "181032.732000", "181033.993000", "181035.244000", "181036.489000", "181037.743000", "181039.002000", "181040.249000", "181041.499000", "181042.727000", "181043.989000", "181045.248000", "181046.507000", "181047.778000", "181048.982000", "181050.239000", "181051.478000", "181052.724000", "181054.015000", "181055.259000", "181056.478000", "181057.738000", "181059.007000", "181100.235000", "181101.495000", "181102.774000", "181103.995000", "181105.240000", "181106.495000", "181107.744000", "181108.992000", "181110.228000", "181111.469000", "181112.723000", "181113.992000", "181115.261000", "181116.499000", "181117.750000", "181119.004000", "181120.278000", "181121.496000", "181122.737000", "181123.981000", "181125.220000", "181126.547000", "181127.802000", "181129.001000", "181130.228000", "181131.515000", "181132.739000", "181133.982000", "181135.253000", "181136.518000", "181137.794000"],
      "InstanceNumber": [1, 2, 3, 4, 5, 6, 7, 8, 9, 10, 11, 12, 13, 14, 15, 16, 17, 18, 19, 20, 21, 22, 23, 24, 25, 26, 27, 28, 29, 30, 31, 32, 33, 34, 35, 36, 37, 38, 39, 40, 41, 42, 43, 44, 45, 46, 47, 48, 49, 50, 51, 52, 53, 54, 55, 56, 57, 58, 59, 60, 61, 62, 63, 64, 65, 66, 67, 68, 69, 70, 71, 72, 73, 74, 75, 76, 77, 78, 79, 80, 81, 82, 83, 84, 85, 86, 87, 88, 89, 90, 91, 92, 93, 94, 95, 96, 97, 98, 99, 100, 101, 102, 103, 104, 105, 106, 107, 108, 109, 110, 111, 112, 113, 114, 115, 116, 117, 118, 119, 120, 121, 122, 123, 124, 125, 126, 127, 128, 129, 130, 131, 132, 133, 134, 135, 136, 137, 138, 139, 140, 141, 142, 143, 144, 145, 146, 147, 148, 149, 150, 151, 152, 153, 154, 155, 156, 157, 158, 159, 160, 161, 162, 163, 164, 165, 166, 167, 168, 169, 170, 171, 172, 173, 174, 175, 176, 177, 178, 179, 180, 181, 182, 183, 184, 185, 186, 187, 188, 189, 190, 191, 192, 193, 194, 195, 196, 197, 198, 199, 200, 201, 202, 203, 204, 205, 206, 207, 208, 209, 210, 211, 212, 213, 214, 215, 216, 217, 218, 219, 220, 221, 222, 223, 224, 225, 226, 227, 228, 229, 230, 231, 232, 233, 234, 235, 236, 237, 238, 239, 240, 241, 242, 243, 244, 245, 246, 247, 248, 249, 250, 251, 252, 253, 254, 255, 256, 257, 258, 259, 260, 261, 262, 263, 264, 265, 266, 267, 268, 269, 270, 271, 272, 273, 274, 275, 276, 277, 278, 279, 280],
      "LargestImagePixelValue": [1175, 817, 992, 1268, 811, 970, 921, 883, 1083, 1201, 903, 764, 1004, 1112, 771, 816, 817, 1358, 906, 1120, 1193, 1082, 790, 855, 1271, 778, 865, 1202, 763, 886, 1131, 1167, 840, 804, 985, 900, 849, 1240, 1257, 812, 944, 1236, 1233, 762, 923, 1262, 1060, 799, 838, 1043, 783, 763, 1097, 1090, 769, 884, 1252, 873, 770, 1282, 970, 778, 1120, 1302, 1052, 828, 954, 1049, 837, 828, 917, 1223, 853, 787, 1152, 1093, 772, 819, 1002, 835, 797, 1291, 1123, 795, 1272, 1105, 768, 985, 927, 946, 828, 936, 900, 1006, 836, 997, 1212, 890, 847, 1075, 825, 980, 1262, 751, 839, 1003, 1254, 841, 1004, 1233, 768, 885, 1246, 1214, 839, 860, 1260, 914, 773, 1169, 1062, 809, 1030, 1212, 809, 869, 805, 1022, 943, 1155, 1079, 790, 816, 1005, 1267, 789, 854, 1052, 1157, 819, 928, 1235, 792, 833, 1236, 1070, 855, 949, 1165, 848, 884, 1157, 942, 828, 1001, 786, 777, 1277, 1171, 1060, 887, 763, 902, 897, 767, 942, 1224, 1046, 926, 1039, 998, 885, 822, 1087, 1243, 857, 1168, 1380, 900, 816, 1125, 1151, 1082, 1035, 1034, 847, 902, 957, 785, 914, 998, 868, 828, 878, 960, 806, 809, 877, 1117, 855, 783, 858, 817, 860, 1108, 1031, 1127, 946, 1178, 884, 1065, 985, 836, 1131, 908, 1076, 1140, 832, 1176, 1149, 844, 1017, 1426, 1002, 900, 1243, 833, 868, 1007, 809, 822, 1071, 967, 1080, 1069, 1013, 1127, 950, 1036, 1112, 1007, 865, 821, 1186, 763, 880, 1191, 756, 818, 1198, 1087, 963, 802, 881, 815, 842, 1103, 1141, 1145, 1006, 783, 1015, 1006, 1077, 1100, 1028, 800, 861, 961, 803, 815, 1185, 1268, 922, 747, 1132, 992, 794, 893, 936],
      "WindowCenter": [380.0, 376.0, 377.0, 380.0, 376.0, 378.0, 378.0, 378.0, 379.0, 379.0, 376.0, 374.0, 377.0, 378.0, 376.0, 377.0, 378.0, 382.0, 377.0, 379.0, 378.0, 377.0, 374.0, 375.0, 379.0, 375.0, 376.0, 380.0, 375.0, 376.0, 378.0, 378.0, 375.0, 375.0, 377.0, 377.0, 376.0, 380.0, 380.0, 376.0, 376.0, 378.0, 378.0, 374.0, 376.0, 379.0, 377.0, 374.0, 375.0, 378.0, 376.0, 375.0, 379.0, 379.0, 375.0, 377.0, 380.0, 377.0, 375.0, 380.0, 377.0, 375.0, 379.0, 379.0, 377.0, 375.0, 377.0, 377.0, 376.0, 376.0, 377.0, 379.0, 376.0, 374.0, 378.0, 378.0, 374.0, 376.0, 378.0, 376.0, 376.0, 380.0, 378.0, 375.0, 379.0, 377.0, 374.0, 377.0, 375.0, 376.0, 375.0, 377.0, 377.0, 377.0, 376.0, 377.0, 378.0, 376.0, 375.0, 379.0, 376.0, 377.0, 379.0, 375.0, 376.0, 377.0, 380.0, 376.0, 377.0, 380.0, 375.0, 376.0, 379.0, 379.0, 376.0, 376.0, 380.0, 377.0, 375.0, 378.0, 378.0, 375.0, 377.0, 378.0, 375.0, 376.0, 377.0, 379.0, 377.0, 379.0, 378.0, 375.0, 376.0, 377.0, 379.0, 375.0, 376.0, 378.0, 379.0, 376.0, 376.0, 379.0, 376.0, 376.0, 380.0, 378.0, 375.0, 376.0, 379.0, 376.0, 376.0, 379.0, 377.0, 376.0, 379.0, 377.0, 376.0, 380.0, 379.0, 377.0, 375.0, 374.0, 376.0, 376.0, 375.0, 377.0, 379.0, 377.0, 376.0, 377.0, 377.0, 376.0, 376.0, 378.0, 379.0, 376.0, 378.0, 379.0, 376.0, 377.0, 379.0, 379.0, 377.0, 377.0, 376.0, 373.0, 374.0, 374.0, 373.0, 375.0, 375.0, 374.0, 374.0, 375.0, 377.0, 375.0, 375.0, 376.0, 378.0, 377.0, 377.0, 378.0, 379.0, 380.0, 382.0, 380.0, 379.0, 378.0, 379.0, 376.0, 379.0, 378.0, 376.0, 379.0, 378.0, 379.0, 379.0, 376.0, 379.0, 379.0, 376.0, 377.0, 380.0, 377.0, 376.0, 379.0, 376.0, 375.0, 377.0, 376.0, 377.0, 379.0, 378.0, 379.0, 379.0, 379.0, 379.0, 378.0, 379.0, 379.0, 377.0, 376.0, 376.0, 379.0, 375.0, 377.0, 380.0, 375.0, 376.0, 379.0, 378.0, 377.0, 376.0, 376.0, 376.0, 377.0, 379.0, 379.0, 378.0, 377.0, 375.0, 378.0, 378.0, 378.0, 377.0, 377.0, 374.0, 376.0, 377.0, 376.0, 376.0, 379.0, 379.0, 376.0, 373.0, 378.0, 377.0, 374.0, 376.0, 377.0],
      "WindowWidth": [809.0, 802.0, 804.0, 807.0, 802.0, 805.0, 806.0, 805.0, 806.0, 807.0, 802.0, 798.0, 803.0, 805.0, 802.0, 804.0, 806.0, 811.0, 804.0, 806.0, 805.0, 802.0, 799.0, 801.0, 806.0, 800.0, 802.0, 807.0, 801.0, 801.0, 804.0, 804.0, 800.0, 800.0, 804.0, 803.0, 803.0, 808.0, 807.0, 801.0, 802.0, 805.0, 804.0, 798.0, 801.0, 805.0, 803.0, 799.0, 800.0, 804.0, 802.0, 800.0, 806.0, 806.0, 800.0, 804.0, 808.0, 804.0, 801.0, 808.0, 804.0, 801.0, 805.0, 806.0, 803.0, 800.0, 803.0, 803.0, 802.0, 803.0, 803.0, 806.0, 801.0, 800.0, 804.0, 804.0, 799.0, 801.0, 805.0, 803.0, 803.0, 808.0, 804.0, 801.0, 806.0, 803.0, 800.0, 802.0, 801.0, 802.0, 801.0, 803.0, 803.0, 804.0, 801.0, 803.0, 805.0, 801.0, 800.0, 805.0, 802.0, 803.0, 806.0, 800.0, 801.0, 804.0, 807.0, 802.0, 804.0, 807.0, 800.0, 802.0, 806.0, 806.0, 801.0, 802.0, 807.0, 803.0, 801.0, 805.0, 804.0, 800.0, 803.0, 805.0, 800.0, 802.0, 803.0, 807.0, 803.0, 807.0, 805.0, 801.0, 802.0, 804.0, 806.0, 800.0, 801.0, 805.0, 805.0, 801.0, 802.0, 806.0, 802.0, 802.0, 807.0, 804.0, 800.0, 802.0, 805.0, 802.0, 802.0, 805.0, 803.0, 802.0, 806.0, 804.0, 802.0, 809.0, 806.0, 804.0, 800.0, 798.0, 801.0, 802.0, 801.0, 804.0, 805.0, 802.0, 802.0, 803.0, 802.0, 801.0, 803.0, 804.0, 806.0, 801.0, 804.0, 806.0, 802.0, 803.0, 807.0, 806.0, 803.0, 802.0, 800.0, 797.0, 798.0, 798.0, 797.0, 799.0, 800.0, 798.0, 798.0, 799.0, 802.0, 801.0, 801.0, 802.0, 804.0, 804.0, 803.0, 805.0, 808.0, 809.0, 812.0, 808.0, 806.0, 805.0, 807.0, 802.0, 806.0, 805.0, 802.0, 807.0, 805.0, 806.0, 806.0, 803.0, 806.0, 806.0, 801.0, 804.0, 808.0, 803.0, 802.0, 806.0, 802.0, 801.0, 803.0, 802.0, 803.0, 807.0, 806.0, 807.0, 807.0, 807.0, 807.0, 805.0, 806.0, 806.0, 804.0, 803.0, 802.0, 807.0, 801.0, 804.0, 808.0, 802.0, 803.0, 807.0, 804.0, 803.0, 802.0, 802.0, 803.0, 804.0, 806.0, 806.0, 804.0, 803.0, 800.0, 805.0, 804.0, 805.0, 803.0, 802.0, 799.0, 801.0, 803.0, 802.0, 803.0, 806.0, 806.0, 802.0, 798.0, 804.0, 803.0, 799.0, 802.0, 803.0]
    },
    "slices": {}
  }
}