{
  "AcquisitionMatrixPE": 96,
  "AcquisitionNumber": 1,
  "AcquisitionTime": "18:19:15.360000",
  "BandwidthPerPixelPhaseEncode": 18.939,
  "BaseResolution": 96,
  "BodyPartExamined": "BRAIN",
  "ConsistencyInfo": "N4_VE11C_LATEST_20160120",
  "ConversionSoftware": "dcm2niix",
  "ConversionSoftwareVersion": "v1.0.20170923 (OpenJPEG build) GCC6.3.0",
  "DerivedVendorReportedEchoSpacing": 0.000550011,
  "DeviceSerialNumber": "66112",
  "DwellTime": 2.3e-06,
  "EchoTime": 0.033,
  "EchoTrainLength": 96,
  "EffectiveEchoSpacing": 0.000550011,
  "FlipAngle": 64,
  "ImageType": [
    "ORIGINAL",
    "PRIMARY",
    "FMRI",
    "NONE",
    "ND",
    "NORM",
    "MOSAIC"
],
  "InstitutionAddress": "Maynard_3_Hanover_NH_US_03755",
  "InstitutionName": "Dartmouth_College_-_PBS",
  "MagneticFieldStrength": 3,
  "Manufacturer": "Siemens",
  "ManufacturersModelName": "Prisma",
  "Modality": "MR",
  "MultibandAccelerationFactor": 4,
  "PartialFourier": 1,
  "PercentPhaseFOV": 100,
  "PhaseEncodingDirection": "j-",
  "PhaseEncodingSteps": 96,
  "PhaseResolution": 1,
  "ProcedureStepDescription": "Gobbini_Matteo_1017_famface-angles",
  "ProtocolName": "func_run-10_task-fam1back",
  "PulseSequenceDetails": "%SiemensSeq%_ep2d_bold",
  "ReceiveCoilActiveElements": "HEA;HEP",
  "ReceiveCoilName": "Head_32",
  "ReconMatrixPE": 96,
  "RepetitionTime": 1.25,
  "ScanOptions": "FS",
  "ScanningSequence": "EP",
  "SequenceName": "_epfid2d1_96",
  "SequenceVariant": "SK",
  "SeriesDescription": "func_run-10_task-fam1back",
  "SliceTiming": [0.88, 0, 0.615, 0.09, 0.705, 0.1775, 0.7925, 0.3525, 0.9675, 0.44, 1.055, 0.5275, 1.1425, 0.265, 0.88, 0, 0.615, 0.09, 0.705, 0.1775, 0.7925, 0.3525, 0.9675, 0.44, 1.055, 0.5275, 1.1425, 0.265, 0.88, 0, 0.615, 0.09, 0.705, 0.1775, 0.7925, 0.3525, 0.9675, 0.44, 1.055, 0.5275, 1.1425, 0.265, 0.88, 0, 0.615, 0.09, 0.705, 0.1775, 0.7925, 0.3525, 0.9675, 0.44, 1.055, 0.5275, 1.1425, 0.265],
  "SoftwareVersions": "syngo_MR_E11",
  "StationName": "AWP66112",
  "TaskName": "fam1back",
  "TotalReadoutTime": 0.0522511,
  "dcmmeta_affine": [
    [-2.4963953495025635, -0.10681237280368805, 0.0812472403049469, 129.85928344726562],
    [-0.10800638049840927, 2.497415781021118, -0.03534572571516037, -94.96044921875],
    [0.07965310662984848, 0.03880485147237778, 2.498429298400879, -97.97564697265625],
    [0.0, 0.0, 0.0, 1.0]
],
  "dcmmeta_reorient_transform": [
    [0.0, -1.0, 0.0, 95.0],
    [1.0, 0.0, 0.0, 0.0],
    [0.0, 0.0, 1.0, 0.0],
    [0.0, 0.0, 0.0, 1.0]
],
  "dcmmeta_shape": [96, 96, 56, 280],
  "dcmmeta_slice_dim": 2,
  "dcmmeta_version": 0.6,
  "global": {
    "const": {
      "AccessionNumber": "A000288",
      "AcquisitionMatrix": [96, 0, 0, 96],
      "AngioFlag": "N",
      "BitsAllocated": 16,
      "BitsStored": 12,
      "BodyPartExamined": "BRAIN",
      "Columns": 768,
      "EchoNumbers": 1,
      "EchoTime": 33.0,
      "EchoTrainLength": 96,
      "FlipAngle": 64.0,
      "HighBit": 11,
      "ImageOrientationPatient": [0.99855816080821, 0.0432025534305, 0.03186124386161, -0.0427249486984, 0.99896628978956, -0.0155219400461],
      "ImagePositionPatient": [-922.61200387232, -1017.7158751205, -108.01419998561],
      "ImageType": [
        "ORIGINAL",
        "PRIMARY",
        "FMRI",
        "NONE",
        "ND",
        "NORM",
        "MOSAIC"
],
      "ImagedNucleus": "1H",
      "ImagingFrequency": 123.252406,
      "InPlanePhaseEncodingDirection": "COL",
      "MRAcquisitionType": "2D",
      "MagneticFieldStrength": 3.0,
      "Manufacturer": "SIEMENS",
      "ManufacturerModelName": "Prisma",
      "Modality": "MR",
      "NumberOfAverages": 1.0,
      "NumberOfPhaseEncodingSteps": 96,
      "PercentPhaseFieldOfView": 100.0,
      "PercentSampling": 100.0,
      "PerformedProcedureStepStartTime": "165832.023000",
      "PhotometricInterpretation": "MONOCHROME2",
      "PixelBandwidth": 2265.0,
      "PixelRepresentation": 0,
      "PixelSpacing": [2.5, 2.5],
      "PositionReferenceIndicator": "",
      "ProtocolName": "func_run-10_task-fam1back",
      "RepetitionTime": 1250.0,
      "Rows": 768,
      "SAR": 0.0521049680728,
      "SamplesPerPixel": 1,
      "ScanOptions": "FS",
      "ScanningSequence": "EP",
      "SequenceName": "*epfid2d1_96",
      "SequenceVariant": "SK",
      "SeriesDescription": "func_run-10_task-fam1back",
      "SeriesNumber": 74,
      "SeriesTime": "181916.846000",
      "SliceLocation": -92.351232499625,
      "SliceThickness": 2.5,
      "SmallestImagePixelValue": 0,
      "SoftwareVersions": "syngo MR E11",
      "SpacingBetweenSlices": 2.4999999647722,
      "SpecificCharacterSet": "ISO_IR 100",
      "StudyID": "1",
      "StudyTime": "165831.981000",
      "TransmitCoilName": "Body",
      "VariableFlipAngleFlag": "N",
      "WindowCenterWidthExplanation": "Algo1",
      "dBdt": 0.0},
    "slices": {}
  },
  "time": {
    "samples": {
      "AcquisitionNumber": [1, 2, 3, 4, 5, 6, 7, 8, 9, 10, 11, 12, 13, 14, 15, 16, 17, 18, 19, 20, 21, 22, 23, 24, 25, 26, 27, 28, 29, 30, 31, 32, 33, 34, 35, 36, 37, 38, 39, 40, 41, 42, 43, 44, 45, 46, 47, 48, 49, 50, 51, 52, 53, 54, 55, 56, 57, 58, 59, 60, 61, 62, 63, 64, 65, 66, 67, 68, 69, 70, 71, 72, 73, 74, 75, 76, 77, 78, 79, 80, 81, 82, 83, 84, 85, 86, 87, 88, 89, 90, 91, 92, 93, 94, 95, 96, 97, 98, 99, 100, 101, 102, 103, 104, 105, 106, 107, 108, 109, 110, 111, 112, 113, 114, 115, 116, 117, 118, 119, 120, 121, 122, 123, 124, 125, 126, 127, 128, 129, 130, 131, 132, 133, 134, 135, 136, 137, 138, 139, 140, 141, 142, 143, 144, 145, 146, 147, 148, 149, 150, 151, 152, 153, 154, 155, 156, 157, 158, 159, 160, 161, 162, 163, 164, 165, 166, 167, 168, 169, 170, 171, 172, 173, 174, 175, 176, 177, 178, 179, 180, 181, 182, 183, 184, 185, 186, 187, 188, 189, 190, 191, 192, 193, 194, 195, 196, 197, 198, 199, 200, 201, 202, 203, 204, 205, 206, 207, 208, 209, 210, 211, 212, 213, 214, 215, 216, 217, 218, 219, 220, 221, 222, 223, 224, 225, 226, 227, 228, 229, 230, 231, 232, 233, 234, 235, 236, 237, 238, 239, 240, 241, 242, 243, 244, 245, 246, 247, 248, 249, 250, 251, 252, 253, 254, 255, 256, 257, 258, 259, 260, 261, 262, 263, 264, 265, 266, 267, 268, 269, 270, 271, 272, 273, 274, 275, 276, 277, 278, 279, 280],
      "AcquisitionTime": ["181915.360000", "181916.610000", "181917.860000", "181919.110000", "181920.360000", "181921.610000", "181922.860000", "181924.110000", "181925.360000", "181926.610000", "181927.860000", "181929.110000", "181930.360000", "181931.610000", "181932.860000", "181934.110000", "181935.360000", "181936.610000", "181937.860000", "181939.110000", "181940.360000", "181941.610000", "181942.860000", "181944.110000", "181945.360000", "181946.610000", "181947.860000", "181949.110000", "181950.360000", "181951.610000", "181952.860000", "181954.110000", "181955.360000", "181956.610000", "181957.860000", "181959.110000", "182000.360000", "182001.610000", "182002.860000", "182004.110000", "182005.360000", "182006.610000", "182007.860000", "182009.110000", "182010.360000", "182011.610000", "182012.860000", "182014.110000", "182015.360000", "182016.610000", "182017.860000", "182019.110000", "182020.360000", "182021.610000", "182022.860000", "182024.110000", "182025.360000", "182026.610000", "182027.860000", "182029.110000", "182030.360000", "182031.610000", "182032.860000", "182034.110000", "182035.360000", "182036.610000", "182037.860000", "182039.110000", "182040.360000", "182041.610000", "182042.860000", "182044.110000", "182045.360000", "182046.610000", "182047.860000", "182049.110000", "182050.360000", "182051.610000", "182052.860000", "182054.110000", "182055.360000", "182056.610000", "182057.860000", "182059.110000", "182100.360000", "182101.610000", "182102.860000", "182104.110000", "182105.360000", "182106.610000", "182107.860000", "182109.110000", "182110.360000", "182111.610000", "182112.860000", "182114.110000", "182115.360000", "182116.610000", "182117.860000", "182119.110000", "182120.360000", "182121.610000", "182122.860000", "182124.110000", "182125.360000", "182126.610000", "182127.860000", "182129.110000", "182130.360000", "182131.610000", "182132.860000", "182134.110000", "182135.360000", "182136.610000", "182137.860000", "182139.110000", "182140.360000", "182141.610000", "182142.860000", "182144.110000", "182145.360000", "182146.610000", "182147.860000", "182149.110000", "182150.360000", "182151.610000", "182152.860000", "182154.110000", "182155.360000", "182156.610000", "182157.860000", "182159.110000", "182200.360000", "182201.610000", "182202.860000", "182204.110000", "182205.360000", "182206.610000", "182207.860000", "182209.110000", "182210.360000", "182211.610000", "182212.860000", "182214.110000", "182215.360000", "182216.610000", "182217.860000", "182219.110000", "182220.360000", "182221.610000", "182222.860000", "182224.110000", "182225.360000", "182226.610000", "182227.860000", "182229.110000", "182230.360000", "182231.610000", "182232.860000", "182234.110000", "182235.360000", "182236.610000", "182237.860000", "182239.110000", "182240.360000", "182241.610000", "182242.860000", "182244.110000", "182245.360000", "182246.610000", "182247.860000", "182249.110000", "182250.360000", "182251.610000", "182252.860000", "182254.110000", "182255.360000", "182256.610000", "182257.860000", "182259.110000", "182300.360000", "182301.610000", "182302.860000", "182304.110000", "182305.360000", "182306.610000", "182307.860000", "182309.110000", "182310.360000", "182311.610000", "182312.860000", "182314.110000", "182315.360000", "182316.610000", "182317.860000", "182319.110000", "182320.360000", "182321.610000", "182322.860000", "182324.110000", "182325.360000", "182326.610000", "182327.860000", "182329.110000", "182330.360000", "182331.610000", "182332.860000", "182334.110000", "182335.360000", "182336.610000", "182337.860000", "182339.110000", "182340.360000", "182341.610000", "182342.860000", "182344.110000", "182345.360000", "182346.610000", "182347.860000", "182349.110000", "182350.360000", "182351.610000", "182352.860000", "182354.110000", "182355.360000", "182356.610000", "182357.860000", "182359.110000", "182400.360000", "182401.610000", "182402.860000", "182404.110000", "182405.360000", "182406.610000", "182407.860000", "182409.110000", "182410.360000", "182411.610000", "182412.860000", "182414.110000", "182415.360000", "182416.610000", "182417.860000", "182419.110000", "182420.360000", "182421.610000", "182422.860000", "182424.110000", "182425.360000", "182426.610000", "182427.860000", "182429.110000", "182430.360000", "182431.610000", "182432.860000", "182434.110000", "182435.360000", "182436.610000", "182437.860000", "182439.110000", "182440.360000", "182441.610000", "182442.860000", "182444.110000", "182445.360000", "182446.610000", "182447.860000", "182449.110000", "182450.360000", "182451.610000", "182452.860000", "182454.110000", "182455.360000", "182456.610000", "182457.860000", "182459.110000", "182500.360000", "182501.610000", "182502.860000", "182504.110000"],
      "ContentTime": ["181916.850000", "181917.935000", "181919.216000", "181920.416000", "181921.674000", "181922.933000", "181924.189000", "181925.500000", "181926.676000", "181927.952000", "181929.178000", "181930.427000", "181931.664000", "181932.940000", "181934.200000", "181935.420000", "181936.647000", "181937.913000", "181939.189000", "181940.413000", "181941.723000", "181942.922000", "181944.172000", "181945.418000", "181946.647000", "181947.956000", "181949.201000", "181950.486000", "181951.682000", "181952.936000", "181954.185000", "181955.418000", "181956.697000", "181957.916000", "181959.176000", "182000.433000", "182001.679000", "182002.936000", "182004.176000", "182005.410000", "182006.656000", "182007.954000", "182009.224000", "182010.415000", "182011.670000", "182012.927000", "182014.153000", "182015.486000", "182016.677000", "182017.934000", "182019.167000", "182020.422000", "182021.666000", "182022.966000", "182024.181000", "182025.464000", "182026.704000", "182027.928000", "182029.172000", "182030.411000", "182031.673000", "182032.911000", "182034.163000", "182035.425000", "182036.671000", "182037.925000", "182039.160000", "182040.440000", "182041.655000", "182042.910000", "182044.175000", "182045.412000", "182046.693000", "182047.906000", "182049.178000", "182050.423000", "182051.681000", "182052.924000", "182054.173000", "182055.418000", "182056.664000", "182057.919000", "182059.165000", "182100.438000", "182101.729000", "182102.918000", "182104.163000", "182105.409000", "182106.676000", "182107.934000", "182109.173000", "182110.422000", "182111.668000", "182112.997000", "182114.226000", "182115.434000", "182116.685000", "182117.942000", "182119.183000", "182120.426000", "182121.689000", "182122.970000", "182124.194000", "182125.454000", "182126.699000", "182127.956000", "182129.231000", "182130.448000", "182131.687000", "182132.942000", "182134.198000", "182135.416000", "182136.677000", "182137.950000", "182139.191000", "182140.432000", "182141.688000", "182142.949000", "182144.192000", "182145.436000", "182146.682000", "182147.925000", "182149.185000", "182150.426000", "182151.687000", "182152.934000", "182154.190000", "182155.463000", "182156.660000", "182157.925000", "182159.197000", "182200.434000", "182201.713000", "182202.913000", "182204.207000", "182205.416000", "182206.655000", "182207.912000", "182209.194000", "182210.455000", "182211.686000", "182212.946000", "182214.183000", "182215.429000", "182216.669000", "182217.934000", "182219.173000", "182220.434000", "182221.662000", "182222.930000", "182224.194000", "182225.421000", "182226.684000", "182227.940000", "182229.191000", "182230.428000", "182231.692000", "182232.953000", "182234.197000", "182235.427000", "182236.694000", "182237.958000", "182239.181000", "182240.443000", "182241.659000", "182242.928000", "182244.186000", "182245.443000", "182246.670000", "182247.939000", "182249.169000", "182250.432000", "182251.683000", "182252.928000", "182254.177000", "182255.436000", "182256.695000", "182257.926000", "182259.176000", "182300.430000", "182301.690000", "182302.933000", "182304.184000", "182305.438000", "182306.681000", "182307.909000", "182309.201000", "182310.454000", "182311.684000", "182312.940000", "182314.185000", "182315.431000", "182316.665000", "182317.925000", "182319.193000", "182320.420000", "182321.698000", "182322.973000", "182324.178000", "182325.405000", "182326.673000", "182327.942000", "182329.197000", "182330.455000", "182331.699000", "182332.930000", "182334.190000", "182335.457000", "182336.685000", "182337.971000", "182339.194000", "182340.439000", "182341.693000", "182342.936000", "182344.204000", "182345.443000", "182346.687000", "182347.946000", "182349.191000", "182350.416000", "182351.677000", "182352.923000", "182354.181000", "182355.447000", "182356.678000", "182357.926000", "182359.181000", "182400.459000", "182401.691000", "182402.925000", "182404.171000", "182405.424000", "182406.686000", "182407.937000", "182409.180000", "182410.432000", "182411.692000", "182412.931000", "182414.183000", "182415.420000", "182416.665000", "182417.948000", "182419.190000", "182420.459000", "182421.694000", "182422.938000", "182424.241000", "182425.434000", "182426.691000", "182427.926000", "182429.169000", "182430.469000", "182431.666000", "182432.954000", "182434.197000", "182435.433000", "182436.717000", "182437.930000", "182439.184000", "182440.423000", "182441.684000", "182442.971000", "182444.200000", "182445.455000", "182446.659000", "182447.960000", "182449.195000", "182450.415000", "182451.694000", "182452.927000", "182454.179000", "182455.433000", "182456.689000", "182457.926000", "182459.183000", "182500.423000", "182501.697000", "182502.937000", "182504.187000", "182505.473000"],
      "InstanceCreationTime": ["181916.850000", "181917.935000", "181919.216000", "181920.416000", "181921.674000", "181922.933000", "181924.189000", "181925.500000", "181926.676000", "181927.952000", "181929.178000", "181930.427000", "181931.664000", "181932.940000", "181934.200000", "181935.420000", "181936.647000", "181937.913000", "181939.189000", "181940.413000", "181941.723000", "181942.922000", "181944.172000", "181945.418000", "181946.647000", "181947.956000", "181949.201000", "181950.486000", "181951.682000", "181952.936000", "181954.185000", "181955.418000", "181956.697000", "181957.916000", "181959.176000", "182000.433000", "182001.679000", "182002.936000", "182004.176000", "182005.410000", "182006.656000", "182007.954000", "182009.224000", "182010.415000", "182011.670000", "182012.927000", "182014.153000", "182015.486000", "182016.677000", "182017.934000", "182019.167000", "182020.422000", "182021.666000", "182022.966000", "182024.181000", "182025.464000", "182026.704000", "182027.928000", "182029.172000", "182030.411000", "182031.673000", "182032.911000", "182034.163000", "182035.425000", "182036.671000", "182037.925000", "182039.160000", "182040.440000", "182041.655000", "182042.910000", "182044.175000", "182045.412000", "182046.693000", "182047.906000", "182049.178000", "182050.423000", "182051.681000", "182052.924000", "182054.173000", "182055.418000", "182056.664000", "182057.919000", "182059.165000", "182100.438000", "182101.729000", "182102.918000", "182104.163000", "182105.409000", "182106.676000", "182107.934000", "182109.173000", "182110.422000", "182111.668000", "182112.997000", "182114.226000", "182115.434000", "182116.685000", "182117.942000", "182119.183000", "182120.426000", "182121.689000", "182122.970000", "182124.194000", "182125.454000", "182126.699000", "182127.956000", "182129.231000", "182130.448000", "182131.687000", "182132.942000", "182134.198000", "182135.416000", "182136.677000", "182137.950000", "182139.191000", "182140.432000", "182141.688000", "182142.949000", "182144.192000", "182145.436000", "182146.682000", "182147.925000", "182149.185000", "182150.426000", "182151.687000", "182152.934000", "182154.190000", "182155.463000", "182156.660000", "182157.925000", "182159.197000", "182200.434000", "182201.713000", "182202.913000", "182204.207000", "182205.416000", "182206.655000", "182207.912000", "182209.194000", "182210.455000", "182211.686000", "182212.946000", "182214.183000", "182215.429000", "182216.669000", "182217.934000", "182219.173000", "182220.434000", "182221.662000", "182222.930000", "182224.194000", "182225.421000", "182226.684000", "182227.940000", "182229.191000", "182230.428000", "182231.692000", "182232.953000", "182234.197000", "182235.427000", "182236.694000", "182237.958000", "182239.181000", "182240.443000", "182241.659000", "182242.928000", "182244.186000", "182245.443000", "182246.670000", "182247.939000", "182249.169000", "182250.432000", "182251.683000", "182252.928000", "182254.177000", "182255.436000", "182256.695000", "182257.926000", "182259.176000", "182300.430000", "182301.690000", "182302.933000", "182304.184000", "182305.438000", "182306.681000", "182307.909000", "182309.201000", "182310.454000", "182311.684000", "182312.940000", "182314.185000", "182315.431000", "182316.665000", "182317.925000", "182319.193000", "182320.420000", "182321.698000", "182322.973000", "182324.178000", "182325.405000", "182326.673000", "182327.942000", "182329.197000", "182330.455000", "182331.699000", "182332.930000", "182334.190000", "182335.457000", "182336.685000", "182337.971000", "182339.194000", "182340.439000", "182341.693000", "182342.936000", "182344.204000", "182345.443000", "182346.687000", "182347.946000", "182349.191000", "182350.416000", "182351.677000", "182352.923000", "182354.181000", "182355.447000", "182356.678000", "182357.926000", "182359.181000", "182400.459000", "182401.691000", "182402.925000", "182404.171000", "182405.424000", "182406.686000", "182407.937000", "182409.180000", "182410.432000", "182411.692000", "182412.931000", "182414.183000", "182415.420000", "182416.665000", "182417.948000", "182419.190000", "182420.459000", "182421.694000", "182422.938000", "182424.241000", "182425.434000", "182426.691000", "182427.926000", "182429.169000", "182430.469000", "182431.666000", "182432.954000", "182434.197000", "182435.433000", "182436.717000", "182437.930000", "182439.184000", "182440.423000", "182441.684000", "182442.971000", "182444.200000", "182445.455000", "182446.659000", "182447.960000", "182449.195000", "182450.415000", "182451.694000", "182452.927000", "182454.179000", "182455.433000", "182456.689000", "182457.926000", "182459.183000", "182500.423000", "182501.697000", "182502.937000", "182504.187000", "182505.473000"],
      "InstanceNumber": [1, 2, 3, 4, 5, 6, 7, 8, 9, 10, 11, 12, 13, 14, 15, 16, 17, 18, 19, 20, 21, 22, 23, 24, 25, 26, 27, 28, 29, 30, 31, 32, 33, 34, 35, 36, 37, 38, 39, 40, 41, 42, 43, 44, 45, 46, 47, 48, 49, 50, 51, 52, 53, 54, 55, 56, 57, 58, 59, 60, 61, 62, 63, 64, 65, 66, 67, 68, 69, 70, 71, 72, 73, 74, 75, 76, 77, 78, 79, 80, 81, 82, 83, 84, 85, 86, 87, 88, 89, 90, 91, 92, 93, 94, 95, 96, 97, 98, 99, 100, 101, 102, 103, 104, 105, 106, 107, 108, 109, 110, 111, 112, 113, 114, 115, 116, 117, 118, 119, 120, 121, 122, 123, 124, 125, 126, 127, 128, 129, 130, 131, 132, 133, 134, 135, 136, 137, 138, 139, 140, 141, 142, 143, 144, 145, 146, 147, 148, 149, 150, 151, 152, 153, 154, 155, 156, 157, 158, 159, 160, 161, 162, 163, 164, 165, 166, 167, 168, 169, 170, 171, 172, 173, 174, 175, 176, 177, 178, 179, 180, 181, 182, 183, 184, 185, 186, 187, 188, 189, 190, 191, 192, 193, 194, 195, 196, 197, 198, 199, 200, 201, 202, 203, 204, 205, 206, 207, 208, 209, 210, 211, 212, 213, 214, 215, 216, 217, 218, 219, 220, 221, 222, 223, 224, 225, 226, 227, 228, 229, 230, 231, 232, 233, 234, 235, 236, 237, 238, 239, 240, 241, 242, 243, 244, 245, 246, 247, 248, 249, 250, 251, 252, 253, 254, 255, 256, 257, 258, 259, 260, 261, 262, 263, 264, 265, 266, 267, 268, 269, 270, 271, 272, 273, 274, 275, 276, 277, 278, 279, 280],
      "LargestImagePixelValue": [1325, 957, 960, 1055, 1048, 937, 789, 1017, 1111, 1182, 977, 838, 969, 1256, 778, 752, 812, 967, 851, 1070, 989, 1304, 1199, 885, 894, 835, 916, 1046, 1127, 987, 1079, 980, 946, 881, 1144, 1103, 1155, 900, 1111, 957, 1053, 1048, 843, 851, 1072, 1172, 852, 893, 1163, 1111, 878, 807, 1120, 1249, 879, 877, 1167, 926, 887, 1019, 842, 936, 1111, 1263, 863, 955, 1109, 1071, 867, 845, 1037, 1198, 834, 932, 1131, 1017, 888, 1106, 1222, 814, 931, 1120, 1469, 829, 847, 1026, 868, 927, 1071, 1156, 1083, 776, 1101, 884, 1047, 1078, 1405, 950, 935, 912, 1204, 849, 874, 1099, 1197, 787, 934, 1160, 814, 825, 1127, 1052, 868, 1034, 1120, 918, 797, 1097, 1134, 835, 1160, 1266, 963, 908, 1055, 1111, 873, 933, 1006, 1085, 965, 937, 1112, 834, 980, 1059, 1048, 851, 989, 1059, 799, 992, 1181, 915, 1014, 1159, 998, 1101, 861, 886, 1205, 959, 1032, 1170, 1001, 861, 1048, 1190, 798, 923, 1011, 1142, 806, 907, 1131, 834, 905, 1090, 1056, 816, 1155, 937, 912, 1157, 1256, 911, 939, 1052, 1053, 1046, 877, 876, 1052, 909, 870, 1163, 1296, 888, 995, 1034, 1118, 845, 849, 1158, 853, 953, 1177, 1180, 1275, 1101, 935, 862, 1057, 790, 978, 1144, 1126, 950, 1101, 1249, 1054, 1001, 793, 919, 1244, 975, 1087, 862, 1039, 1093, 1005, 947, 1016, 1228, 830, 914, 1382, 849, 925, 977, 1039, 1031, 953, 988, 1019, 917, 951, 1189, 887, 914, 1292, 940, 847, 1199, 919, 994, 1173, 954, 935, 962, 1292, 824, 916, 1151, 1325, 826, 887, 987, 1121, 857, 1039, 1175, 827, 1028, 1215, 1027, 1121, 898, 871, 948, 1157, 1097, 865, 954, 938, 994, 1044, 968, 951, 929],
      "WindowCenter": [383.0, 378.0, 378.0, 379.0, 379.0, 377.0, 376.0, 378.0, 379.0, 379.0, 377.0, 376.0, 377.0, 380.0, 376.0, 376.0, 378.0, 380.0, 380.0, 382.0, 380.0, 381.0, 381.0, 377.0, 378.0, 378.0, 380.0, 379.0, 381.0, 380.0, 380.0, 379.0, 379.0, 379.0, 381.0, 380.0, 380.0, 378.0, 379.0, 377.0, 378.0, 378.0, 377.0, 377.0, 379.0, 380.0, 377.0, 377.0, 379.0, 378.0, 376.0, 375.0, 378.0, 379.0, 376.0, 376.0, 379.0, 376.0, 376.0, 378.0, 377.0, 378.0, 379.0, 380.0, 376.0, 377.0, 378.0, 377.0, 376.0, 376.0, 379.0, 380.0, 376.0, 378.0, 379.0, 378.0, 377.0, 378.0, 380.0, 376.0, 377.0, 378.0, 381.0, 375.0, 376.0, 379.0, 377.0, 378.0, 379.0, 380.0, 379.0, 375.0, 379.0, 378.0, 379.0, 379.0, 381.0, 377.0, 376.0, 376.0, 379.0, 376.0, 377.0, 379.0, 380.0, 375.0, 377.0, 378.0, 376.0, 376.0, 379.0, 379.0, 376.0, 379.0, 379.0, 377.0, 377.0, 381.0, 381.0, 377.0, 380.0, 380.0, 377.0, 376.0, 377.0, 378.0, 376.0, 377.0, 377.0, 379.0, 378.0, 378.0, 379.0, 376.0, 378.0, 378.0, 378.0, 377.0, 379.0, 379.0, 377.0, 380.0, 380.0, 378.0, 378.0, 379.0, 377.0, 378.0, 376.0, 376.0, 380.0, 378.0, 379.0, 380.0, 378.0, 375.0, 377.0, 379.0, 376.0, 377.0, 378.0, 379.0, 376.0, 377.0, 379.0, 377.0, 377.0, 378.0, 379.0, 377.0, 381.0, 378.0, 378.0, 379.0, 380.0, 376.0, 377.0, 378.0, 378.0, 377.0, 377.0, 377.0, 379.0, 378.0, 378.0, 380.0, 381.0, 376.0, 377.0, 377.0, 378.0, 376.0, 377.0, 381.0, 378.0, 378.0, 380.0, 379.0, 379.0, 378.0, 377.0, 376.0, 379.0, 377.0, 379.0, 380.0, 379.0, 377.0, 378.0, 379.0, 378.0, 377.0, 376.0, 378.0, 381.0, 378.0, 379.0, 378.0, 379.0, 378.0, 377.0, 377.0, 378.0, 380.0, 377.0, 378.0, 382.0, 377.0, 378.0, 379.0, 379.0, 379.0, 379.0, 379.0, 379.0, 378.0, 378.0, 380.0, 377.0, 378.0, 381.0, 377.0, 376.0, 380.0, 378.0, 378.0, 379.0, 377.0, 377.0, 378.0, 381.0, 377.0, 378.0, 381.0, 381.0, 376.0, 377.0, 377.0, 379.0, 378.0, 380.0, 381.0, 377.0, 378.0, 379.0, 377.0, 378.0, 376.0, 377.0, 378.0, 380.0, 379.0, 376.0, 377.0, 377.0, 377.0, 378.0, 377.0, 377.0, 378.0],
      "WindowWidth": [814.0, 806.0, 806.0, 806.0, 806.0, 805.0, 803.0, 805.0, 806.0, 806.0, 804.0, 802.0, 804.0, 807.0, 802.0, 803.0, 806.0, 810.0, 810.0, 812.0, 809.0, 810.0, 809.0, 804.0, 806.0, 806.0, 808.0, 808.0, 811.0, 808.0, 809.0, 806.0, 807.0, 808.0, 811.0, 809.0, 809.0, 805.0, 807.0, 804.0, 805.0, 806.0, 804.0, 803.0, 807.0, 808.0, 804.0, 804.0, 807.0, 806.0, 802.0, 801.0, 805.0, 807.0, 802.0, 802.0, 806.0, 803.0, 802.0, 804.0, 804.0, 806.0, 807.0, 808.0, 802.0, 803.0, 804.0, 803.0, 802.0, 803.0, 806.0, 807.0, 803.0, 805.0, 807.0, 805.0, 803.0, 805.0, 808.0, 802.0, 804.0, 805.0, 809.0, 801.0, 802.0, 806.0, 804.0, 805.0, 807.0, 808.0, 806.0, 801.0, 807.0, 805.0, 807.0, 806.0, 809.0, 804.0, 802.0, 802.0, 806.0, 803.0, 804.0, 807.0, 807.0, 801.0, 803.0, 805.0, 802.0, 802.0, 806.0, 806.0, 803.0, 806.0, 807.0, 804.0, 804.0, 809.0, 810.0, 805.0, 808.0, 809.0, 803.0, 802.0, 803.0, 804.0, 802.0, 804.0, 804.0, 806.0, 805.0, 804.0, 806.0, 803.0, 806.0, 805.0, 805.0, 804.0, 807.0, 807.0, 805.0, 808.0, 809.0, 805.0, 806.0, 807.0, 803.0, 804.0, 802.0, 802.0, 807.0, 806.0, 806.0, 808.0, 804.0, 801.0, 803.0, 806.0, 802.0, 803.0, 805.0, 807.0, 802.0, 804.0, 807.0, 803.0, 803.0, 805.0, 806.0, 803.0, 809.0, 806.0, 805.0, 806.0, 808.0, 802.0, 803.0, 805.0, 804.0, 804.0, 804.0, 804.0, 807.0, 806.0, 805.0, 808.0, 809.0, 803.0, 804.0, 804.0, 805.0, 802.0, 804.0, 810.0, 806.0, 806.0, 808.0, 806.0, 806.0, 805.0, 803.0, 803.0, 806.0, 804.0, 807.0, 808.0, 807.0, 804.0, 805.0, 805.0, 804.0, 804.0, 802.0, 805.0, 810.0, 806.0, 807.0, 805.0, 806.0, 805.0, 804.0, 803.0, 805.0, 807.0, 804.0, 806.0, 812.0, 805.0, 806.0, 807.0, 807.0, 807.0, 807.0, 807.0, 806.0, 806.0, 806.0, 808.0, 804.0, 805.0, 810.0, 804.0, 803.0, 809.0, 806.0, 805.0, 807.0, 804.0, 803.0, 805.0, 809.0, 805.0, 806.0, 809.0, 809.0, 802.0, 804.0, 804.0, 807.0, 805.0, 809.0, 810.0, 804.0, 806.0, 807.0, 804.0, 805.0, 802.0, 803.0, 805.0, 808.0, 806.0, 803.0, 803.0, 803.0, 804.0, 804.0, 804.0, 804.0, 804.0]
    },
    "slices": {}
  }
}