{
  "AcquisitionMatrixPE": 96,
  "AcquisitionNumber": 1,
  "AcquisitionTime": "10:41:13.307500",
  "BandwidthPerPixelPhaseEncode": 18.939,
  "BaseResolution": 96,
  "BodyPartExamined": "BRAIN",
  "ConsistencyInfo": "N4_VE11C_LATEST_20160120",
  "ConversionSoftware": "dcm2niix",
  "ConversionSoftwareVersion": "v1.0.20170923 (OpenJPEG build) GCC6.3.0",
  "DerivedVendorReportedEchoSpacing": 0.000550011,
  "DeviceSerialNumber": "66112",
  "DwellTime": 2.3e-06,
  "EchoTime": 0.033,
  "EchoTrainLength": 96,
  "EffectiveEchoSpacing": 0.000550011,
  "FlipAngle": 64,
  "ImageType": [
    "ORIGINAL",
    "PRIMARY",
    "FMRI",
    "NONE",
    "ND",
    "NORM",
    "MOSAIC"
],
  "InstitutionAddress": "Maynard_3_Hanover_NH_US_03755",
  "InstitutionName": "Dartmouth_College_-_PBS",
  "MagneticFieldStrength": 3,
  "Manufacturer": "Siemens",
  "ManufacturersModelName": "Prisma",
  "Modality": "MR",
  "MultibandAccelerationFactor": 4,
  "PartialFourier": 1,
  "PercentPhaseFOV": 100,
  "PhaseEncodingDirection": "j-",
  "PhaseEncodingSteps": 96,
  "PhaseResolution": 1,
  "ProcedureStepDescription": "Gobbini_Matteo_1017_famface-angles",
  "ProtocolName": "func_run-05_task-str1back",
  "PulseSequenceDetails": "%SiemensSeq%_ep2d_bold",
  "ReceiveCoilActiveElements": "HEA;HEP",
  "ReceiveCoilName": "Head_32",
  "ReconMatrixPE": 96,
  "RepetitionTime": 1.25,
  "ScanOptions": "FS",
  "ScanningSequence": "EP",
  "SequenceName": "_epfid2d1_96",
  "SequenceVariant": "SK",
  "SeriesDescription": "func_run-05_task-str1back",
  "SliceTiming": [0.8775, 0, 0.615, 0.0875, 0.7025, 0.175, 0.79, 0.35, 0.965, 0.4375, 1.0525, 0.525, 1.14, 0.2625, 0.8775, 0, 0.615, 0.0875, 0.7025, 0.175, 0.79, 0.35, 0.965, 0.4375, 1.0525, 0.525, 1.14, 0.2625, 0.8775, 0, 0.615, 0.0875, 0.7025, 0.175, 0.79, 0.35, 0.965, 0.4375, 1.0525, 0.525, 1.14, 0.2625, 0.8775, 0, 0.615, 0.0875, 0.7025, 0.175, 0.79, 0.35, 0.965, 0.4375, 1.0525, 0.525, 1.14, 0.2625],
  "SoftwareVersions": "syngo_MR_E11",
  "StationName": "AWP66112",
  "TaskName": "str1back",
  "TotalReadoutTime": 0.0522511,
  "dcmmeta_affine": [
    [-2.4954535961151123, -0.07406338304281235, 0.13124586641788483, 122.51382446289062],
    [-0.06766194105148315, 2.496100664138794, 0.12207943946123123, -98.80907440185547],
    [0.13465780019760132, -0.11830529570579529, 2.4935660362243652, -93.82156372070312],
    [0.0, 0.0, 0.0, 1.0]
],
  "dcmmeta_reorient_transform": [
    [0.0, -1.0, 0.0, 95.0],
    [1.0, 0.0, 0.0, 0.0],
    [0.0, 0.0, 1.0, 0.0],
    [0.0, 0.0, 0.0, 1.0]
],
  "dcmmeta_shape": [96, 96, 56, 280],
  "dcmmeta_slice_dim": 2,
  "dcmmeta_version": 0.6,
  "global": {
    "const": {
      "AccessionNumber": "A000624",
      "AcquisitionMatrix": [96, 0, 0, 96],
      "AngioFlag": "N",
      "BitsAllocated": 16,
      "BitsStored": 12,
      "BodyPartExamined": "BRAIN",
      "Columns": 768,
      "EchoNumbers": 1,
      "EchoTime": 33.0,
      "EchoTrainLength": 96,
      "FlipAngle": 64.0,
      "HighBit": 11,
      "ImageOrientationPatient": [0.99818147759794, 0.02706477677212, 0.0538631194666, -0.0296253540625, 0.99844026137768, 0.04732211805011],
      "ImagePositionPatient": [-929.06494921269, -999.74471859708, -190.05616297698],
      "ImageType": [
        "ORIGINAL",
        "PRIMARY",
        "FMRI",
        "NONE",
        "ND",
        "NORM",
        "MOSAIC"
],
      "ImagedNucleus": "1H",
      "ImagingFrequency": 123.252401,
      "InPlanePhaseEncodingDirection": "COL",
      "MRAcquisitionType": "2D",
      "MagneticFieldStrength": 3.0,
      "Manufacturer": "SIEMENS",
      "ManufacturerModelName": "Prisma",
      "Modality": "MR",
      "NumberOfAverages": 1.0,
      "NumberOfPhaseEncodingSteps": 96,
      "PercentPhaseFieldOfView": 100.0,
      "PercentSampling": 100.0,
      "PerformedProcedureStepStartTime": "095908.147000",
      "PhotometricInterpretation": "MONOCHROME2",
      "PixelBandwidth": 2265.0,
      "PixelRepresentation": 0,
      "PixelSpacing": [2.5, 2.5],
      "PositionReferenceIndicator": "",
      "ProtocolName": "func_run-05_task-str1back",
      "RepetitionTime": 1250.0,
      "Rows": 768,
      "SAR": 0.05579240200203,
      "SamplesPerPixel": 1,
      "ScanOptions": "FS",
      "ScanningSequence": "EP",
      "SequenceName": "*epfid2d1_96",
      "SequenceVariant": "SK",
      "SeriesDescription": "func_run-05_task-str1back",
      "SeriesNumber": 36,
      "SeriesTime": "104115.174000",
      "SliceLocation": -91.973348800746,
      "SliceThickness": 2.5,
      "SmallestImagePixelValue": 0,
      "SoftwareVersions": "syngo MR E11",
      "SpacingBetweenSlices": 2.4999999763145,
      "SpecificCharacterSet": "ISO_IR 100",
      "StudyID": "2",
      "StudyTime": "095908.099000",
      "TransmitCoilName": "Body",
      "VariableFlipAngleFlag": "N",
      "WindowCenterWidthExplanation": "Algo1",
      "dBdt": 0.0},
    "slices": {}
  },
  "time": {
    "samples": {
      "AcquisitionNumber": [1, 2, 3, 4, 5, 6, 7, 8, 9, 10, 11, 12, 13, 14, 15, 16, 17, 18, 19, 20, 21, 22, 23, 24, 25, 26, 27, 28, 29, 30, 31, 32, 33, 34, 35, 36, 37, 38, 39, 40, 41, 42, 43, 44, 45, 46, 47, 48, 49, 50, 51, 52, 53, 54, 55, 56, 57, 58, 59, 60, 61, 62, 63, 64, 65, 66, 67, 68, 69, 70, 71, 72, 73, 74, 75, 76, 77, 78, 79, 80, 81, 82, 83, 84, 85, 86, 87, 88, 89, 90, 91, 92, 93, 94, 95, 96, 97, 98, 99, 100, 101, 102, 103, 104, 105, 106, 107, 108, 109, 110, 111, 112, 113, 114, 115, 116, 117, 118, 119, 120, 121, 122, 123, 124, 125, 126, 127, 128, 129, 130, 131, 132, 133, 134, 135, 136, 137, 138, 139, 140, 141, 142, 143, 144, 145, 146, 147, 148, 149, 150, 151, 152, 153, 154, 155, 156, 157, 158, 159, 160, 161, 162, 163, 164, 165, 166, 167, 168, 169, 170, 171, 172, 173, 174, 175, 176, 177, 178, 179, 180, 181, 182, 183, 184, 185, 186, 187, 188, 189, 190, 191, 192, 193, 194, 195, 196, 197, 198, 199, 200, 201, 202, 203, 204, 205, 206, 207, 208, 209, 210, 211, 212, 213, 214, 215, 216, 217, 218, 219, 220, 221, 222, 223, 224, 225, 226, 227, 228, 229, 230, 231, 232, 233, 234, 235, 236, 237, 238, 239, 240, 241, 242, 243, 244, 245, 246, 247, 248, 249, 250, 251, 252, 253, 254, 255, 256, 257, 258, 259, 260, 261, 262, 263, 264, 265, 266, 267, 268, 269, 270, 271, 272, 273, 274, 275, 276, 277, 278, 279, 280],
      "AcquisitionTime": ["104113.307500", "104114.557500", "104115.807500", "104117.057500", "104118.307500", "104119.557500", "104120.807500", "104122.057500", "104123.307500", "104124.557500", "104125.807500", "104127.057500", "104128.307500", "104129.557500", "104130.807500", "104132.057500", "104133.307500", "104134.557500", "104135.807500", "104137.057500", "104138.307500", "104139.557500", "104140.807500", "104142.057500", "104143.307500", "104144.557500", "104145.807500", "104147.057500", "104148.307500", "104149.557500", "104150.807500", "104152.057500", "104153.307500", "104154.557500", "104155.807500", "104157.057500", "104158.307500", "104159.557500", "104200.807500", "104202.057500", "104203.307500", "104204.557500", "104205.807500", "104207.057500", "104208.307500", "104209.557500", "104210.807500", "104212.057500", "104213.307500", "104214.557500", "104215.807500", "104217.057500", "104218.307500", "104219.557500", "104220.807500", "104222.057500", "104223.307500", "104224.557500", "104225.807500", "104227.057500", "104228.307500", "104229.557500", "104230.807500", "104232.057500", "104233.307500", "104234.557500", "104235.807500", "104237.057500", "104238.307500", "104239.557500", "104240.807500", "104242.057500", "104243.307500", "104244.557500", "104245.807500", "104247.057500", "104248.307500", "104249.557500", "104250.807500", "104252.057500", "104253.307500", "104254.557500", "104255.807500", "104257.057500", "104258.307500", "104259.557500", "104300.807500", "104302.057500", "104303.307500", "104304.557500", "104305.807500", "104307.057500", "104308.307500", "104309.557500", "104310.807500", "104312.057500", "104313.307500", "104314.557500", "104315.807500", "104317.057500", "104318.307500", "104319.557500", "104320.807500", "104322.057500", "104323.307500", "104324.557500", "104325.807500", "104327.057500", "104328.307500", "104329.557500", "104330.807500", "104332.057500", "104333.307500", "104334.557500", "104335.807500", "104337.057500", "104338.307500", "104339.557500", "104340.807500", "104342.057500", "104343.307500", "104344.557500", "104345.807500", "104347.057500", "104348.307500", "104349.557500", "104350.807500", "104352.057500", "104353.307500", "104354.557500", "104355.807500", "104357.057500", "104358.307500", "104359.557500", "104400.807500", "104402.057500", "104403.307500", "104404.557500", "104405.807500", "104407.057500", "104408.307500", "104409.557500", "104410.807500", "104412.057500", "104413.307500", "104414.557500", "104415.807500", "104417.057500", "104418.307500", "104419.557500", "104420.807500", "104422.057500", "104423.307500", "104424.557500", "104425.807500", "104427.057500", "104428.307500", "104429.557500", "104430.807500", "104432.057500", "104433.307500", "104434.557500", "104435.807500", "104437.057500", "104438.307500", "104439.557500", "104440.807500", "104442.057500", "104443.307500", "104444.557500", "104445.807500", "104447.057500", "104448.307500", "104449.557500", "104450.807500", "104452.057500", "104453.307500", "104454.557500", "104455.807500", "104457.057500", "104458.307500", "104459.557500", "104500.807500", "104502.057500", "104503.307500", "104504.557500", "104505.807500", "104507.057500", "104508.307500", "104509.557500", "104510.807500", "104512.057500", "104513.307500", "104514.557500", "104515.807500", "104517.057500", "104518.307500", "104519.557500", "104520.807500", "104522.057500", "104523.307500", "104524.557500", "104525.807500", "104527.057500", "104528.307500", "104529.557500", "104530.807500", "104532.057500", "104533.307500", "104534.557500", "104535.807500", "104537.057500", "104538.307500", "104539.557500", "104540.807500", "104542.057500", "104543.307500", "104544.557500", "104545.807500", "104547.057500", "104548.307500", "104549.557500", "104550.807500", "104552.057500", "104553.307500", "104554.557500", "104555.807500", "104557.057500", "104558.307500", "104559.557500", "104600.807500", "104602.057500", "104603.307500", "104604.557500", "104605.807500", "104607.057500", "104608.307500", "104609.557500", "104610.807500", "104612.057500", "104613.307500", "104614.557500", "104615.807500", "104617.057500", "104618.307500", "104619.557500", "104620.807500", "104622.057500", "104623.307500", "104624.557500", "104625.807500", "104627.057500", "104628.307500", "104629.557500", "104630.807500", "104632.057500", "104633.307500", "104634.557500", "104635.807500", "104637.057500", "104638.307500", "104639.557500", "104640.807500", "104642.057500", "104643.307500", "104644.557500", "104645.807500", "104647.057500", "104648.307500", "104649.557500", "104650.807500", "104652.057500", "104653.307500", "104654.557500", "104655.807500", "104657.057500", "104658.307500", "104659.557500", "104700.807500", "104702.057500"],
      "ContentTime": ["104115.178000", "104116.201000", "104117.464000", "104118.700000", "104119.964000", "104121.188000", "104122.480000", "104123.718000", "104124.959000", "104126.207000", "104127.455000", "104128.681000", "104129.959000", "104131.175000", "104132.455000", "104133.670000", "104134.983000", "104136.168000", "104137.457000", "104138.670000", "104139.943000", "104141.199000", "104142.439000", "104143.669000", "104144.952000", "104146.193000", "104147.438000", "104148.678000", "104149.984000", "104151.251000", "104152.473000", "104153.671000", "104154.932000", "104156.178000", "104157.444000", "104158.684000", "104159.932000", "104201.181000", "104202.413000", "104203.648000", "104204.940000", "104206.218000", "104207.508000", "104208.718000", "104209.939000", "104211.220000", "104212.437000", "104213.690000", "104215.020000", "104216.185000", "104217.466000", "104218.691000", "104219.939000", "104221.237000", "104222.442000", "104223.679000", "104224.907000", "104226.186000", "104227.434000", "104228.695000", "104229.895000", "104231.193000", "104232.452000", "104233.671000", "104234.931000", "104236.166000", "104237.421000", "104238.680000", "104239.969000", "104241.190000", "104242.448000", "104243.686000", "104244.968000", "104246.175000", "104247.455000", "104248.674000", "104249.938000", "104251.200000", "104252.454000", "104253.732000", "104254.944000", "104256.171000", "104257.437000", "104258.684000", "104259.933000", "104301.199000", "104302.435000", "104303.670000", "104304.940000", "104306.191000", "104307.413000", "104308.760000", "104309.928000", "104311.163000", "104312.441000", "104313.676000", "104314.938000", "104316.205000", "104317.451000", "104318.697000", "104319.959000", "104321.208000", "104322.481000", "104323.691000", "104324.951000", "104326.229000", "104327.448000", "104328.689000", "104329.944000", "104331.181000", "104332.452000", "104333.733000", "104334.978000", "104336.202000", "104337.427000", "104338.707000", "104339.926000", "104341.202000", "104342.485000", "104343.726000", "104344.941000", "104346.194000", "104347.448000", "104348.679000", "104349.954000", "104351.199000", "104352.455000", "104353.707000", "104354.950000", "104356.205000", "104357.436000", "104358.706000", "104359.969000", "104401.184000", "104402.437000", "104403.687000", "104404.939000", "104406.208000", "104407.409000", "104408.690000", "104409.943000", "104411.192000", "104412.497000", "104413.682000", "104414.953000", "104416.200000", "104417.446000", "104418.731000", "104419.959000", "104421.185000", "104422.509000", "104423.697000", "104424.934000", "104426.176000", "104427.469000", "104428.686000", "104429.936000", "104431.175000", "104432.517000", "104433.701000", "104434.959000", "104436.163000", "104437.486000", "104438.773000", "104439.967000", "104441.194000", "104442.453000", "104443.676000", "104444.944000", "104446.193000", "104447.427000", "104448.739000", "104449.959000", "104451.188000", "104452.474000", "104453.760000", "104454.975000", "104456.221000", "104457.464000", "104458.706000", "104459.988000", "104501.205000", "104502.438000", "104503.669000", "104504.954000", "104506.181000", "104507.438000", "104508.669000", "104509.941000", "104511.196000", "104512.448000", "104513.690000", "104514.945000", "104516.245000", "104517.430000", "104518.683000", "104519.947000", "104521.176000", "104522.454000", "104523.688000", "104524.988000", "104526.179000", "104527.501000", "104528.692000", "104529.954000", "104531.199000", "104532.440000", "104533.679000", "104534.943000", "104536.216000", "104537.435000", "104538.699000", "104539.946000", "104541.218000", "104542.477000", "104543.716000", "104544.932000", "104546.229000", "104547.477000", "104548.705000", "104549.923000", "104551.180000", "104552.476000", "104553.774000", "104554.943000", "104556.182000", "104557.442000", "104558.685000", "104559.963000", "104601.198000", "104602.450000", "104603.713000", "104604.950000", "104606.185000", "104607.435000", "104608.688000", "104609.936000", "104611.264000", "104612.447000", "104613.689000", "104614.935000", "104616.188000", "104617.443000", "104618.683000", "104619.939000", "104621.203000", "104622.421000", "104623.700000", "104624.922000", "104626.193000", "104627.444000", "104628.668000", "104629.945000", "104631.197000", "104632.462000", "104633.707000", "104634.907000", "104636.204000", "104637.442000", "104638.727000", "104639.957000", "104641.187000", "104642.449000", "104643.701000", "104644.937000", "104646.193000", "104647.443000", "104648.721000", "104649.953000", "104651.194000", "104652.452000", "104653.712000", "104654.943000", "104656.184000", "104657.436000", "104658.700000", "104659.943000", "104701.228000", "104702.421000", "104703.704000"],
      "InstanceCreationTime": ["104115.178000", "104116.201000", "104117.464000", "104118.700000", "104119.964000", "104121.188000", "104122.480000", "104123.718000", "104124.959000", "104126.207000", "104127.455000", "104128.681000", "104129.959000", "104131.175000", "104132.455000", "104133.670000", "104134.983000", "104136.168000", "104137.457000", "104138.670000", "104139.943000", "104141.199000", "104142.439000", "104143.669000", "104144.952000", "104146.193000", "104147.438000", "104148.678000", "104149.984000", "104151.251000", "104152.473000", "104153.671000", "104154.932000", "104156.178000", "104157.444000", "104158.684000", "104159.932000", "104201.181000", "104202.413000", "104203.648000", "104204.940000", "104206.218000", "104207.508000", "104208.718000", "104209.939000", "104211.220000", "104212.437000", "104213.690000", "104215.020000", "104216.185000", "104217.466000", "104218.691000", "104219.939000", "104221.237000", "104222.442000", "104223.679000", "104224.907000", "104226.186000", "104227.434000", "104228.695000", "104229.895000", "104231.193000", "104232.452000", "104233.671000", "104234.931000", "104236.166000", "104237.421000", "104238.680000", "104239.969000", "104241.190000", "104242.448000", "104243.686000", "104244.968000", "104246.175000", "104247.455000", "104248.674000", "104249.938000", "104251.200000", "104252.454000", "104253.732000", "104254.944000", "104256.171000", "104257.437000", "104258.684000", "104259.933000", "104301.199000", "104302.435000", "104303.670000", "104304.940000", "104306.191000", "104307.413000", "104308.760000", "104309.928000", "104311.163000", "104312.441000", "104313.676000", "104314.938000", "104316.205000", "104317.451000", "104318.697000", "104319.959000", "104321.208000", "104322.481000", "104323.691000", "104324.951000", "104326.229000", "104327.448000", "104328.689000", "104329.944000", "104331.181000", "104332.452000", "104333.733000", "104334.978000", "104336.202000", "104337.427000", "104338.707000", "104339.926000", "104341.202000", "104342.485000", "104343.726000", "104344.941000", "104346.194000", "104347.448000", "104348.679000", "104349.954000", "104351.199000", "104352.455000", "104353.707000", "104354.950000", "104356.205000", "104357.436000", "104358.706000", "104359.969000", "104401.184000", "104402.437000", "104403.687000", "104404.939000", "104406.208000", "104407.409000", "104408.690000", "104409.943000", "104411.192000", "104412.497000", "104413.682000", "104414.953000", "104416.200000", "104417.446000", "104418.731000", "104419.959000", "104421.185000", "104422.509000", "104423.697000", "104424.934000", "104426.176000", "104427.469000", "104428.686000", "104429.936000", "104431.175000", "104432.517000", "104433.701000", "104434.959000", "104436.163000", "104437.486000", "104438.773000", "104439.967000", "104441.194000", "104442.453000", "104443.676000", "104444.944000", "104446.193000", "104447.427000", "104448.739000", "104449.959000", "104451.188000", "104452.474000", "104453.760000", "104454.975000", "104456.221000", "104457.464000", "104458.706000", "104459.988000", "104501.205000", "104502.438000", "104503.669000", "104504.954000", "104506.181000", "104507.438000", "104508.669000", "104509.941000", "104511.196000", "104512.448000", "104513.690000", "104514.945000", "104516.245000", "104517.430000", "104518.683000", "104519.947000", "104521.176000", "104522.454000", "104523.688000", "104524.988000", "104526.179000", "104527.501000", "104528.692000", "104529.954000", "104531.199000", "104532.440000", "104533.679000", "104534.943000", "104536.216000", "104537.435000", "104538.699000", "104539.946000", "104541.218000", "104542.477000", "104543.716000", "104544.932000", "104546.229000", "104547.477000", "104548.705000", "104549.923000", "104551.180000", "104552.476000", "104553.774000", "104554.943000", "104556.182000", "104557.442000", "104558.685000", "104559.963000", "104601.198000", "104602.450000", "104603.713000", "104604.950000", "104606.185000", "104607.435000", "104608.688000", "104609.936000", "104611.264000", "104612.447000", "104613.689000", "104614.935000", "104616.188000", "104617.443000", "104618.683000", "104619.939000", "104621.203000", "104622.421000", "104623.700000", "104624.922000", "104626.193000", "104627.444000", "104628.668000", "104629.945000", "104631.197000", "104632.462000", "104633.707000", "104634.907000", "104636.204000", "104637.442000", "104638.727000", "104639.957000", "104641.187000", "104642.449000", "104643.701000", "104644.937000", "104646.193000", "104647.443000", "104648.721000", "104649.953000", "104651.194000", "104652.452000", "104653.712000", "104654.943000", "104656.184000", "104657.436000", "104658.700000", "104659.943000", "104701.228000", "104702.421000", "104703.704000"],
      "InstanceNumber": [1, 2, 3, 4, 5, 6, 7, 8, 9, 10, 11, 12, 13, 14, 15, 16, 17, 18, 19, 20, 21, 22, 23, 24, 25, 26, 27, 28, 29, 30, 31, 32, 33, 34, 35, 36, 37, 38, 39, 40, 41, 42, 43, 44, 45, 46, 47, 48, 49, 50, 51, 52, 53, 54, 55, 56, 57, 58, 59, 60, 61, 62, 63, 64, 65, 66, 67, 68, 69, 70, 71, 72, 73, 74, 75, 76, 77, 78, 79, 80, 81, 82, 83, 84, 85, 86, 87, 88, 89, 90, 91, 92, 93, 94, 95, 96, 97, 98, 99, 100, 101, 102, 103, 104, 105, 106, 107, 108, 109, 110, 111, 112, 113, 114, 115, 116, 117, 118, 119, 120, 121, 122, 123, 124, 125, 126, 127, 128, 129, 130, 131, 132, 133, 134, 135, 136, 137, 138, 139, 140, 141, 142, 143, 144, 145, 146, 147, 148, 149, 150, 151, 152, 153, 154, 155, 156, 157, 158, 159, 160, 161, 162, 163, 164, 165, 166, 167, 168, 169, 170, 171, 172, 173, 174, 175, 176, 177, 178, 179, 180, 181, 182, 183, 184, 185, 186, 187, 188, 189, 190, 191, 192, 193, 194, 195, 196, 197, 198, 199, 200, 201, 202, 203, 204, 205, 206, 207, 208, 209, 210, 211, 212, 213, 214, 215, 216, 217, 218, 219, 220, 221, 222, 223, 224, 225, 226, 227, 228, 229, 230, 231, 232, 233, 234, 235, 236, 237, 238, 239, 240, 241, 242, 243, 244, 245, 246, 247, 248, 249, 250, 251, 252, 253, 254, 255, 256, 257, 258, 259, 260, 261, 262, 263, 264, 265, 266, 267, 268, 269, 270, 271, 272, 273, 274, 275, 276, 277, 278, 279, 280],
      "LargestImagePixelValue": [1039, 1311, 1087, 1261, 967, 772, 809, 813, 844, 983, 1323, 1205, 941, 1229, 859, 815, 783, 812, 1128, 818, 1291, 1086, 936, 837, 891, 1332, 999, 918, 1099, 856, 866, 807, 918, 899, 798, 1053, 857, 1230, 999, 996, 1130, 815, 891, 809, 1225, 848, 922, 1150, 800, 801, 1268, 815, 784, 1156, 802, 1003, 1100, 1133, 813, 896, 793, 784, 1209, 914, 919, 1195, 1125, 856, 983, 802, 1038, 827, 905, 1265, 998, 816, 932, 798, 1269, 863, 899, 895, 804, 1125, 958, 932, 989, 1080, 1277, 1048, 962, 1216, 853, 1213, 877, 809, 1241, 779, 952, 823, 796, 913, 856, 930, 890, 994, 1315, 930, 746, 807, 816, 1033, 1008, 1295, 1233, 887, 1241, 847, 1247, 880, 862, 951, 792, 1047, 783, 971, 1215, 957, 752, 1209, 831, 987, 870, 777, 1258, 815, 879, 1091, 1113, 970, 916, 992, 1187, 1132, 760, 979, 790, 1221, 897, 818, 1071, 826, 992, 1163, 1113, 883, 1124, 818, 1288, 785, 813, 1045, 890, 1063, 1037, 1008, 1228, 914, 737, 958, 796, 1310, 957, 816, 1255, 887, 964, 876, 796, 1140, 839, 960, 796, 917, 994, 1014, 899, 1022, 1033, 1046, 814, 975, 813, 816, 923, 777, 878, 1165, 1150, 950, 1353, 777, 1012, 794, 781, 1259, 905, 850, 1133, 872, 895, 820, 818, 1285, 932, 988, 1009, 1019, 1365, 1061, 782, 1161, 889, 1243, 859, 823, 980, 772, 982, 787, 928, 1291, 956, 770, 829, 775, 1196, 1035, 924, 845, 805, 1190, 895, 949, 809, 793, 1002, 794, 1097, 899, 925, 772, 886, 1067, 1044, 1136, 1036, 859, 1143, 799, 920, 783, 796, 1238, 797, 853, 766, 773, 1072, 876, 1036, 817, 922, 1046, 959, 820, 978, 776, 811, 797],
      "WindowCenter": [376.0, 377.0, 374.0, 375.0, 373.0, 371.0, 371.0, 372.0, 372.0, 374.0, 376.0, 376.0, 372.0, 375.0, 371.0, 371.0, 371.0, 372.0, 374.0, 372.0, 376.0, 375.0, 373.0, 372.0, 372.0, 375.0, 373.0, 372.0, 374.0, 371.0, 372.0, 371.0, 373.0, 372.0, 371.0, 375.0, 372.0, 375.0, 373.0, 373.0, 374.0, 371.0, 372.0, 372.0, 376.0, 372.0, 373.0, 374.0, 370.0, 370.0, 375.0, 371.0, 371.0, 375.0, 372.0, 374.0, 374.0, 375.0, 371.0, 372.0, 371.0, 371.0, 375.0, 373.0, 373.0, 375.0, 374.0, 371.0, 373.0, 371.0, 374.0, 372.0, 373.0, 376.0, 374.0, 372.0, 373.0, 372.0, 376.0, 372.0, 373.0, 373.0, 372.0, 375.0, 374.0, 374.0, 374.0, 375.0, 376.0, 374.0, 373.0, 375.0, 372.0, 375.0, 371.0, 370.0, 375.0, 370.0, 373.0, 371.0, 371.0, 373.0, 372.0, 373.0, 373.0, 374.0, 375.0, 373.0, 370.0, 372.0, 372.0, 375.0, 374.0, 377.0, 376.0, 373.0, 376.0, 372.0, 376.0, 373.0, 373.0, 373.0, 372.0, 374.0, 371.0, 373.0, 375.0, 373.0, 371.0, 376.0, 372.0, 373.0, 372.0, 370.0, 375.0, 372.0, 373.0, 375.0, 375.0, 373.0, 373.0, 374.0, 376.0, 376.0, 371.0, 374.0, 372.0, 376.0, 373.0, 371.0, 374.0, 372.0, 374.0, 375.0, 374.0, 372.0, 374.0, 371.0, 375.0, 371.0, 372.0, 375.0, 373.0, 374.0, 373.0, 373.0, 375.0, 373.0, 370.0, 373.0, 371.0, 376.0, 373.0, 372.0, 375.0, 372.0, 373.0, 373.0, 371.0, 375.0, 372.0, 373.0, 372.0, 374.0, 375.0, 375.0, 374.0, 375.0, 375.0, 375.0, 372.0, 374.0, 372.0, 372.0, 373.0, 371.0, 373.0, 376.0, 376.0, 373.0, 376.0, 370.0, 373.0, 371.0, 371.0, 375.0, 372.0, 372.0, 374.0, 371.0, 373.0, 372.0, 372.0, 376.0, 373.0, 373.0, 374.0, 374.0, 377.0, 374.0, 371.0, 375.0, 372.0, 375.0, 372.0, 372.0, 373.0, 371.0, 373.0, 371.0, 373.0, 375.0, 373.0, 371.0, 372.0, 371.0, 375.0, 374.0, 373.0, 372.0, 372.0, 375.0, 373.0, 373.0, 371.0, 372.0, 374.0, 372.0, 374.0, 373.0, 373.0, 372.0, 374.0, 375.0, 374.0, 375.0, 374.0, 372.0, 375.0, 371.0, 372.0, 370.0, 371.0, 375.0, 370.0, 371.0, 370.0, 371.0, 374.0, 373.0, 374.0, 371.0, 372.0, 373.0, 373.0, 371.0, 373.0, 371.0, 372.0, 372.0],
      "WindowWidth": [801.0, 801.0, 797.0, 798.0, 795.0, 792.0, 793.0, 794.0, 795.0, 797.0, 800.0, 799.0, 794.0, 798.0, 793.0, 792.0, 792.0, 793.0, 797.0, 794.0, 800.0, 798.0, 795.0, 794.0, 794.0, 798.0, 794.0, 794.0, 796.0, 793.0, 793.0, 793.0, 795.0, 794.0, 793.0, 798.0, 795.0, 799.0, 796.0, 795.0, 796.0, 792.0, 794.0, 794.0, 799.0, 795.0, 795.0, 797.0, 791.0, 791.0, 798.0, 793.0, 793.0, 798.0, 794.0, 797.0, 797.0, 798.0, 793.0, 794.0, 792.0, 792.0, 798.0, 795.0, 795.0, 797.0, 797.0, 793.0, 796.0, 793.0, 797.0, 795.0, 795.0, 800.0, 797.0, 794.0, 796.0, 794.0, 800.0, 794.0, 796.0, 795.0, 794.0, 798.0, 797.0, 797.0, 797.0, 798.0, 800.0, 797.0, 796.0, 798.0, 794.0, 797.0, 792.0, 792.0, 797.0, 791.0, 795.0, 792.0, 793.0, 795.0, 794.0, 796.0, 795.0, 796.0, 798.0, 795.0, 791.0, 794.0, 795.0, 799.0, 798.0, 801.0, 800.0, 796.0, 800.0, 794.0, 800.0, 795.0, 796.0, 796.0, 794.0, 797.0, 793.0, 795.0, 798.0, 796.0, 793.0, 799.0, 794.0, 796.0, 794.0, 792.0, 799.0, 794.0, 796.0, 798.0, 798.0, 796.0, 795.0, 797.0, 799.0, 799.0, 793.0, 797.0, 794.0, 800.0, 795.0, 793.0, 797.0, 794.0, 797.0, 797.0, 797.0, 794.0, 797.0, 792.0, 798.0, 793.0, 794.0, 798.0, 795.0, 796.0, 795.0, 795.0, 797.0, 795.0, 791.0, 796.0, 793.0, 799.0, 795.0, 793.0, 798.0, 794.0, 796.0, 795.0, 793.0, 798.0, 794.0, 796.0, 794.0, 797.0, 799.0, 799.0, 797.0, 799.0, 799.0, 799.0, 795.0, 797.0, 795.0, 794.0, 795.0, 793.0, 796.0, 799.0, 800.0, 796.0, 799.0, 792.0, 795.0, 792.0, 792.0, 798.0, 793.0, 793.0, 796.0, 792.0, 795.0, 794.0, 795.0, 799.0, 796.0, 796.0, 796.0, 797.0, 800.0, 797.0, 793.0, 798.0, 795.0, 799.0, 794.0, 793.0, 796.0, 793.0, 796.0, 793.0, 795.0, 799.0, 795.0, 792.0, 794.0, 793.0, 798.0, 797.0, 795.0, 795.0, 794.0, 799.0, 795.0, 796.0, 793.0, 794.0, 797.0, 794.0, 797.0, 795.0, 796.0, 794.0, 797.0, 798.0, 798.0, 798.0, 796.0, 793.0, 797.0, 792.0, 794.0, 792.0, 792.0, 797.0, 792.0, 793.0, 792.0, 793.0, 797.0, 796.0, 797.0, 793.0, 794.0, 795.0, 795.0, 793.0, 796.0, 793.0, 794.0, 794.0]
    },
    "slices": {}
  }
}