{
  "AcquisitionMatrixPE": 96,
  "AcquisitionNumber": 1,
  "AcquisitionTime": "11:10:15.742500",
  "BandwidthPerPixelPhaseEncode": 18.939,
  "BaseResolution": 96,
  "BodyPartExamined": "BRAIN",
  "ConsistencyInfo": "N4_VE11C_LATEST_20160120",
  "ConversionSoftware": "dcm2niix",
  "ConversionSoftwareVersion": "v1.0.20170923 (OpenJPEG build) GCC6.3.0",
  "DerivedVendorReportedEchoSpacing": 0.000550011,
  "DeviceSerialNumber": "66112",
  "DwellTime": 2.3e-06,
  "EchoTime": 0.033,
  "EchoTrainLength": 96,
  "EffectiveEchoSpacing": 0.000550011,
  "FlipAngle": 64,
  "ImageType": [
    "ORIGINAL",
    "PRIMARY",
    "FMRI",
    "NONE",
    "ND",
    "NORM",
    "MOSAIC"
],
  "InstitutionAddress": "Maynard_3_Hanover_NH_US_03755",
  "InstitutionName": "Dartmouth_College_-_PBS",
  "MagneticFieldStrength": 3,
  "Manufacturer": "Siemens",
  "ManufacturersModelName": "Prisma",
  "Modality": "MR",
  "MultibandAccelerationFactor": 4,
  "PartialFourier": 1,
  "PercentPhaseFOV": 100,
  "PhaseEncodingDirection": "j-",
  "PhaseEncodingSteps": 96,
  "PhaseResolution": 1,
  "ProcedureStepDescription": "Gobbini_Matteo_1017_famface-angles",
  "ProtocolName": "func_run-09_task-fam1back",
  "PulseSequenceDetails": "%SiemensSeq%_ep2d_bold",
  "ReceiveCoilActiveElements": "HEA;HEP",
  "ReceiveCoilName": "Head_32",
  "ReconMatrixPE": 96,
  "RepetitionTime": 1.25,
  "ScanOptions": "FS",
  "ScanningSequence": "EP",
  "SequenceName": "_epfid2d1_96",
  "SequenceVariant": "SK",
  "SeriesDescription": "func_run-09_task-fam1back",
  "SliceTiming": [0.8775, 0, 0.615, 0.0875, 0.7025, 0.175, 0.79, 0.35, 0.965, 0.4375, 1.0525, 0.525, 1.14, 0.2625, 0.8775, 0, 0.615, 0.0875, 0.7025, 0.175, 0.79, 0.35, 0.965, 0.4375, 1.0525, 0.525, 1.14, 0.2625, 0.8775, 0, 0.615, 0.0875, 0.7025, 0.175, 0.79, 0.35, 0.965, 0.4375, 1.0525, 0.525, 1.14, 0.2625, 0.8775, 0, 0.615, 0.0875, 0.7025, 0.175, 0.79, 0.35, 0.965, 0.4375, 1.0525, 0.525, 1.14, 0.2625],
  "SoftwareVersions": "syngo_MR_E11",
  "StationName": "AWP66112",
  "TaskName": "fam1back",
  "TotalReadoutTime": 0.0522511,
  "dcmmeta_affine": [
    [-2.4954535961151123, -0.07406338304281235, 0.13124586641788483, 122.51382446289062],
    [-0.06766194105148315, 2.496100664138794, 0.12207943946123123, -98.80907440185547],
    [0.13465780019760132, -0.11830529570579529, 2.4935660362243652, -93.82156372070312],
    [0.0, 0.0, 0.0, 1.0]
],
  "dcmmeta_reorient_transform": [
    [0.0, -1.0, 0.0, 95.0],
    [1.0, 0.0, 0.0, 0.0],
    [0.0, 0.0, 1.0, 0.0],
    [0.0, 0.0, 0.0, 1.0]
],
  "dcmmeta_shape": [96, 96, 56, 280],
  "dcmmeta_slice_dim": 2,
  "dcmmeta_version": 0.6,
  "global": {
    "const": {
      "AccessionNumber": "A000624",
      "AcquisitionMatrix": [96, 0, 0, 96],
      "AngioFlag": "N",
      "BitsAllocated": 16,
      "BitsStored": 12,
      "BodyPartExamined": "BRAIN",
      "Columns": 768,
      "EchoNumbers": 1,
      "EchoTime": 33.0,
      "EchoTrainLength": 96,
      "FlipAngle": 64.0,
      "HighBit": 11,
      "ImageOrientationPatient": [0.99818147759794, 0.02706477677212, 0.0538631194666, -0.0296253540625, 0.99844026137768, 0.04732211805011],
      "ImagePositionPatient": [-929.06494921269, -999.74471859708, -190.05616297698],
      "ImageType": [
        "ORIGINAL",
        "PRIMARY",
        "FMRI",
        "NONE",
        "ND",
        "NORM",
        "MOSAIC"
],
      "ImagedNucleus": "1H",
      "ImagingFrequency": 123.252407,
      "InPlanePhaseEncodingDirection": "COL",
      "MRAcquisitionType": "2D",
      "MagneticFieldStrength": 3.0,
      "Manufacturer": "SIEMENS",
      "ManufacturerModelName": "Prisma",
      "Modality": "MR",
      "NumberOfAverages": 1.0,
      "NumberOfPhaseEncodingSteps": 96,
      "PercentPhaseFieldOfView": 100.0,
      "PercentSampling": 100.0,
      "PerformedProcedureStepStartTime": "095908.147000",
      "PhotometricInterpretation": "MONOCHROME2",
      "PixelBandwidth": 2265.0,
      "PixelRepresentation": 0,
      "PixelSpacing": [2.5, 2.5],
      "PositionReferenceIndicator": "",
      "ProtocolName": "func_run-09_task-fam1back",
      "RepetitionTime": 1250.0,
      "Rows": 768,
      "SAR": 0.05579240200203,
      "SamplesPerPixel": 1,
      "ScanOptions": "FS",
      "ScanningSequence": "EP",
      "SequenceName": "*epfid2d1_96",
      "SequenceVariant": "SK",
      "SeriesDescription": "func_run-09_task-fam1back",
      "SeriesNumber": 64,
      "SeriesTime": "111017.629000",
      "SliceLocation": -91.973348800746,
      "SliceThickness": 2.5,
      "SmallestImagePixelValue": 0,
      "SoftwareVersions": "syngo MR E11",
      "SpacingBetweenSlices": 2.4999999763145,
      "SpecificCharacterSet": "ISO_IR 100",
      "StudyID": "2",
      "StudyTime": "095908.099000",
      "TransmitCoilName": "Body",
      "VariableFlipAngleFlag": "N",
      "WindowCenterWidthExplanation": "Algo1",
      "dBdt": 0.0},
    "slices": {}
  },
  "time": {
    "samples": {
      "AcquisitionNumber": [1, 2, 3, 4, 5, 6, 7, 8, 9, 10, 11, 12, 13, 14, 15, 16, 17, 18, 19, 20, 21, 22, 23, 24, 25, 26, 27, 28, 29, 30, 31, 32, 33, 34, 35, 36, 37, 38, 39, 40, 41, 42, 43, 44, 45, 46, 47, 48, 49, 50, 51, 52, 53, 54, 55, 56, 57, 58, 59, 60, 61, 62, 63, 64, 65, 66, 67, 68, 69, 70, 71, 72, 73, 74, 75, 76, 77, 78, 79, 80, 81, 82, 83, 84, 85, 86, 87, 88, 89, 90, 91, 92, 93, 94, 95, 96, 97, 98, 99, 100, 101, 102, 103, 104, 105, 106, 107, 108, 109, 110, 111, 112, 113, 114, 115, 116, 117, 118, 119, 120, 121, 122, 123, 124, 125, 126, 127, 128, 129, 130, 131, 132, 133, 134, 135, 136, 137, 138, 139, 140, 141, 142, 143, 144, 145, 146, 147, 148, 149, 150, 151, 152, 153, 154, 155, 156, 157, 158, 159, 160, 161, 162, 163, 164, 165, 166, 167, 168, 169, 170, 171, 172, 173, 174, 175, 176, 177, 178, 179, 180, 181, 182, 183, 184, 185, 186, 187, 188, 189, 190, 191, 192, 193, 194, 195, 196, 197, 198, 199, 200, 201, 202, 203, 204, 205, 206, 207, 208, 209, 210, 211, 212, 213, 214, 215, 216, 217, 218, 219, 220, 221, 222, 223, 224, 225, 226, 227, 228, 229, 230, 231, 232, 233, 234, 235, 236, 237, 238, 239, 240, 241, 242, 243, 244, 245, 246, 247, 248, 249, 250, 251, 252, 253, 254, 255, 256, 257, 258, 259, 260, 261, 262, 263, 264, 265, 266, 267, 268, 269, 270, 271, 272, 273, 274, 275, 276, 277, 278, 279, 280],
      "AcquisitionTime": ["111015.742500", "111016.992500", "111018.242500", "111019.492500", "111020.742500", "111021.992500", "111023.242500", "111024.492500", "111025.742500", "111026.992500", "111028.242500", "111029.492500", "111030.742500", "111031.992500", "111033.242500", "111034.492500", "111035.742500", "111036.992500", "111038.242500", "111039.492500", "111040.742500", "111041.992500", "111043.242500", "111044.492500", "111045.742500", "111046.992500", "111048.242500", "111049.492500", "111050.742500", "111051.992500", "111053.242500", "111054.492500", "111055.742500", "111056.992500", "111058.242500", "111059.492500", "111100.742500", "111101.992500", "111103.242500", "111104.492500", "111105.742500", "111106.992500", "111108.242500", "111109.492500", "111110.742500", "111111.992500", "111113.242500", "111114.492500", "111115.742500", "111116.992500", "111118.242500", "111119.492500", "111120.742500", "111121.992500", "111123.242500", "111124.492500", "111125.742500", "111126.992500", "111128.242500", "111129.492500", "111130.742500", "111131.992500", "111133.242500", "111134.492500", "111135.742500", "111136.992500", "111138.242500", "111139.492500", "111140.742500", "111141.992500", "111143.242500", "111144.492500", "111145.742500", "111146.992500", "111148.242500", "111149.492500", "111150.742500", "111151.992500", "111153.242500", "111154.492500", "111155.742500", "111156.992500", "111158.242500", "111159.492500", "111200.742500", "111201.992500", "111203.242500", "111204.492500", "111205.742500", "111206.992500", "111208.242500", "111209.492500", "111210.742500", "111211.992500", "111213.242500", "111214.492500", "111215.742500", "111216.992500", "111218.242500", "111219.492500", "111220.742500", "111221.992500", "111223.242500", "111224.492500", "111225.742500", "111226.992500", "111228.242500", "111229.492500", "111230.742500", "111231.992500", "111233.242500", "111234.492500", "111235.742500", "111236.992500", "111238.242500", "111239.492500", "111240.742500", "111241.992500", "111243.242500", "111244.492500", "111245.742500", "111246.992500", "111248.242500", "111249.492500", "111250.742500", "111251.992500", "111253.242500", "111254.492500", "111255.742500", "111256.992500", "111258.242500", "111259.492500", "111300.742500", "111301.992500", "111303.242500", "111304.492500", "111305.742500", "111306.992500", "111308.242500", "111309.492500", "111310.742500", "111311.992500", "111313.242500", "111314.492500", "111315.742500", "111316.992500", "111318.242500", "111319.492500", "111320.742500", "111321.992500", "111323.242500", "111324.492500", "111325.742500", "111326.992500", "111328.242500", "111329.492500", "111330.742500", "111331.992500", "111333.242500", "111334.492500", "111335.742500", "111336.992500", "111338.242500", "111339.492500", "111340.742500", "111341.992500", "111343.242500", "111344.492500", "111345.742500", "111346.992500", "111348.242500", "111349.492500", "111350.742500", "111351.992500", "111353.242500", "111354.492500", "111355.742500", "111356.992500", "111358.242500", "111359.492500", "111400.742500", "111401.992500", "111403.242500", "111404.492500", "111405.742500", "111406.992500", "111408.242500", "111409.492500", "111410.742500", "111411.992500", "111413.242500", "111414.492500", "111415.742500", "111416.992500", "111418.242500", "111419.492500", "111420.742500", "111421.992500", "111423.242500", "111424.492500", "111425.742500", "111426.992500", "111428.242500", "111429.492500", "111430.742500", "111431.992500", "111433.242500", "111434.492500", "111435.742500", "111436.992500", "111438.242500", "111439.492500", "111440.742500", "111441.992500", "111443.242500", "111444.492500", "111445.742500", "111446.992500", "111448.242500", "111449.492500", "111450.742500", "111451.992500", "111453.242500", "111454.492500", "111455.742500", "111456.992500", "111458.242500", "111459.492500", "111500.742500", "111501.992500", "111503.242500", "111504.492500", "111505.742500", "111506.992500", "111508.242500", "111509.492500", "111510.742500", "111511.992500", "111513.242500", "111514.492500", "111515.742500", "111516.992500", "111518.242500", "111519.492500", "111520.742500", "111521.992500", "111523.242500", "111524.492500", "111525.742500", "111526.992500", "111528.242500", "111529.492500", "111530.742500", "111531.992500", "111533.242500", "111534.492500", "111535.742500", "111536.992500", "111538.242500", "111539.492500", "111540.742500", "111541.992500", "111543.242500", "111544.492500", "111545.742500", "111546.992500", "111548.242500", "111549.492500", "111550.742500", "111551.992500", "111553.242500", "111554.492500", "111555.742500", "111556.992500", "111558.242500", "111559.492500", "111600.742500", "111601.992500", "111603.242500", "111604.492500"],
      "ContentTime": ["111017.632000", "111018.721000", "111019.977000", "111021.255000", "111022.484000", "111023.726000", "111024.981000", "111026.222000", "111027.517000", "111028.716000", "111029.982000", "111031.208000", "111032.501000", "111033.766000", "111034.978000", "111036.255000", "111037.524000", "111038.750000", "111039.976000", "111041.265000", "111042.521000", "111043.722000", "111044.960000", "111046.238000", "111047.477000", "111048.721000", "111049.986000", "111051.215000", "111052.486000", "111053.744000", "111055.048000", "111056.219000", "111057.448000", "111058.724000", "111059.956000", "111101.239000", "111102.465000", "111103.780000", "111105.014000", "111106.238000", "111107.472000", "111108.714000", "111109.976000", "111111.282000", "111112.467000", "111113.702000", "111115.004000", "111116.264000", "111117.461000", "111118.771000", "111119.958000", "111121.207000", "111122.518000", "111123.713000", "111124.987000", "111126.226000", "111127.488000", "111128.754000", "111129.960000", "111131.198000", "111132.477000", "111133.715000", "111134.971000", "111136.210000", "111137.494000", "111138.712000", "111139.979000", "111141.213000", "111142.476000", "111143.666000", "111144.975000", "111146.235000", "111147.454000", "111148.744000", "111149.986000", "111151.238000", "111152.448000", "111153.712000", "111154.968000", "111156.233000", "111157.476000", "111158.725000", "111159.964000", "111201.226000", "111202.466000", "111203.715000", "111204.984000", "111206.218000", "111207.456000", "111208.750000", "111209.970000", "111211.249000", "111212.498000", "111213.733000", "111214.960000", "111216.304000", "111217.468000", "111218.705000", "111220.014000", "111221.233000", "111222.481000", "111223.717000", "111224.970000", "111226.214000", "111227.484000", "111228.705000", "111229.957000", "111231.252000", "111232.502000", "111233.720000", "111234.965000", "111236.252000", "111237.493000", "111238.755000", "111239.988000", "111241.240000", "111242.478000", "111243.786000", "111245.003000", "111246.299000", "111247.500000", "111248.698000", "111250.003000", "111251.257000", "111252.498000", "111253.719000", "111255.004000", "111256.231000", "111257.487000", "111258.786000", "111259.989000", "111301.252000", "111302.455000", "111303.738000", "111304.971000", "111306.229000", "111307.480000", "111308.714000", "111309.983000", "111311.223000", "111312.520000", "111313.714000", "111315.016000", "111316.250000", "111317.489000", "111318.752000", "111320.004000", "111321.226000", "111322.502000", "111323.760000", "111324.995000", "111326.227000", "111327.472000", "111328.777000", "111329.974000", "111331.220000", "111332.492000", "111333.725000", "111334.961000", "111336.202000", "111337.458000", "111338.755000", "111339.986000", "111341.232000", "111342.465000", "111343.731000", "111344.978000", "111346.215000", "111347.502000", "111348.752000", "111349.986000", "111351.232000", "111352.504000", "111353.740000", "111354.995000", "111356.256000", "111357.476000", "111358.740000", "111400.000000", "111401.228000", "111402.477000", "111403.727000", "111404.929000", "111406.231000", "111407.481000", "111408.720000", "111410.014000", "111411.279000", "111412.515000", "111413.712000", "111414.993000", "111416.212000", "111417.526000", "111418.747000", "111420.018000", "111421.251000", "111422.483000", "111423.731000", "111425.001000", "111426.216000", "111427.436000", "111428.689000", "111429.989000", "111431.236000", "111432.512000", "111433.723000", "111435.035000", "111436.232000", "111437.494000", "111438.725000", "111440.013000", "111441.234000", "111442.469000", "111443.698000", "111444.974000", "111446.229000", "111447.490000", "111448.725000", "111449.976000", "111451.230000", "111452.463000", "111453.715000", "111454.948000", "111456.223000", "111457.508000", "111458.740000", "111500.018000", "111501.268000", "111502.490000", "111503.701000", "111504.988000", "111506.250000", "111507.502000", "111508.729000", "111509.976000", "111511.221000", "111512.494000", "111513.721000", "111515.010000", "111516.227000", "111517.511000", "111518.726000", "111519.966000", "111521.203000", "111522.504000", "111523.733000", "111524.985000", "111526.253000", "111527.467000", "111528.734000", "111530.008000", "111531.191000", "111532.464000", "111533.807000", "111534.979000", "111536.275000", "111537.450000", "111538.725000", "111539.967000", "111541.219000", "111542.484000", "111543.731000", "111544.968000", "111546.250000", "111547.477000", "111548.724000", "111549.996000", "111551.240000", "111552.481000", "111553.718000", "111554.966000", "111556.246000", "111557.477000", "111558.769000", "111559.981000", "111601.242000", "111602.473000", "111603.744000", "111604.975000", "111606.284000"],
      "InstanceCreationTime": ["111017.632000", "111018.721000", "111019.977000", "111021.255000", "111022.484000", "111023.726000", "111024.981000", "111026.222000", "111027.517000", "111028.716000", "111029.982000", "111031.208000", "111032.501000", "111033.766000", "111034.978000", "111036.255000", "111037.524000", "111038.750000", "111039.976000", "111041.265000", "111042.521000", "111043.722000", "111044.960000", "111046.238000", "111047.477000", "111048.721000", "111049.986000", "111051.215000", "111052.486000", "111053.744000", "111055.048000", "111056.219000", "111057.448000", "111058.724000", "111059.956000", "111101.239000", "111102.465000", "111103.780000", "111105.014000", "111106.238000", "111107.472000", "111108.714000", "111109.976000", "111111.282000", "111112.467000", "111113.702000", "111115.004000", "111116.264000", "111117.461000", "111118.771000", "111119.958000", "111121.207000", "111122.518000", "111123.713000", "111124.987000", "111126.226000", "111127.488000", "111128.754000", "111129.960000", "111131.198000", "111132.477000", "111133.715000", "111134.971000", "111136.210000", "111137.494000", "111138.712000", "111139.979000", "111141.213000", "111142.476000", "111143.666000", "111144.975000", "111146.235000", "111147.454000", "111148.744000", "111149.986000", "111151.238000", "111152.448000", "111153.712000", "111154.968000", "111156.233000", "111157.476000", "111158.725000", "111159.964000", "111201.226000", "111202.466000", "111203.715000", "111204.984000", "111206.218000", "111207.456000", "111208.750000", "111209.970000", "111211.249000", "111212.498000", "111213.733000", "111214.960000", "111216.304000", "111217.468000", "111218.705000", "111220.014000", "111221.233000", "111222.481000", "111223.717000", "111224.970000", "111226.214000", "111227.484000", "111228.705000", "111229.957000", "111231.252000", "111232.502000", "111233.720000", "111234.965000", "111236.252000", "111237.493000", "111238.755000", "111239.988000", "111241.240000", "111242.478000", "111243.786000", "111245.003000", "111246.299000", "111247.500000", "111248.698000", "111250.003000", "111251.257000", "111252.498000", "111253.719000", "111255.004000", "111256.231000", "111257.487000", "111258.786000", "111259.989000", "111301.252000", "111302.455000", "111303.738000", "111304.971000", "111306.229000", "111307.480000", "111308.714000", "111309.983000", "111311.223000", "111312.520000", "111313.714000", "111315.016000", "111316.250000", "111317.489000", "111318.752000", "111320.004000", "111321.226000", "111322.502000", "111323.760000", "111324.995000", "111326.227000", "111327.472000", "111328.777000", "111329.974000", "111331.220000", "111332.492000", "111333.725000", "111334.961000", "111336.202000", "111337.458000", "111338.755000", "111339.986000", "111341.232000", "111342.465000", "111343.731000", "111344.978000", "111346.215000", "111347.502000", "111348.752000", "111349.986000", "111351.232000", "111352.504000", "111353.740000", "111354.995000", "111356.256000", "111357.476000", "111358.740000", "111400.000000", "111401.228000", "111402.477000", "111403.727000", "111404.929000", "111406.231000", "111407.481000", "111408.720000", "111410.014000", "111411.279000", "111412.515000", "111413.712000", "111414.993000", "111416.212000", "111417.526000", "111418.747000", "111420.018000", "111421.251000", "111422.483000", "111423.731000", "111425.001000", "111426.216000", "111427.436000", "111428.689000", "111429.989000", "111431.236000", "111432.512000", "111433.723000", "111435.035000", "111436.232000", "111437.494000", "111438.725000", "111440.013000", "111441.234000", "111442.469000", "111443.698000", "111444.974000", "111446.229000", "111447.490000", "111448.725000", "111449.976000", "111451.230000", "111452.463000", "111453.715000", "111454.948000", "111456.223000", "111457.508000", "111458.740000", "111500.018000", "111501.268000", "111502.490000", "111503.701000", "111504.988000", "111506.250000", "111507.502000", "111508.729000", "111509.976000", "111511.221000", "111512.494000", "111513.721000", "111515.010000", "111516.227000", "111517.511000", "111518.726000", "111519.966000", "111521.203000", "111522.504000", "111523.733000", "111524.985000", "111526.253000", "111527.467000", "111528.734000", "111530.008000", "111531.191000", "111532.464000", "111533.807000", "111534.979000", "111536.275000", "111537.450000", "111538.725000", "111539.967000", "111541.219000", "111542.484000", "111543.731000", "111544.968000", "111546.250000", "111547.477000", "111548.724000", "111549.996000", "111551.240000", "111552.481000", "111553.718000", "111554.966000", "111556.246000", "111557.477000", "111558.769000", "111559.981000", "111601.242000", "111602.473000", "111603.744000", "111604.975000", "111606.284000"],
      "InstanceNumber": [1, 2, 3, 4, 5, 6, 7, 8, 9, 10, 11, 12, 13, 14, 15, 16, 17, 18, 19, 20, 21, 22, 23, 24, 25, 26, 27, 28, 29, 30, 31, 32, 33, 34, 35, 36, 37, 38, 39, 40, 41, 42, 43, 44, 45, 46, 47, 48, 49, 50, 51, 52, 53, 54, 55, 56, 57, 58, 59, 60, 61, 62, 63, 64, 65, 66, 67, 68, 69, 70, 71, 72, 73, 74, 75, 76, 77, 78, 79, 80, 81, 82, 83, 84, 85, 86, 87, 88, 89, 90, 91, 92, 93, 94, 95, 96, 97, 98, 99, 100, 101, 102, 103, 104, 105, 106, 107, 108, 109, 110, 111, 112, 113, 114, 115, 116, 117, 118, 119, 120, 121, 122, 123, 124, 125, 126, 127, 128, 129, 130, 131, 132, 133, 134, 135, 136, 137, 138, 139, 140, 141, 142, 143, 144, 145, 146, 147, 148, 149, 150, 151, 152, 153, 154, 155, 156, 157, 158, 159, 160, 161, 162, 163, 164, 165, 166, 167, 168, 169, 170, 171, 172, 173, 174, 175, 176, 177, 178, 179, 180, 181, 182, 183, 184, 185, 186, 187, 188, 189, 190, 191, 192, 193, 194, 195, 196, 197, 198, 199, 200, 201, 202, 203, 204, 205, 206, 207, 208, 209, 210, 211, 212, 213, 214, 215, 216, 217, 218, 219, 220, 221, 222, 223, 224, 225, 226, 227, 228, 229, 230, 231, 232, 233, 234, 235, 236, 237, 238, 239, 240, 241, 242, 243, 244, 245, 246, 247, 248, 249, 250, 251, 252, 253, 254, 255, 256, 257, 258, 259, 260, 261, 262, 263, 264, 265, 266, 267, 268, 269, 270, 271, 272, 273, 274, 275, 276, 277, 278, 279, 280],
      "LargestImagePixelValue": [1247, 1175, 1264, 1425, 1298, 765, 835, 800, 777, 824, 774, 838, 1068, 808, 879, 782, 782, 1064, 761, 819, 1060, 748, 953, 881, 784, 953, 952, 797, 1042, 803, 790, 950, 788, 1177, 798, 897, 1215, 785, 963, 903, 838, 993, 853, 822, 918, 794, 790, 797, 785, 1203, 832, 945, 911, 874, 1018, 886, 819, 955, 806, 841, 1210, 755, 853, 1169, 793, 807, 1158, 811, 789, 1211, 779, 914, 889, 799, 909, 921, 788, 1059, 794, 835, 769, 1174, 1023, 917, 837, 858, 906, 1272, 873, 1114, 1339, 770, 804, 954, 757, 784, 991, 814, 791, 1315, 804, 829, 1433, 763, 792, 1084, 759, 834, 1110, 831, 800, 1011, 774, 820, 1293, 817, 806, 967, 790, 839, 1122, 752, 820, 769, 829, 1138, 764, 781, 1112, 785, 921, 757, 827, 1223, 773, 810, 941, 1136, 787, 868, 847, 767, 1083, 758, 902, 1083, 768, 794, 1145, 762, 769, 999, 758, 890, 766, 778, 947, 852, 780, 816, 1107, 794, 785, 756, 770, 766, 770, 875, 1049, 775, 908, 936, 819, 1012, 899, 785, 772, 781, 983, 767, 799, 907, 784, 778, 811, 837, 779, 948, 773, 797, 1091, 777, 757, 1064, 799, 771, 1052, 775, 800, 816, 754, 774, 962, 837, 783, 772, 1082, 772, 798, 850, 778, 975, 795, 822, 869, 773, 832, 1086, 787, 776, 1008, 1118, 788, 770, 894, 830, 765, 799, 889, 770, 893, 1143, 868, 775, 825, 735, 782, 972, 844, 798, 770, 967, 762, 803, 868, 965, 775, 781, 1042, 774, 823, 1188, 881, 796, 878, 1069, 767, 769, 825, 772, 780, 810, 748, 870, 1135, 779, 890, 1206, 833, 780, 936, 1214, 889, 791, 814, 782, 770, 786, 1014, 791],
      "WindowCenter": [376.0, 374.0, 372.0, 371.0, 370.0, 365.0, 366.0, 367.0, 367.0, 370.0, 370.0, 371.0, 374.0, 371.0, 372.0, 372.0, 372.0, 375.0, 371.0, 372.0, 375.0, 371.0, 373.0, 373.0, 371.0, 373.0, 373.0, 372.0, 375.0, 372.0, 372.0, 375.0, 372.0, 377.0, 373.0, 374.0, 377.0, 372.0, 374.0, 373.0, 372.0, 374.0, 372.0, 371.0, 373.0, 370.0, 371.0, 372.0, 372.0, 377.0, 373.0, 374.0, 374.0, 373.0, 374.0, 372.0, 371.0, 373.0, 371.0, 371.0, 375.0, 370.0, 372.0, 375.0, 372.0, 371.0, 375.0, 371.0, 371.0, 375.0, 372.0, 373.0, 372.0, 372.0, 373.0, 373.0, 372.0, 375.0, 373.0, 374.0, 374.0, 375.0, 375.0, 374.0, 372.0, 372.0, 373.0, 375.0, 371.0, 372.0, 373.0, 368.0, 369.0, 370.0, 369.0, 370.0, 373.0, 371.0, 371.0, 377.0, 372.0, 372.0, 377.0, 370.0, 372.0, 374.0, 371.0, 372.0, 375.0, 371.0, 371.0, 374.0, 372.0, 372.0, 377.0, 372.0, 372.0, 374.0, 372.0, 373.0, 376.0, 372.0, 372.0, 372.0, 373.0, 376.0, 372.0, 372.0, 375.0, 372.0, 374.0, 372.0, 373.0, 376.0, 371.0, 372.0, 372.0, 374.0, 370.0, 371.0, 372.0, 371.0, 374.0, 371.0, 371.0, 373.0, 370.0, 371.0, 374.0, 370.0, 371.0, 373.0, 370.0, 373.0, 371.0, 372.0, 374.0, 373.0, 372.0, 372.0, 375.0, 372.0, 372.0, 372.0, 373.0, 373.0, 373.0, 374.0, 376.0, 372.0, 374.0, 374.0, 372.0, 374.0, 372.0, 371.0, 372.0, 372.0, 374.0, 371.0, 371.0, 372.0, 371.0, 371.0, 372.0, 373.0, 372.0, 375.0, 373.0, 372.0, 375.0, 372.0, 372.0, 376.0, 372.0, 372.0, 375.0, 372.0, 372.0, 373.0, 372.0, 373.0, 375.0, 373.0, 372.0, 372.0, 375.0, 372.0, 373.0, 374.0, 373.0, 375.0, 373.0, 373.0, 373.0, 372.0, 372.0, 375.0, 372.0, 372.0, 374.0, 374.0, 370.0, 370.0, 372.0, 371.0, 371.0, 372.0, 373.0, 371.0, 373.0, 375.0, 372.0, 371.0, 372.0, 372.0, 373.0, 376.0, 373.0, 372.0, 371.0, 374.0, 372.0, 373.0, 374.0, 375.0, 372.0, 372.0, 375.0, 372.0, 372.0, 375.0, 372.0, 371.0, 373.0, 374.0, 370.0, 370.0, 371.0, 371.0, 371.0, 373.0, 372.0, 375.0, 378.0, 373.0, 374.0, 376.0, 373.0, 372.0, 373.0, 375.0, 372.0, 371.0, 371.0, 372.0, 372.0, 373.0, 376.0, 373.0],
      "WindowWidth": [801.0, 796.0, 793.0, 791.0, 788.0, 781.0, 784.0, 784.0, 786.0, 789.0, 790.0, 792.0, 796.0, 793.0, 795.0, 794.0, 794.0, 799.0, 794.0, 795.0, 798.0, 792.0, 796.0, 795.0, 793.0, 795.0, 796.0, 794.0, 798.0, 794.0, 795.0, 798.0, 795.0, 801.0, 796.0, 798.0, 801.0, 794.0, 797.0, 795.0, 795.0, 796.0, 794.0, 792.0, 795.0, 790.0, 793.0, 795.0, 795.0, 801.0, 796.0, 798.0, 797.0, 795.0, 796.0, 794.0, 793.0, 794.0, 792.0, 792.0, 798.0, 792.0, 794.0, 797.0, 793.0, 793.0, 797.0, 793.0, 793.0, 799.0, 794.0, 795.0, 793.0, 794.0, 795.0, 796.0, 794.0, 799.0, 796.0, 798.0, 798.0, 799.0, 798.0, 798.0, 795.0, 794.0, 795.0, 798.0, 792.0, 793.0, 794.0, 787.0, 788.0, 789.0, 789.0, 790.0, 795.0, 793.0, 793.0, 801.0, 794.0, 793.0, 800.0, 792.0, 794.0, 797.0, 793.0, 794.0, 798.0, 793.0, 793.0, 796.0, 794.0, 795.0, 801.0, 795.0, 795.0, 797.0, 795.0, 796.0, 799.0, 794.0, 795.0, 794.0, 796.0, 800.0, 794.0, 795.0, 799.0, 794.0, 797.0, 795.0, 796.0, 800.0, 793.0, 794.0, 794.0, 796.0, 791.0, 793.0, 794.0, 793.0, 797.0, 792.0, 791.0, 795.0, 792.0, 792.0, 797.0, 791.0, 792.0, 796.0, 792.0, 795.0, 792.0, 794.0, 797.0, 796.0, 794.0, 794.0, 799.0, 795.0, 795.0, 795.0, 797.0, 797.0, 797.0, 798.0, 800.0, 796.0, 797.0, 797.0, 794.0, 796.0, 795.0, 793.0, 794.0, 794.0, 798.0, 793.0, 793.0, 794.0, 793.0, 792.0, 794.0, 795.0, 795.0, 798.0, 796.0, 795.0, 799.0, 795.0, 795.0, 800.0, 795.0, 794.0, 798.0, 795.0, 795.0, 796.0, 795.0, 796.0, 798.0, 796.0, 795.0, 794.0, 799.0, 795.0, 796.0, 798.0, 797.0, 800.0, 796.0, 796.0, 796.0, 794.0, 795.0, 798.0, 794.0, 794.0, 796.0, 797.0, 791.0, 791.0, 793.0, 793.0, 793.0, 794.0, 796.0, 793.0, 796.0, 799.0, 794.0, 793.0, 794.0, 794.0, 796.0, 800.0, 797.0, 795.0, 793.0, 797.0, 794.0, 796.0, 798.0, 799.0, 796.0, 795.0, 799.0, 794.0, 795.0, 798.0, 795.0, 793.0, 795.0, 796.0, 791.0, 791.0, 793.0, 793.0, 793.0, 796.0, 796.0, 799.0, 803.0, 797.0, 798.0, 801.0, 796.0, 794.0, 796.0, 799.0, 794.0, 793.0, 793.0, 794.0, 795.0, 796.0, 800.0, 796.0]
    },
    "slices": {}
  }
}