{
  "AcquisitionMatrixPE": 96,
  "AcquisitionNumber": 1,
  "AcquisitionTime": "10:15:4.720000",
  "BandwidthPerPixelPhaseEncode": 18.939,
  "BaseResolution": 96,
  "BodyPartExamined": "BRAIN",
  "ConsistencyInfo": "N4_VE11C_LATEST_20160120",
  "ConversionSoftware": "dcm2niix",
  "ConversionSoftwareVersion": "v1.0.20170923 (OpenJPEG build) GCC6.3.0",
  "DerivedVendorReportedEchoSpacing": 0.000550011,
  "DeviceSerialNumber": "66112",
  "DwellTime": 2.3e-06,
  "EchoTime": 0.033,
  "EchoTrainLength": 96,
  "EffectiveEchoSpacing": 0.000550011,
  "FlipAngle": 64,
  "ImageType": [
    "ORIGINAL",
    "PRIMARY",
    "FMRI",
    "NONE",
    "ND",
    "NORM",
    "MOSAIC"
],
  "InstitutionAddress": "Maynard_3_Hanover_NH_US_03755",
  "InstitutionName": "Dartmouth_College_-_PBS",
  "MagneticFieldStrength": 3,
  "Manufacturer": "Siemens",
  "ManufacturersModelName": "Prisma",
  "Modality": "MR",
  "MultibandAccelerationFactor": 4,
  "PartialFourier": 1,
  "PercentPhaseFOV": 100,
  "PhaseEncodingDirection": "j-",
  "PhaseEncodingSteps": 96,
  "PhaseResolution": 1,
  "ProcedureStepDescription": "Gobbini_Matteo_1017_famface-angles",
  "ProtocolName": "func_run-01_task-str1back",
  "PulseSequenceDetails": "%SiemensSeq%_ep2d_bold",
  "ReceiveCoilActiveElements": "HEA;HEP",
  "ReceiveCoilName": "Head_32",
  "ReconMatrixPE": 96,
  "RepetitionTime": 1.25,
  "ScanOptions": "FS",
  "ScanningSequence": "EP",
  "SequenceName": "_epfid2d1_96",
  "SequenceVariant": "SK",
  "SeriesDescription": "func_run-01_task-str1back",
  "SliceTiming": [0.8775, 0, 0.615, 0.0875, 0.7025, 0.175, 0.79, 0.35, 0.965, 0.4375, 1.0525, 0.5275, 1.1425, 0.2625, 0.8775, 0, 0.615, 0.0875, 0.7025, 0.175, 0.79, 0.35, 0.965, 0.4375, 1.0525, 0.5275, 1.1425, 0.2625, 0.8775, 0, 0.615, 0.0875, 0.7025, 0.175, 0.79, 0.35, 0.965, 0.4375, 1.0525, 0.5275, 1.1425, 0.2625, 0.8775, 0, 0.615, 0.0875, 0.7025, 0.175, 0.79, 0.35, 0.965, 0.4375, 1.0525, 0.5275, 1.1425, 0.2625],
  "SoftwareVersions": "syngo_MR_E11",
  "StationName": "AWP66112",
  "TaskName": "str1back",
  "TotalReadoutTime": 0.0522511,
  "dcmmeta_affine": [
    [-2.4954535961151123, -0.07406338304281235, 0.13124586641788483, 122.51382446289062],
    [-0.06766194105148315, 2.496100664138794, 0.12207943946123123, -98.80907440185547],
    [0.13465780019760132, -0.11830529570579529, 2.4935660362243652, -93.82156372070312],
    [0.0, 0.0, 0.0, 1.0]
],
  "dcmmeta_reorient_transform": [
    [0.0, -1.0, 0.0, 95.0],
    [1.0, 0.0, 0.0, 0.0],
    [0.0, 0.0, 1.0, 0.0],
    [0.0, 0.0, 0.0, 1.0]
],
  "dcmmeta_shape": [96, 96, 56, 280],
  "dcmmeta_slice_dim": 2,
  "dcmmeta_version": 0.6,
  "global": {
    "const": {
      "AccessionNumber": "A000624",
      "AcquisitionMatrix": [96, 0, 0, 96],
      "AngioFlag": "N",
      "BitsAllocated": 16,
      "BitsStored": 12,
      "BodyPartExamined": "BRAIN",
      "Columns": 768,
      "EchoNumbers": 1,
      "EchoTime": 33.0,
      "EchoTrainLength": 96,
      "FlipAngle": 64.0,
      "HighBit": 11,
      "ImageOrientationPatient": [0.99818147759794, 0.02706477677212, 0.0538631194666, -0.0296253540625, 0.99844026137768, 0.04732211805011],
      "ImagePositionPatient": [-929.06494921269, -999.74471859708, -190.05616297698],
      "ImageType": [
        "ORIGINAL",
        "PRIMARY",
        "FMRI",
        "NONE",
        "ND",
        "NORM",
        "MOSAIC"
],
      "ImagedNucleus": "1H",
      "ImagingFrequency": 123.252392,
      "InPlanePhaseEncodingDirection": "COL",
      "MRAcquisitionType": "2D",
      "MagneticFieldStrength": 3.0,
      "Manufacturer": "SIEMENS",
      "ManufacturerModelName": "Prisma",
      "Modality": "MR",
      "NumberOfAverages": 1.0,
      "NumberOfPhaseEncodingSteps": 96,
      "PercentPhaseFieldOfView": 100.0,
      "PercentSampling": 100.0,
      "PerformedProcedureStepStartTime": "095908.147000",
      "PhotometricInterpretation": "MONOCHROME2",
      "PixelBandwidth": 2265.0,
      "PixelRepresentation": 0,
      "PixelSpacing": [2.5, 2.5],
      "PositionReferenceIndicator": "",
      "ProtocolName": "func_run-01_task-str1back",
      "RepetitionTime": 1250.0,
      "Rows": 768,
      "SAR": 0.05579240200203,
      "SamplesPerPixel": 1,
      "ScanOptions": "FS",
      "ScanningSequence": "EP",
      "SequenceName": "*epfid2d1_96",
      "SequenceVariant": "SK",
      "SeriesDescription": "func_run-01_task-str1back",
      "SeriesNumber": 8,
      "SeriesTime": "101506.247000",
      "SliceLocation": -91.973348800746,
      "SliceThickness": 2.5,
      "SmallestImagePixelValue": 0,
      "SoftwareVersions": "syngo MR E11",
      "SpacingBetweenSlices": 2.4999999763145,
      "SpecificCharacterSet": "ISO_IR 100",
      "StudyID": "2",
      "StudyTime": "095908.099000",
      "TransmitCoilName": "Body",
      "VariableFlipAngleFlag": "N",
      "WindowCenterWidthExplanation": "Algo1",
      "dBdt": 0.0},
    "slices": {}
  },
  "time": {
    "samples": {
      "AcquisitionNumber": [1, 2, 3, 4, 5, 6, 7, 8, 9, 10, 11, 12, 13, 14, 15, 16, 17, 18, 19, 20, 21, 22, 23, 24, 25, 26, 27, 28, 29, 30, 31, 32, 33, 34, 35, 36, 37, 38, 39, 40, 41, 42, 43, 44, 45, 46, 47, 48, 49, 50, 51, 52, 53, 54, 55, 56, 57, 58, 59, 60, 61, 62, 63, 64, 65, 66, 67, 68, 69, 70, 71, 72, 73, 74, 75, 76, 77, 78, 79, 80, 81, 82, 83, 84, 85, 86, 87, 88, 89, 90, 91, 92, 93, 94, 95, 96, 97, 98, 99, 100, 101, 102, 103, 104, 105, 106, 107, 108, 109, 110, 111, 112, 113, 114, 115, 116, 117, 118, 119, 120, 121, 122, 123, 124, 125, 126, 127, 128, 129, 130, 131, 132, 133, 134, 135, 136, 137, 138, 139, 140, 141, 142, 143, 144, 145, 146, 147, 148, 149, 150, 151, 152, 153, 154, 155, 156, 157, 158, 159, 160, 161, 162, 163, 164, 165, 166, 167, 168, 169, 170, 171, 172, 173, 174, 175, 176, 177, 178, 179, 180, 181, 182, 183, 184, 185, 186, 187, 188, 189, 190, 191, 192, 193, 194, 195, 196, 197, 198, 199, 200, 201, 202, 203, 204, 205, 206, 207, 208, 209, 210, 211, 212, 213, 214, 215, 216, 217, 218, 219, 220, 221, 222, 223, 224, 225, 226, 227, 228, 229, 230, 231, 232, 233, 234, 235, 236, 237, 238, 239, 240, 241, 242, 243, 244, 245, 246, 247, 248, 249, 250, 251, 252, 253, 254, 255, 256, 257, 258, 259, 260, 261, 262, 263, 264, 265, 266, 267, 268, 269, 270, 271, 272, 273, 274, 275, 276, 277, 278, 279, 280],
      "AcquisitionTime": ["101504.720000", "101505.970000", "101507.220000", "101508.470000", "101509.720000", "101510.970000", "101512.220000", "101513.470000", "101514.720000", "101515.970000", "101517.220000", "101518.470000", "101519.720000", "101520.970000", "101522.220000", "101523.470000", "101524.720000", "101525.970000", "101527.220000", "101528.470000", "101529.720000", "101530.970000", "101532.220000", "101533.470000", "101534.720000", "101535.970000", "101537.220000", "101538.470000", "101539.720000", "101540.970000", "101542.220000", "101543.470000", "101544.720000", "101545.970000", "101547.220000", "101548.470000", "101549.720000", "101550.970000", "101552.220000", "101553.470000", "101554.720000", "101555.970000", "101557.220000", "101558.470000", "101559.720000", "101600.970000", "101602.220000", "101603.470000", "101604.720000", "101605.970000", "101607.220000", "101608.470000", "101609.720000", "101610.970000", "101612.220000", "101613.470000", "101614.720000", "101615.970000", "101617.220000", "101618.470000", "101619.720000", "101620.970000", "101622.220000", "101623.470000", "101624.720000", "101625.970000", "101627.220000", "101628.470000", "101629.720000", "101630.970000", "101632.220000", "101633.470000", "101634.720000", "101635.970000", "101637.220000", "101638.470000", "101639.720000", "101640.970000", "101642.220000", "101643.470000", "101644.720000", "101645.970000", "101647.220000", "101648.470000", "101649.720000", "101650.970000", "101652.220000", "101653.470000", "101654.720000", "101655.970000", "101657.220000", "101658.470000", "101659.720000", "101700.970000", "101702.220000", "101703.470000", "101704.720000", "101705.970000", "101707.220000", "101708.470000", "101709.720000", "101710.970000", "101712.220000", "101713.470000", "101714.720000", "101715.970000", "101717.220000", "101718.470000", "101719.720000", "101720.970000", "101722.220000", "101723.470000", "101724.720000", "101725.970000", "101727.220000", "101728.470000", "101729.720000", "101730.970000", "101732.220000", "101733.470000", "101734.720000", "101735.970000", "101737.220000", "101738.470000", "101739.720000", "101740.970000", "101742.220000", "101743.470000", "101744.720000", "101745.970000", "101747.220000", "101748.470000", "101749.720000", "101750.970000", "101752.220000", "101753.470000", "101754.720000", "101755.970000", "101757.220000", "101758.470000", "101759.720000", "101800.970000", "101802.220000", "101803.470000", "101804.720000", "101805.970000", "101807.220000", "101808.470000", "101809.720000", "101810.970000", "101812.220000", "101813.470000", "101814.720000", "101815.970000", "101817.220000", "101818.470000", "101819.720000", "101820.970000", "101822.220000", "101823.470000", "101824.720000", "101825.970000", "101827.220000", "101828.470000", "101829.720000", "101830.970000", "101832.220000", "101833.470000", "101834.720000", "101835.970000", "101837.220000", "101838.470000", "101839.720000", "101840.970000", "101842.220000", "101843.470000", "101844.720000", "101845.970000", "101847.220000", "101848.470000", "101849.720000", "101850.970000", "101852.220000", "101853.470000", "101854.720000", "101855.970000", "101857.220000", "101858.470000", "101859.720000", "101900.970000", "101902.220000", "101903.470000", "101904.720000", "101905.970000", "101907.220000", "101908.470000", "101909.720000", "101910.970000", "101912.220000", "101913.470000", "101914.720000", "101915.970000", "101917.220000", "101918.470000", "101919.720000", "101920.970000", "101922.220000", "101923.470000", "101924.720000", "101925.970000", "101927.220000", "101928.470000", "101929.720000", "101930.970000", "101932.220000", "101933.470000", "101934.720000", "101935.970000", "101937.220000", "101938.470000", "101939.720000", "101940.970000", "101942.220000", "101943.470000", "101944.720000", "101945.970000", "101947.220000", "101948.470000", "101949.720000", "101950.970000", "101952.220000", "101953.470000", "101954.720000", "101955.970000", "101957.220000", "101958.470000", "101959.720000", "102000.970000", "102002.220000", "102003.470000", "102004.720000", "102005.970000", "102007.220000", "102008.470000", "102009.720000", "102010.970000", "102012.220000", "102013.470000", "102014.720000", "102015.970000", "102017.220000", "102018.470000", "102019.720000", "102020.970000", "102022.220000", "102023.470000", "102024.720000", "102025.970000", "102027.220000", "102028.470000", "102029.720000", "102030.970000", "102032.220000", "102033.470000", "102034.720000", "102035.970000", "102037.220000", "102038.470000", "102039.720000", "102040.970000", "102042.220000", "102043.470000", "102044.720000", "102045.970000", "102047.220000", "102048.470000", "102049.720000", "102050.970000", "102052.220000", "102053.470000"],
      "ContentTime": ["101506.253000", "101507.369000", "101508.575000", "101509.824000", "101511.098000", "101512.325000", "101513.616000", "101514.828000", "101516.095000", "101517.374000", "101518.560000", "101519.838000", "101521.057000", "101522.336000", "101523.566000", "101524.825000", "101526.073000", "101527.349000", "101528.623000", "101529.834000", "101531.170000", "101532.337000", "101533.590000", "101534.819000", "101536.129000", "101537.352000", "101538.618000", "101539.843000", "101541.079000", "101542.319000", "101543.580000", "101544.826000", "101546.121000", "101547.371000", "101548.573000", "101549.840000", "101551.069000", "101552.355000", "101553.595000", "101554.839000", "101556.077000", "101557.369000", "101558.577000", "101559.817000", "101601.083000", "101602.321000", "101603.579000", "101604.832000", "101606.089000", "101607.336000", "101608.616000", "101609.831000", "101611.055000", "101612.325000", "101613.591000", "101614.886000", "101616.085000", "101617.372000", "101618.635000", "101619.841000", "101621.069000", "101622.342000", "101623.594000", "101624.833000", "101626.069000", "101627.363000", "101628.560000", "101629.824000", "101631.101000", "101632.340000", "101633.598000", "101634.858000", "101636.086000", "101637.350000", "101638.587000", "101639.835000", "101641.046000", "101642.340000", "101643.593000", "101644.834000", "101646.080000", "101647.333000", "101648.587000", "101649.829000", "101651.061000", "101652.337000", "101653.594000", "101654.826000", "101656.103000", "101657.314000", "101658.584000", "101659.847000", "101701.084000", "101702.319000", "101703.574000", "101704.806000", "101706.025000", "101707.323000", "101708.550000", "101709.873000", "101711.068000", "101712.353000", "101713.576000", "101714.849000", "101716.076000", "101717.346000", "101718.575000", "101719.822000", "101721.076000", "101722.339000", "101723.571000", "101724.838000", "101726.125000", "101727.358000", "101728.586000", "101729.845000", "101731.073000", "101732.352000", "101733.576000", "101734.830000", "101736.100000", "101737.382000", "101738.555000", "101739.844000", "101741.078000", "101742.375000", "101743.680000", "101744.828000", "101746.045000", "101747.384000", "101748.554000", "101749.832000", "101751.086000", "101752.323000", "101753.599000", "101754.876000", "101756.118000", "101757.332000", "101758.588000", "101759.844000", "101801.122000", "101802.337000", "101803.580000", "101804.841000", "101806.079000", "101807.319000", "101808.617000", "101809.844000", "101811.091000", "101812.339000", "101813.586000", "101814.811000", "101816.135000", "101817.343000", "101818.588000", "101819.820000", "101821.086000", "101822.302000", "101823.588000", "101824.834000", "101826.044000", "101827.413000", "101828.560000", "101829.857000", "101831.081000", "101832.333000", "101833.566000", "101834.859000", "101836.100000", "101837.348000", "101838.558000", "101839.836000", "101841.041000", "101842.372000", "101843.589000", "101844.861000", "101846.085000", "101847.366000", "101848.596000", "101849.867000", "101851.104000", "101852.326000", "101853.579000", "101854.816000", "101856.088000", "101857.357000", "101858.578000", "101859.835000", "101901.127000", "101902.360000", "101903.576000", "101904.810000", "101906.072000", "101907.340000", "101908.601000", "101909.836000", "101911.088000", "101912.362000", "101913.589000", "101914.829000", "101916.099000", "101917.360000", "101918.587000", "101919.873000", "101921.089000", "101922.341000", "101923.610000", "101924.838000", "101926.136000", "101927.350000", "101928.610000", "101929.911000", "101931.087000", "101932.342000", "101933.594000", "101934.808000", "101936.094000", "101937.310000", "101938.641000", "101939.820000", "101941.078000", "101942.339000", "101943.572000", "101944.824000", "101946.090000", "101947.340000", "101948.590000", "101949.829000", "101951.068000", "101952.338000", "101953.619000", "101954.874000", "101956.119000", "101957.355000", "101958.583000", "101959.835000", "102001.119000", "102002.339000", "102003.625000", "102004.829000", "102006.094000", "102007.356000", "102008.595000", "102009.851000", "102011.068000", "102012.332000", "102013.580000", "102014.853000", "102016.085000", "102017.339000", "102018.604000", "102019.809000", "102021.105000", "102022.317000", "102023.627000", "102024.852000", "102026.135000", "102027.334000", "102028.619000", "102029.875000", "102031.088000", "102032.338000", "102033.679000", "102034.823000", "102036.086000", "102037.372000", "102038.590000", "102039.829000", "102041.109000", "102042.350000", "102043.600000", "102044.845000", "102046.082000", "102047.407000", "102048.625000", "102049.812000", "102051.066000", "102052.352000", "102053.573000", "102054.887000"],
      "InstanceCreationTime": ["101506.253000", "101507.369000", "101508.575000", "101509.824000", "101511.098000", "101512.325000", "101513.616000", "101514.828000", "101516.095000", "101517.374000", "101518.560000", "101519.838000", "101521.057000", "101522.336000", "101523.566000", "101524.825000", "101526.073000", "101527.349000", "101528.623000", "101529.834000", "101531.170000", "101532.337000", "101533.590000", "101534.819000", "101536.129000", "101537.352000", "101538.618000", "101539.843000", "101541.079000", "101542.319000", "101543.580000", "101544.826000", "101546.121000", "101547.371000", "101548.573000", "101549.840000", "101551.069000", "101552.355000", "101553.595000", "101554.839000", "101556.077000", "101557.369000", "101558.577000", "101559.817000", "101601.083000", "101602.321000", "101603.579000", "101604.832000", "101606.089000", "101607.336000", "101608.616000", "101609.831000", "101611.055000", "101612.325000", "101613.591000", "101614.886000", "101616.085000", "101617.372000", "101618.635000", "101619.841000", "101621.069000", "101622.342000", "101623.594000", "101624.833000", "101626.069000", "101627.363000", "101628.560000", "101629.824000", "101631.101000", "101632.340000", "101633.598000", "101634.858000", "101636.086000", "101637.350000", "101638.587000", "101639.835000", "101641.046000", "101642.340000", "101643.593000", "101644.834000", "101646.080000", "101647.333000", "101648.587000", "101649.829000", "101651.061000", "101652.337000", "101653.594000", "101654.826000", "101656.103000", "101657.314000", "101658.584000", "101659.847000", "101701.084000", "101702.319000", "101703.574000", "101704.806000", "101706.025000", "101707.323000", "101708.550000", "101709.873000", "101711.068000", "101712.353000", "101713.576000", "101714.849000", "101716.076000", "101717.346000", "101718.575000", "101719.822000", "101721.076000", "101722.339000", "101723.571000", "101724.838000", "101726.125000", "101727.358000", "101728.586000", "101729.845000", "101731.073000", "101732.352000", "101733.576000", "101734.830000", "101736.100000", "101737.382000", "101738.555000", "101739.844000", "101741.078000", "101742.375000", "101743.680000", "101744.828000", "101746.045000", "101747.384000", "101748.554000", "101749.832000", "101751.086000", "101752.323000", "101753.599000", "101754.876000", "101756.118000", "101757.332000", "101758.588000", "101759.844000", "101801.122000", "101802.337000", "101803.580000", "101804.841000", "101806.079000", "101807.319000", "101808.617000", "101809.844000", "101811.091000", "101812.339000", "101813.586000", "101814.811000", "101816.135000", "101817.343000", "101818.588000", "101819.820000", "101821.086000", "101822.302000", "101823.588000", "101824.834000", "101826.044000", "101827.413000", "101828.560000", "101829.857000", "101831.081000", "101832.333000", "101833.566000", "101834.859000", "101836.100000", "101837.348000", "101838.558000", "101839.836000", "101841.041000", "101842.372000", "101843.589000", "101844.861000", "101846.085000", "101847.366000", "101848.596000", "101849.867000", "101851.104000", "101852.326000", "101853.579000", "101854.816000", "101856.088000", "101857.357000", "101858.578000", "101859.835000", "101901.127000", "101902.360000", "101903.576000", "101904.810000", "101906.072000", "101907.340000", "101908.601000", "101909.836000", "101911.088000", "101912.362000", "101913.589000", "101914.829000", "101916.099000", "101917.360000", "101918.587000", "101919.873000", "101921.089000", "101922.341000", "101923.610000", "101924.838000", "101926.136000", "101927.350000", "101928.610000", "101929.911000", "101931.087000", "101932.342000", "101933.594000", "101934.808000", "101936.094000", "101937.310000", "101938.641000", "101939.820000", "101941.078000", "101942.339000", "101943.572000", "101944.824000", "101946.090000", "101947.340000", "101948.590000", "101949.829000", "101951.068000", "101952.338000", "101953.619000", "101954.874000", "101956.119000", "101957.355000", "101958.583000", "101959.835000", "102001.119000", "102002.339000", "102003.625000", "102004.829000", "102006.094000", "102007.356000", "102008.595000", "102009.851000", "102011.068000", "102012.332000", "102013.580000", "102014.853000", "102016.085000", "102017.339000", "102018.604000", "102019.809000", "102021.105000", "102022.317000", "102023.627000", "102024.852000", "102026.135000", "102027.334000", "102028.619000", "102029.875000", "102031.088000", "102032.338000", "102033.679000", "102034.823000", "102036.086000", "102037.372000", "102038.590000", "102039.829000", "102041.109000", "102042.350000", "102043.600000", "102044.845000", "102046.082000", "102047.407000", "102048.625000", "102049.812000", "102051.066000", "102052.352000", "102053.573000", "102054.887000"],
      "InstanceNumber": [1, 2, 3, 4, 5, 6, 7, 8, 9, 10, 11, 12, 13, 14, 15, 16, 17, 18, 19, 20, 21, 22, 23, 24, 25, 26, 27, 28, 29, 30, 31, 32, 33, 34, 35, 36, 37, 38, 39, 40, 41, 42, 43, 44, 45, 46, 47, 48, 49, 50, 51, 52, 53, 54, 55, 56, 57, 58, 59, 60, 61, 62, 63, 64, 65, 66, 67, 68, 69, 70, 71, 72, 73, 74, 75, 76, 77, 78, 79, 80, 81, 82, 83, 84, 85, 86, 87, 88, 89, 90, 91, 92, 93, 94, 95, 96, 97, 98, 99, 100, 101, 102, 103, 104, 105, 106, 107, 108, 109, 110, 111, 112, 113, 114, 115, 116, 117, 118, 119, 120, 121, 122, 123, 124, 125, 126, 127, 128, 129, 130, 131, 132, 133, 134, 135, 136, 137, 138, 139, 140, 141, 142, 143, 144, 145, 146, 147, 148, 149, 150, 151, 152, 153, 154, 155, 156, 157, 158, 159, 160, 161, 162, 163, 164, 165, 166, 167, 168, 169, 170, 171, 172, 173, 174, 175, 176, 177, 178, 179, 180, 181, 182, 183, 184, 185, 186, 187, 188, 189, 190, 191, 192, 193, 194, 195, 196, 197, 198, 199, 200, 201, 202, 203, 204, 205, 206, 207, 208, 209, 210, 211, 212, 213, 214, 215, 216, 217, 218, 219, 220, 221, 222, 223, 224, 225, 226, 227, 228, 229, 230, 231, 232, 233, 234, 235, 236, 237, 238, 239, 240, 241, 242, 243, 244, 245, 246, 247, 248, 249, 250, 251, 252, 253, 254, 255, 256, 257, 258, 259, 260, 261, 262, 263, 264, 265, 266, 267, 268, 269, 270, 271, 272, 273, 274, 275, 276, 277, 278, 279, 280],
      "LargestImagePixelValue": [1137, 1053, 908, 795, 1340, 825, 797, 800, 785, 1048, 762, 982, 829, 921, 1287, 775, 940, 1060, 793, 938, 865, 786, 1091, 802, 1367, 914, 913, 923, 851, 1273, 769, 1312, 758, 1067, 795, 714, 757, 847, 950, 879, 1261, 855, 977, 758, 769, 869, 1008, 769, 1283, 795, 900, 784, 842, 911, 762, 1017, 762, 1327, 791, 1047, 860, 871, 781, 781, 1302, 774, 1206, 763, 892, 796, 814, 1197, 761, 969, 753, 791, 905, 752, 879, 741, 1240, 808, 925, 875, 904, 1307, 1027, 884, 742, 776, 784, 780, 764, 837, 1249, 802, 1068, 933, 764, 1113, 791, 1179, 786, 1154, 817, 956, 885, 753, 873, 810, 773, 812, 1152, 885, 1327, 983, 886, 861, 810, 1145, 784, 1217, 772, 1341, 858, 964, 738, 983, 908, 898, 1056, 806, 1302, 866, 810, 788, 782, 1224, 766, 1233, 762, 1168, 884, 965, 913, 853, 1031, 783, 1231, 814, 914, 846, 859, 839, 795, 1086, 750, 1148, 728, 1254, 849, 944, 973, 822, 1265, 754, 1190, 743, 1208, 774, 1181, 947, 1002, 898, 800, 1193, 723, 928, 745, 758, 760, 858, 910, 864, 997, 825, 913, 860, 1285, 990, 1091, 763, 766, 745, 1189, 743, 1069, 873, 947, 738, 780, 742, 848, 734, 928, 974, 927, 897, 844, 792, 770, 995, 771, 1228, 793, 938, 770, 830, 761, 809, 871, 762, 1239, 762, 1279, 809, 836, 770, 760, 1187, 755, 1276, 937, 982, 763, 764, 959, 766, 1222, 759, 1207, 808, 953, 740, 801, 802, 742, 1319, 886, 998, 822, 822, 833, 759, 1242, 821, 963, 805, 918, 890, 809, 1094, 756, 1148, 748, 861, 1000, 840, 1107, 744, 802, 909, 717, 1029, 811, 771, 1145, 764, 1135, 728],
      "WindowCenter": [375.0, 373.0, 371.0, 369.0, 374.0, 369.0, 369.0, 369.0, 369.0, 372.0, 369.0, 372.0, 369.0, 370.0, 373.0, 369.0, 371.0, 372.0, 369.0, 371.0, 371.0, 370.0, 373.0, 370.0, 374.0, 371.0, 371.0, 371.0, 370.0, 374.0, 369.0, 374.0, 369.0, 372.0, 369.0, 368.0, 369.0, 370.0, 372.0, 370.0, 374.0, 370.0, 371.0, 369.0, 370.0, 371.0, 372.0, 369.0, 374.0, 369.0, 370.0, 369.0, 371.0, 372.0, 369.0, 372.0, 370.0, 375.0, 370.0, 373.0, 371.0, 371.0, 369.0, 370.0, 374.0, 369.0, 373.0, 369.0, 372.0, 371.0, 371.0, 373.0, 369.0, 371.0, 368.0, 369.0, 371.0, 370.0, 371.0, 370.0, 375.0, 370.0, 371.0, 370.0, 370.0, 374.0, 371.0, 370.0, 368.0, 369.0, 369.0, 370.0, 370.0, 371.0, 375.0, 370.0, 373.0, 371.0, 369.0, 373.0, 369.0, 373.0, 370.0, 374.0, 371.0, 372.0, 371.0, 369.0, 371.0, 370.0, 370.0, 372.0, 375.0, 372.0, 374.0, 372.0, 370.0, 370.0, 369.0, 373.0, 369.0, 374.0, 370.0, 374.0, 371.0, 372.0, 369.0, 372.0, 372.0, 371.0, 373.0, 369.0, 374.0, 370.0, 369.0, 369.0, 369.0, 374.0, 369.0, 374.0, 369.0, 373.0, 371.0, 372.0, 371.0, 371.0, 372.0, 370.0, 374.0, 370.0, 371.0, 371.0, 371.0, 371.0, 370.0, 373.0, 370.0, 374.0, 369.0, 375.0, 371.0, 372.0, 372.0, 370.0, 374.0, 369.0, 374.0, 369.0, 375.0, 370.0, 374.0, 372.0, 372.0, 370.0, 369.0, 373.0, 368.0, 371.0, 368.0, 369.0, 369.0, 371.0, 372.0, 371.0, 373.0, 370.0, 371.0, 371.0, 374.0, 372.0, 373.0, 370.0, 370.0, 370.0, 374.0, 370.0, 372.0, 371.0, 371.0, 369.0, 370.0, 370.0, 372.0, 370.0, 372.0, 373.0, 372.0, 371.0, 371.0, 370.0, 370.0, 372.0, 370.0, 374.0, 370.0, 371.0, 370.0, 371.0, 370.0, 370.0, 371.0, 369.0, 374.0, 369.0, 374.0, 370.0, 371.0, 370.0, 370.0, 374.0, 370.0, 375.0, 372.0, 372.0, 370.0, 369.0, 372.0, 370.0, 374.0, 370.0, 374.0, 370.0, 372.0, 369.0, 370.0, 370.0, 369.0, 375.0, 371.0, 372.0, 370.0, 370.0, 370.0, 370.0, 375.0, 371.0, 372.0, 370.0, 371.0, 371.0, 370.0, 373.0, 369.0, 373.0, 369.0, 371.0, 372.0, 371.0, 373.0, 369.0, 370.0, 371.0, 369.0, 373.0, 371.0, 370.0, 374.0, 370.0, 373.0, 369.0],
      "WindowWidth": [799.0, 794.0, 791.0, 789.0, 795.0, 788.0, 788.0, 788.0, 789.0, 793.0, 789.0, 793.0, 789.0, 791.0, 795.0, 788.0, 792.0, 793.0, 789.0, 791.0, 792.0, 791.0, 795.0, 790.0, 796.0, 792.0, 792.0, 791.0, 790.0, 795.0, 788.0, 795.0, 789.0, 793.0, 789.0, 788.0, 788.0, 790.0, 793.0, 791.0, 795.0, 790.0, 792.0, 790.0, 790.0, 792.0, 793.0, 790.0, 795.0, 789.0, 791.0, 789.0, 791.0, 793.0, 790.0, 794.0, 790.0, 797.0, 791.0, 795.0, 792.0, 792.0, 790.0, 790.0, 795.0, 788.0, 794.0, 790.0, 793.0, 792.0, 792.0, 794.0, 789.0, 791.0, 788.0, 789.0, 792.0, 790.0, 792.0, 791.0, 797.0, 791.0, 792.0, 791.0, 791.0, 795.0, 792.0, 790.0, 788.0, 790.0, 790.0, 791.0, 791.0, 793.0, 797.0, 791.0, 794.0, 792.0, 789.0, 794.0, 789.0, 794.0, 790.0, 796.0, 791.0, 793.0, 791.0, 789.0, 792.0, 791.0, 791.0, 793.0, 797.0, 794.0, 796.0, 793.0, 791.0, 790.0, 789.0, 794.0, 790.0, 796.0, 790.0, 796.0, 791.0, 792.0, 790.0, 794.0, 794.0, 792.0, 794.0, 789.0, 795.0, 790.0, 789.0, 790.0, 789.0, 796.0, 789.0, 795.0, 790.0, 795.0, 792.0, 792.0, 792.0, 791.0, 793.0, 790.0, 796.0, 790.0, 792.0, 791.0, 791.0, 792.0, 791.0, 794.0, 790.0, 796.0, 790.0, 797.0, 791.0, 793.0, 794.0, 791.0, 795.0, 789.0, 796.0, 789.0, 797.0, 791.0, 796.0, 793.0, 792.0, 791.0, 790.0, 794.0, 788.0, 791.0, 788.0, 789.0, 790.0, 791.0, 793.0, 792.0, 795.0, 791.0, 791.0, 792.0, 796.0, 792.0, 794.0, 790.0, 790.0, 790.0, 796.0, 790.0, 794.0, 791.0, 792.0, 789.0, 791.0, 791.0, 793.0, 791.0, 794.0, 794.0, 793.0, 792.0, 791.0, 791.0, 791.0, 794.0, 790.0, 796.0, 790.0, 792.0, 790.0, 791.0, 790.0, 791.0, 793.0, 790.0, 796.0, 789.0, 796.0, 790.0, 791.0, 790.0, 790.0, 796.0, 790.0, 797.0, 793.0, 793.0, 790.0, 790.0, 793.0, 790.0, 796.0, 790.0, 796.0, 790.0, 793.0, 789.0, 791.0, 791.0, 789.0, 797.0, 792.0, 794.0, 791.0, 791.0, 791.0, 790.0, 797.0, 792.0, 793.0, 790.0, 792.0, 792.0, 791.0, 795.0, 790.0, 794.0, 789.0, 792.0, 793.0, 792.0, 795.0, 789.0, 791.0, 792.0, 790.0, 795.0, 792.0, 791.0, 796.0, 790.0, 795.0, 790.0]
    },
    "slices": {}
  }
}