{
  "AcquisitionMatrixPE": 96,
  "AcquisitionNumber": 1,
  "AcquisitionTime": "11:16:36.342500",
  "BandwidthPerPixelPhaseEncode": 18.939,
  "BaseResolution": 96,
  "BodyPartExamined": "BRAIN",
  "ConsistencyInfo": "N4_VE11C_LATEST_20160120",
  "ConversionSoftware": "dcm2niix",
  "ConversionSoftwareVersion": "v1.0.20170923 (OpenJPEG build) GCC6.3.0",
  "DerivedVendorReportedEchoSpacing": 0.000550011,
  "DeviceSerialNumber": "66112",
  "DwellTime": 2.3e-06,
  "EchoTime": 0.033,
  "EchoTrainLength": 96,
  "EffectiveEchoSpacing": 0.000550011,
  "FlipAngle": 64,
  "ImageType": [
    "ORIGINAL",
    "PRIMARY",
    "FMRI",
    "NONE",
    "ND",
    "NORM",
    "MOSAIC"
],
  "InstitutionAddress": "Maynard_3_Hanover_NH_US_03755",
  "InstitutionName": "Dartmouth_College_-_PBS",
  "MagneticFieldStrength": 3,
  "Manufacturer": "Siemens",
  "ManufacturersModelName": "Prisma",
  "Modality": "MR",
  "MultibandAccelerationFactor": 4,
  "PartialFourier": 1,
  "PercentPhaseFOV": 100,
  "PhaseEncodingDirection": "j-",
  "PhaseEncodingSteps": 96,
  "PhaseResolution": 1,
  "ProcedureStepDescription": "Gobbini_Matteo_1017_famface-angles",
  "ProtocolName": "func_run-10_task-str1back",
  "PulseSequenceDetails": "%SiemensSeq%_ep2d_bold",
  "ReceiveCoilActiveElements": "HEA;HEP",
  "ReceiveCoilName": "Head_32",
  "ReconMatrixPE": 96,
  "RepetitionTime": 1.25,
  "ScanOptions": "FS",
  "ScanningSequence": "EP",
  "SequenceName": "_epfid2d1_96",
  "SequenceVariant": "SK",
  "SeriesDescription": "func_run-10_task-str1back",
  "SliceTiming": [0.88, 0, 0.615, 0.09, 0.705, 0.1775, 0.7925, 0.3525, 0.9675, 0.44, 1.055, 0.5275, 1.1425, 0.265, 0.88, 0, 0.615, 0.09, 0.705, 0.1775, 0.7925, 0.3525, 0.9675, 0.44, 1.055, 0.5275, 1.1425, 0.265, 0.88, 0, 0.615, 0.09, 0.705, 0.1775, 0.7925, 0.3525, 0.9675, 0.44, 1.055, 0.5275, 1.1425, 0.265, 0.88, 0, 0.615, 0.09, 0.705, 0.1775, 0.7925, 0.3525, 0.9675, 0.44, 1.055, 0.5275, 1.1425, 0.265],
  "SoftwareVersions": "syngo_MR_E11",
  "StationName": "AWP66112",
  "TaskName": "str1back",
  "TotalReadoutTime": 0.0522511,
  "dcmmeta_affine": [
    [-2.4954535961151123, -0.07406338304281235, 0.13124586641788483, 122.51382446289062],
    [-0.06766194105148315, 2.496100664138794, 0.12207943946123123, -98.80907440185547],
    [0.13465780019760132, -0.11830529570579529, 2.4935660362243652, -93.82156372070312],
    [0.0, 0.0, 0.0, 1.0]
],
  "dcmmeta_reorient_transform": [
    [0.0, -1.0, 0.0, 95.0],
    [1.0, 0.0, 0.0, 0.0],
    [0.0, 0.0, 1.0, 0.0],
    [0.0, 0.0, 0.0, 1.0]
],
  "dcmmeta_shape": [96, 96, 56, 280],
  "dcmmeta_slice_dim": 2,
  "dcmmeta_version": 0.6,
  "global": {
    "const": {
      "AccessionNumber": "A000624",
      "AcquisitionMatrix": [96, 0, 0, 96],
      "AngioFlag": "N",
      "BitsAllocated": 16,
      "BitsStored": 12,
      "BodyPartExamined": "BRAIN",
      "Columns": 768,
      "EchoNumbers": 1,
      "EchoTime": 33.0,
      "EchoTrainLength": 96,
      "FlipAngle": 64.0,
      "HighBit": 11,
      "ImageOrientationPatient": [0.99818147759794, 0.02706477677212, 0.0538631194666, -0.0296253540625, 0.99844026137768, 0.04732211805011],
      "ImagePositionPatient": [-929.06494921269, -999.74471859708, -190.05616297698],
      "ImageType": [
        "ORIGINAL",
        "PRIMARY",
        "FMRI",
        "NONE",
        "ND",
        "NORM",
        "MOSAIC"
],
      "ImagedNucleus": "1H",
      "ImagingFrequency": 123.252407,
      "InPlanePhaseEncodingDirection": "COL",
      "MRAcquisitionType": "2D",
      "MagneticFieldStrength": 3.0,
      "Manufacturer": "SIEMENS",
      "ManufacturerModelName": "Prisma",
      "Modality": "MR",
      "NumberOfAverages": 1.0,
      "NumberOfPhaseEncodingSteps": 96,
      "PercentPhaseFieldOfView": 100.0,
      "PercentSampling": 100.0,
      "PerformedProcedureStepStartTime": "095908.147000",
      "PhotometricInterpretation": "MONOCHROME2",
      "PixelBandwidth": 2265.0,
      "PixelRepresentation": 0,
      "PixelSpacing": [2.5, 2.5],
      "PositionReferenceIndicator": "",
      "ProtocolName": "func_run-10_task-str1back",
      "RepetitionTime": 1250.0,
      "Rows": 768,
      "SAR": 0.05579240200203,
      "SamplesPerPixel": 1,
      "ScanOptions": "FS",
      "ScanningSequence": "EP",
      "SequenceName": "*epfid2d1_96",
      "SequenceVariant": "SK",
      "SeriesDescription": "func_run-10_task-str1back",
      "SeriesNumber": 71,
      "SeriesTime": "111637.539000",
      "SliceLocation": -91.973348800746,
      "SliceThickness": 2.5,
      "SmallestImagePixelValue": 0,
      "SoftwareVersions": "syngo MR E11",
      "SpacingBetweenSlices": 2.4999999763145,
      "SpecificCharacterSet": "ISO_IR 100",
      "StudyID": "2",
      "StudyTime": "095908.099000",
      "TransmitCoilName": "Body",
      "VariableFlipAngleFlag": "N",
      "WindowCenterWidthExplanation": "Algo1",
      "dBdt": 0.0},
    "slices": {}
  },
  "time": {
    "samples": {
      "AcquisitionNumber": [1, 2, 3, 4, 5, 6, 7, 8, 9, 10, 11, 12, 13, 14, 15, 16, 17, 18, 19, 20, 21, 22, 23, 24, 25, 26, 27, 28, 29, 30, 31, 32, 33, 34, 35, 36, 37, 38, 39, 40, 41, 42, 43, 44, 45, 46, 47, 48, 49, 50, 51, 52, 53, 54, 55, 56, 57, 58, 59, 60, 61, 62, 63, 64, 65, 66, 67, 68, 69, 70, 71, 72, 73, 74, 75, 76, 77, 78, 79, 80, 81, 82, 83, 84, 85, 86, 87, 88, 89, 90, 91, 92, 93, 94, 95, 96, 97, 98, 99, 100, 101, 102, 103, 104, 105, 106, 107, 108, 109, 110, 111, 112, 113, 114, 115, 116, 117, 118, 119, 120, 121, 122, 123, 124, 125, 126, 127, 128, 129, 130, 131, 132, 133, 134, 135, 136, 137, 138, 139, 140, 141, 142, 143, 144, 145, 146, 147, 148, 149, 150, 151, 152, 153, 154, 155, 156, 157, 158, 159, 160, 161, 162, 163, 164, 165, 166, 167, 168, 169, 170, 171, 172, 173, 174, 175, 176, 177, 178, 179, 180, 181, 182, 183, 184, 185, 186, 187, 188, 189, 190, 191, 192, 193, 194, 195, 196, 197, 198, 199, 200, 201, 202, 203, 204, 205, 206, 207, 208, 209, 210, 211, 212, 213, 214, 215, 216, 217, 218, 219, 220, 221, 222, 223, 224, 225, 226, 227, 228, 229, 230, 231, 232, 233, 234, 235, 236, 237, 238, 239, 240, 241, 242, 243, 244, 245, 246, 247, 248, 249, 250, 251, 252, 253, 254, 255, 256, 257, 258, 259, 260, 261, 262, 263, 264, 265, 266, 267, 268, 269, 270, 271, 272, 273, 274, 275, 276, 277, 278, 279, 280],
      "AcquisitionTime": ["111636.342500", "111637.592500", "111638.842500", "111640.092500", "111641.342500", "111642.592500", "111643.842500", "111645.092500", "111646.342500", "111647.592500", "111648.842500", "111650.092500", "111651.342500", "111652.592500", "111653.842500", "111655.092500", "111656.342500", "111657.592500", "111658.842500", "111700.092500", "111701.342500", "111702.592500", "111703.842500", "111705.092500", "111706.342500", "111707.592500", "111708.842500", "111710.092500", "111711.342500", "111712.592500", "111713.842500", "111715.092500", "111716.342500", "111717.592500", "111718.842500", "111720.092500", "111721.342500", "111722.592500", "111723.842500", "111725.092500", "111726.342500", "111727.592500", "111728.842500", "111730.092500", "111731.342500", "111732.592500", "111733.842500", "111735.092500", "111736.342500", "111737.592500", "111738.842500", "111740.092500", "111741.342500", "111742.592500", "111743.842500", "111745.092500", "111746.342500", "111747.592500", "111748.842500", "111750.092500", "111751.342500", "111752.592500", "111753.842500", "111755.092500", "111756.342500", "111757.592500", "111758.842500", "111800.092500", "111801.342500", "111802.592500", "111803.842500", "111805.092500", "111806.342500", "111807.592500", "111808.842500", "111810.092500", "111811.342500", "111812.592500", "111813.842500", "111815.092500", "111816.342500", "111817.592500", "111818.842500", "111820.092500", "111821.342500", "111822.592500", "111823.842500", "111825.092500", "111826.342500", "111827.592500", "111828.842500", "111830.092500", "111831.342500", "111832.592500", "111833.842500", "111835.092500", "111836.342500", "111837.592500", "111838.842500", "111840.092500", "111841.342500", "111842.592500", "111843.842500", "111845.092500", "111846.342500", "111847.592500", "111848.842500", "111850.092500", "111851.342500", "111852.592500", "111853.842500", "111855.092500", "111856.342500", "111857.592500", "111858.842500", "111900.092500", "111901.342500", "111902.592500", "111903.842500", "111905.092500", "111906.342500", "111907.592500", "111908.842500", "111910.092500", "111911.342500", "111912.592500", "111913.842500", "111915.092500", "111916.342500", "111917.592500", "111918.842500", "111920.092500", "111921.342500", "111922.592500", "111923.842500", "111925.092500", "111926.342500", "111927.592500", "111928.842500", "111930.092500", "111931.342500", "111932.592500", "111933.842500", "111935.092500", "111936.342500", "111937.592500", "111938.842500", "111940.092500", "111941.342500", "111942.592500", "111943.842500", "111945.092500", "111946.342500", "111947.592500", "111948.842500", "111950.092500", "111951.342500", "111952.592500", "111953.842500", "111955.092500", "111956.342500", "111957.592500", "111958.842500", "112000.092500", "112001.342500", "112002.592500", "112003.842500", "112005.092500", "112006.342500", "112007.592500", "112008.842500", "112010.092500", "112011.342500", "112012.592500", "112013.842500", "112015.092500", "112016.342500", "112017.592500", "112018.842500", "112020.092500", "112021.342500", "112022.592500", "112023.842500", "112025.092500", "112026.342500", "112027.592500", "112028.842500", "112030.092500", "112031.342500", "112032.592500", "112033.842500", "112035.092500", "112036.342500", "112037.592500", "112038.842500", "112040.092500", "112041.342500", "112042.592500", "112043.842500", "112045.092500", "112046.342500", "112047.592500", "112048.842500", "112050.092500", "112051.342500", "112052.592500", "112053.842500", "112055.092500", "112056.342500", "112057.592500", "112058.842500", "112100.092500", "112101.342500", "112102.592500", "112103.842500", "112105.092500", "112106.342500", "112107.592500", "112108.842500", "112110.092500", "112111.342500", "112112.592500", "112113.842500", "112115.092500", "112116.342500", "112117.592500", "112118.842500", "112120.092500", "112121.342500", "112122.592500", "112123.842500", "112125.092500", "112126.342500", "112127.592500", "112128.842500", "112130.092500", "112131.342500", "112132.592500", "112133.842500", "112135.092500", "112136.342500", "112137.592500", "112138.842500", "112140.092500", "112141.342500", "112142.592500", "112143.842500", "112145.092500", "112146.342500", "112147.592500", "112148.842500", "112150.092500", "112151.342500", "112152.592500", "112153.842500", "112155.092500", "112156.342500", "112157.592500", "112158.842500", "112200.092500", "112201.342500", "112202.592500", "112203.842500", "112205.092500", "112206.342500", "112207.592500", "112208.842500", "112210.092500", "112211.342500", "112212.592500", "112213.842500", "112215.092500", "112216.342500", "112217.592500", "112218.842500", "112220.092500", "112221.342500", "112222.592500", "112223.842500", "112225.092500"],
      "ContentTime": ["111637.545000", "111638.589000", "111639.786000", "111641.019000", "111642.276000", "111643.566000", "111644.790000", "111646.070000", "111647.383000", "111648.547000", "111649.806000", "111651.071000", "111652.317000", "111653.577000", "111654.827000", "111656.072000", "111657.297000", "111658.595000", "111659.801000", "111701.075000", "111702.337000", "111703.519000", "111704.813000", "111706.054000", "111707.316000", "111708.542000", "111709.809000", "111711.025000", "111712.322000", "111713.590000", "111714.830000", "111716.095000", "111717.298000", "111718.566000", "111719.816000", "111721.026000", "111722.378000", "111723.578000", "111724.838000", "111726.053000", "111727.301000", "111728.564000", "111729.816000", "111731.043000", "111732.319000", "111733.520000", "111734.807000", "111736.070000", "111737.323000", "111738.555000", "111739.785000", "111741.036000", "111742.336000", "111743.569000", "111744.813000", "111746.049000", "111747.297000", "111748.554000", "111749.848000", "111751.072000", "111752.338000", "111753.559000", "111754.807000", "111756.053000", "111757.345000", "111758.566000", "111759.814000", "111801.040000", "111802.292000", "111803.528000", "111804.831000", "111806.063000", "111807.311000", "111808.574000", "111809.783000", "111811.039000", "111812.292000", "111813.559000", "111814.813000", "111816.086000", "111817.304000", "111818.565000", "111819.788000", "111821.047000", "111822.298000", "111823.538000", "111824.819000", "111826.045000", "111827.328000", "111828.550000", "111829.796000", "111831.016000", "111832.334000", "111833.544000", "111834.792000", "111836.038000", "111837.301000", "111838.530000", "111839.803000", "111841.046000", "111842.307000", "111843.548000", "111844.852000", "111846.085000", "111847.318000", "111848.538000", "111849.825000", "111851.056000", "111852.327000", "111853.583000", "111854.861000", "111856.105000", "111857.340000", "111858.554000", "111859.811000", "111901.060000", "111902.322000", "111903.568000", "111904.837000", "111906.064000", "111907.290000", "111908.553000", "111909.802000", "111911.079000", "111912.309000", "111913.548000", "111914.798000", "111916.078000", "111917.332000", "111918.548000", "111919.881000", "111921.067000", "111922.335000", "111923.596000", "111924.852000", "111926.053000", "111927.321000", "111928.601000", "111929.790000", "111931.055000", "111932.313000", "111933.556000", "111934.793000", "111936.049000", "111937.317000", "111938.554000", "111939.846000", "111941.053000", "111942.331000", "111943.547000", "111944.806000", "111946.042000", "111947.308000", "111948.621000", "111949.806000", "111951.007000", "111952.364000", "111953.561000", "111954.837000", "111956.082000", "111957.304000", "111958.528000", "111959.864000", "112001.057000", "112002.295000", "112003.594000", "112004.792000", "112006.069000", "112007.295000", "112008.556000", "112009.810000", "112011.045000", "112012.320000", "112013.625000", "112014.831000", "112016.062000", "112017.319000", "112018.553000", "112019.814000", "112021.051000", "112022.312000", "112023.580000", "112024.809000", "112026.053000", "112027.342000", "112028.587000", "112029.817000", "112031.090000", "112032.285000", "112033.537000", "112034.823000", "112036.115000", "112037.295000", "112038.548000", "112039.795000", "112041.059000", "112042.312000", "112043.561000", "112044.856000", "112046.051000", "112047.300000", "112048.565000", "112049.800000", "112051.053000", "112052.294000", "112053.570000", "112054.799000", "112056.049000", "112057.321000", "112058.539000", "112059.800000", "112101.068000", "112102.310000", "112103.554000", "112104.791000", "112106.070000", "112107.321000", "112108.569000", "112109.822000", "112111.054000", "112112.338000", "112113.565000", "112114.797000", "112116.084000", "112117.365000", "112118.576000", "112119.760000", "112121.036000", "112122.309000", "112123.528000", "112124.826000", "112126.032000", "112127.285000", "112128.540000", "112129.839000", "112131.075000", "112132.319000", "112133.571000", "112134.842000", "112136.099000", "112137.331000", "112138.558000", "112139.793000", "112141.079000", "112142.303000", "112143.553000", "112144.829000", "112146.053000", "112147.300000", "112148.548000", "112149.874000", "112151.087000", "112152.349000", "112153.564000", "112154.871000", "112156.038000", "112157.311000", "112158.555000", "112159.804000", "112201.047000", "112202.283000", "112203.558000", "112204.850000", "112206.051000", "112207.310000", "112208.573000", "112209.787000", "112211.048000", "112212.317000", "112213.570000", "112214.823000", "112216.055000", "112217.289000", "112218.554000", "112219.794000", "112221.060000", "112222.302000", "112223.551000", "112224.818000", "112226.101000"],
      "InstanceCreationTime": ["111637.545000", "111638.589000", "111639.786000", "111641.019000", "111642.276000", "111643.566000", "111644.790000", "111646.070000", "111647.383000", "111648.547000", "111649.806000", "111651.071000", "111652.317000", "111653.577000", "111654.827000", "111656.072000", "111657.297000", "111658.595000", "111659.801000", "111701.075000", "111702.337000", "111703.519000", "111704.813000", "111706.054000", "111707.316000", "111708.542000", "111709.809000", "111711.025000", "111712.322000", "111713.590000", "111714.830000", "111716.095000", "111717.298000", "111718.566000", "111719.816000", "111721.026000", "111722.378000", "111723.578000", "111724.838000", "111726.053000", "111727.301000", "111728.564000", "111729.816000", "111731.043000", "111732.319000", "111733.520000", "111734.807000", "111736.070000", "111737.323000", "111738.555000", "111739.785000", "111741.036000", "111742.336000", "111743.569000", "111744.813000", "111746.049000", "111747.297000", "111748.554000", "111749.848000", "111751.072000", "111752.338000", "111753.559000", "111754.807000", "111756.053000", "111757.345000", "111758.566000", "111759.814000", "111801.040000", "111802.292000", "111803.528000", "111804.831000", "111806.063000", "111807.311000", "111808.574000", "111809.783000", "111811.039000", "111812.292000", "111813.559000", "111814.813000", "111816.086000", "111817.304000", "111818.565000", "111819.788000", "111821.047000", "111822.298000", "111823.538000", "111824.819000", "111826.045000", "111827.328000", "111828.550000", "111829.796000", "111831.016000", "111832.334000", "111833.544000", "111834.792000", "111836.038000", "111837.301000", "111838.530000", "111839.803000", "111841.046000", "111842.307000", "111843.548000", "111844.852000", "111846.085000", "111847.318000", "111848.538000", "111849.825000", "111851.056000", "111852.327000", "111853.583000", "111854.861000", "111856.105000", "111857.340000", "111858.554000", "111859.811000", "111901.060000", "111902.322000", "111903.568000", "111904.837000", "111906.064000", "111907.290000", "111908.553000", "111909.802000", "111911.079000", "111912.309000", "111913.548000", "111914.798000", "111916.078000", "111917.332000", "111918.548000", "111919.881000", "111921.067000", "111922.335000", "111923.596000", "111924.852000", "111926.053000", "111927.321000", "111928.601000", "111929.790000", "111931.055000", "111932.313000", "111933.556000", "111934.793000", "111936.049000", "111937.317000", "111938.554000", "111939.846000", "111941.053000", "111942.331000", "111943.547000", "111944.806000", "111946.042000", "111947.308000", "111948.621000", "111949.806000", "111951.007000", "111952.364000", "111953.561000", "111954.837000", "111956.082000", "111957.304000", "111958.528000", "111959.864000", "112001.057000", "112002.295000", "112003.594000", "112004.792000", "112006.069000", "112007.295000", "112008.556000", "112009.810000", "112011.045000", "112012.320000", "112013.625000", "112014.831000", "112016.062000", "112017.319000", "112018.553000", "112019.814000", "112021.051000", "112022.312000", "112023.580000", "112024.809000", "112026.053000", "112027.342000", "112028.587000", "112029.817000", "112031.090000", "112032.285000", "112033.537000", "112034.823000", "112036.115000", "112037.295000", "112038.548000", "112039.795000", "112041.059000", "112042.312000", "112043.561000", "112044.856000", "112046.051000", "112047.300000", "112048.565000", "112049.800000", "112051.053000", "112052.294000", "112053.570000", "112054.799000", "112056.049000", "112057.321000", "112058.539000", "112059.800000", "112101.068000", "112102.310000", "112103.554000", "112104.791000", "112106.070000", "112107.321000", "112108.569000", "112109.822000", "112111.054000", "112112.338000", "112113.565000", "112114.797000", "112116.084000", "112117.365000", "112118.576000", "112119.760000", "112121.036000", "112122.309000", "112123.528000", "112124.826000", "112126.032000", "112127.285000", "112128.540000", "112129.839000", "112131.075000", "112132.319000", "112133.571000", "112134.842000", "112136.099000", "112137.331000", "112138.558000", "112139.793000", "112141.079000", "112142.303000", "112143.553000", "112144.829000", "112146.053000", "112147.300000", "112148.548000", "112149.874000", "112151.087000", "112152.349000", "112153.564000", "112154.871000", "112156.038000", "112157.311000", "112158.555000", "112159.804000", "112201.047000", "112202.283000", "112203.558000", "112204.850000", "112206.051000", "112207.310000", "112208.573000", "112209.787000", "112211.048000", "112212.317000", "112213.570000", "112214.823000", "112216.055000", "112217.289000", "112218.554000", "112219.794000", "112221.060000", "112222.302000", "112223.551000", "112224.818000", "112226.101000"],
      "InstanceNumber": [1, 2, 3, 4, 5, 6, 7, 8, 9, 10, 11, 12, 13, 14, 15, 16, 17, 18, 19, 20, 21, 22, 23, 24, 25, 26, 27, 28, 29, 30, 31, 32, 33, 34, 35, 36, 37, 38, 39, 40, 41, 42, 43, 44, 45, 46, 47, 48, 49, 50, 51, 52, 53, 54, 55, 56, 57, 58, 59, 60, 61, 62, 63, 64, 65, 66, 67, 68, 69, 70, 71, 72, 73, 74, 75, 76, 77, 78, 79, 80, 81, 82, 83, 84, 85, 86, 87, 88, 89, 90, 91, 92, 93, 94, 95, 96, 97, 98, 99, 100, 101, 102, 103, 104, 105, 106, 107, 108, 109, 110, 111, 112, 113, 114, 115, 116, 117, 118, 119, 120, 121, 122, 123, 124, 125, 126, 127, 128, 129, 130, 131, 132, 133, 134, 135, 136, 137, 138, 139, 140, 141, 142, 143, 144, 145, 146, 147, 148, 149, 150, 151, 152, 153, 154, 155, 156, 157, 158, 159, 160, 161, 162, 163, 164, 165, 166, 167, 168, 169, 170, 171, 172, 173, 174, 175, 176, 177, 178, 179, 180, 181, 182, 183, 184, 185, 186, 187, 188, 189, 190, 191, 192, 193, 194, 195, 196, 197, 198, 199, 200, 201, 202, 203, 204, 205, 206, 207, 208, 209, 210, 211, 212, 213, 214, 215, 216, 217, 218, 219, 220, 221, 222, 223, 224, 225, 226, 227, 228, 229, 230, 231, 232, 233, 234, 235, 236, 237, 238, 239, 240, 241, 242, 243, 244, 245, 246, 247, 248, 249, 250, 251, 252, 253, 254, 255, 256, 257, 258, 259, 260, 261, 262, 263, 264, 265, 266, 267, 268, 269, 270, 271, 272, 273, 274, 275, 276, 277, 278, 279, 280],
      "LargestImagePixelValue": [827, 1280, 832, 782, 780, 762, 873, 892, 1324, 837, 1119, 759, 901, 1048, 830, 756, 1119, 1031, 1124, 1003, 902, 897, 732, 858, 770, 779, 738, 766, 735, 760, 732, 779, 760, 908, 763, 758, 944, 768, 915, 772, 811, 846, 749, 925, 788, 774, 1222, 773, 879, 765, 740, 1044, 761, 930, 794, 905, 1115, 768, 818, 993, 785, 750, 1039, 803, 755, 1120, 757, 778, 728, 743, 742, 762, 949, 1273, 774, 740, 1093, 743, 758, 988, 759, 910, 1089, 791, 1037, 1244, 803, 734, 1009, 1037, 742, 845, 1156, 765, 737, 1231, 798, 978, 1174, 748, 727, 1103, 761, 737, 774, 753, 732, 732, 1080, 743, 929, 1118, 825, 752, 748, 746, 793, 1127, 753, 831, 1106, 876, 833, 1079, 809, 1249, 832, 899, 1317, 756, 888, 1156, 806, 765, 977, 943, 777, 903, 1168, 843, 741, 745, 1174, 751, 747, 735, 753, 810, 992, 883, 782, 871, 1168, 773, 730, 871, 837, 752, 822, 866, 784, 762, 1159, 745, 882, 1169, 771, 772, 815, 826, 1068, 765, 976, 1020, 780, 1055, 1146, 956, 782, 893, 754, 907, 762, 765, 751, 1093, 752, 747, 790, 780, 1097, 747, 970, 1037, 810, 758, 1027, 729, 844, 775, 837, 981, 1180, 769, 740, 920, 873, 760, 727, 1084, 770, 816, 1100, 911, 726, 732, 1139, 764, 757, 770, 782, 712, 906, 846, 835, 779, 1124, 738, 743, 1140, 734, 899, 1007, 908, 765, 938, 826, 753, 975, 796, 823, 898, 1032, 750, 734, 1002, 888, 738, 749, 881, 730, 829, 1200, 899, 754, 908, 1047, 1078, 753, 771, 1123, 849, 723, 875, 1167, 759, 776, 1048, 845, 818, 805, 1092, 798, 786, 856, 784, 760, 968, 851, 981],
      "WindowCenter": [373.0, 376.0, 372.0, 372.0, 372.0, 373.0, 375.0, 376.0, 378.0, 374.0, 374.0, 370.0, 373.0, 375.0, 369.0, 372.0, 374.0, 372.0, 371.0, 369.0, 367.0, 367.0, 365.0, 367.0, 367.0, 367.0, 367.0, 368.0, 369.0, 369.0, 370.0, 370.0, 370.0, 372.0, 370.0, 370.0, 373.0, 371.0, 373.0, 372.0, 372.0, 373.0, 371.0, 374.0, 373.0, 372.0, 377.0, 372.0, 374.0, 373.0, 373.0, 376.0, 373.0, 375.0, 373.0, 374.0, 376.0, 372.0, 373.0, 375.0, 372.0, 372.0, 374.0, 372.0, 371.0, 376.0, 372.0, 372.0, 372.0, 373.0, 373.0, 374.0, 376.0, 378.0, 372.0, 371.0, 375.0, 371.0, 372.0, 375.0, 372.0, 374.0, 375.0, 372.0, 374.0, 375.0, 371.0, 370.0, 373.0, 374.0, 370.0, 371.0, 375.0, 370.0, 370.0, 375.0, 371.0, 373.0, 375.0, 370.0, 370.0, 375.0, 371.0, 371.0, 372.0, 372.0, 372.0, 373.0, 376.0, 373.0, 374.0, 376.0, 372.0, 372.0, 372.0, 370.0, 374.0, 376.0, 372.0, 374.0, 377.0, 375.0, 374.0, 377.0, 373.0, 377.0, 373.0, 373.0, 377.0, 371.0, 372.0, 375.0, 372.0, 371.0, 374.0, 373.0, 371.0, 372.0, 375.0, 371.0, 370.0, 370.0, 375.0, 371.0, 372.0, 372.0, 373.0, 373.0, 374.0, 372.0, 371.0, 372.0, 375.0, 371.0, 370.0, 372.0, 372.0, 371.0, 372.0, 373.0, 372.0, 372.0, 376.0, 371.0, 373.0, 375.0, 372.0, 372.0, 373.0, 374.0, 376.0, 373.0, 375.0, 375.0, 372.0, 374.0, 375.0, 373.0, 370.0, 372.0, 371.0, 373.0, 371.0, 371.0, 370.0, 374.0, 371.0, 371.0, 372.0, 372.0, 376.0, 372.0, 374.0, 375.0, 372.0, 371.0, 374.0, 371.0, 374.0, 373.0, 373.0, 375.0, 376.0, 371.0, 370.0, 373.0, 372.0, 370.0, 370.0, 375.0, 372.0, 372.0, 375.0, 373.0, 371.0, 371.0, 375.0, 372.0, 372.0, 372.0, 372.0, 371.0, 373.0, 373.0, 373.0, 372.0, 376.0, 371.0, 371.0, 376.0, 372.0, 373.0, 374.0, 373.0, 371.0, 374.0, 373.0, 372.0, 374.0, 373.0, 373.0, 373.0, 374.0, 371.0, 371.0, 374.0, 373.0, 372.0, 372.0, 374.0, 372.0, 373.0, 377.0, 373.0, 372.0, 373.0, 374.0, 375.0, 372.0, 372.0, 376.0, 373.0, 371.0, 373.0, 375.0, 371.0, 372.0, 374.0, 373.0, 373.0, 372.0, 375.0, 372.0, 372.0, 374.0, 373.0, 373.0, 376.0, 375.0, 376.0],
      "WindowWidth": [798.0, 801.0, 795.0, 794.0, 794.0, 796.0, 800.0, 801.0, 804.0, 797.0, 797.0, 792.0, 795.0, 799.0, 789.0, 795.0, 796.0, 792.0, 791.0, 787.0, 784.0, 784.0, 782.0, 785.0, 785.0, 785.0, 785.0, 787.0, 789.0, 790.0, 791.0, 791.0, 792.0, 794.0, 792.0, 792.0, 796.0, 793.0, 796.0, 794.0, 795.0, 795.0, 794.0, 797.0, 796.0, 795.0, 801.0, 795.0, 798.0, 796.0, 796.0, 800.0, 797.0, 800.0, 797.0, 798.0, 800.0, 795.0, 796.0, 799.0, 795.0, 794.0, 798.0, 794.0, 793.0, 799.0, 794.0, 794.0, 794.0, 796.0, 797.0, 798.0, 800.0, 802.0, 794.0, 792.0, 798.0, 793.0, 794.0, 799.0, 795.0, 798.0, 799.0, 795.0, 797.0, 798.0, 792.0, 791.0, 795.0, 796.0, 791.0, 793.0, 797.0, 792.0, 792.0, 798.0, 793.0, 795.0, 797.0, 792.0, 792.0, 798.0, 793.0, 793.0, 794.0, 794.0, 795.0, 796.0, 801.0, 796.0, 798.0, 800.0, 795.0, 794.0, 794.0, 790.0, 798.0, 800.0, 794.0, 797.0, 802.0, 799.0, 798.0, 802.0, 797.0, 802.0, 797.0, 797.0, 801.0, 793.0, 794.0, 797.0, 793.0, 793.0, 796.0, 796.0, 793.0, 794.0, 797.0, 793.0, 792.0, 791.0, 797.0, 793.0, 794.0, 795.0, 796.0, 796.0, 797.0, 794.0, 793.0, 794.0, 797.0, 793.0, 792.0, 794.0, 794.0, 793.0, 795.0, 796.0, 794.0, 794.0, 800.0, 793.0, 796.0, 799.0, 794.0, 794.0, 796.0, 797.0, 801.0, 796.0, 800.0, 799.0, 794.0, 797.0, 797.0, 794.0, 791.0, 793.0, 792.0, 795.0, 793.0, 793.0, 791.0, 797.0, 792.0, 793.0, 795.0, 795.0, 800.0, 794.0, 798.0, 798.0, 794.0, 793.0, 798.0, 793.0, 797.0, 796.0, 796.0, 798.0, 799.0, 793.0, 792.0, 795.0, 793.0, 792.0, 792.0, 798.0, 794.0, 795.0, 798.0, 795.0, 793.0, 793.0, 799.0, 794.0, 794.0, 794.0, 794.0, 794.0, 797.0, 796.0, 796.0, 794.0, 799.0, 793.0, 793.0, 799.0, 794.0, 796.0, 797.0, 795.0, 793.0, 797.0, 796.0, 795.0, 798.0, 796.0, 796.0, 796.0, 798.0, 793.0, 793.0, 797.0, 796.0, 794.0, 795.0, 797.0, 795.0, 796.0, 802.0, 797.0, 794.0, 796.0, 797.0, 798.0, 794.0, 795.0, 800.0, 796.0, 794.0, 796.0, 799.0, 793.0, 794.0, 798.0, 796.0, 796.0, 795.0, 799.0, 795.0, 795.0, 798.0, 797.0, 797.0, 801.0, 799.0, 800.0]
    },
    "slices": {}
  }
}