{
  "AcquisitionMatrixPE": 96,
  "AcquisitionNumber": 1,
  "AcquisitionTime": "18:44:42.350000",
  "BandwidthPerPixelPhaseEncode": 18.939,
  "BaseResolution": 96,
  "BodyPartExamined": "BRAIN",
  "ConsistencyInfo": "N4_VE11C_LATEST_20160120",
  "ConversionSoftware": "dcm2niix",
  "ConversionSoftwareVersion": "v1.0.20170923 (OpenJPEG build) GCC6.3.0",
  "DerivedVendorReportedEchoSpacing": 0.000550011,
  "DeviceSerialNumber": "66112",
  "DwellTime": 2.3e-06,
  "EchoTime": 0.033,
  "EchoTrainLength": 96,
  "EffectiveEchoSpacing": 0.000550011,
  "FlipAngle": 64,
  "ImageType": [
    "ORIGINAL",
    "PRIMARY",
    "FMRI",
    "NONE",
    "ND",
    "NORM",
    "MOSAIC"
],
  "InstitutionAddress": "Maynard_3_Hanover_NH_US_03755",
  "InstitutionName": "Dartmouth_College_-_PBS",
  "MagneticFieldStrength": 3,
  "Manufacturer": "Siemens",
  "ManufacturersModelName": "Prisma",
  "Modality": "MR",
  "MultibandAccelerationFactor": 4,
  "PartialFourier": 1,
  "PercentPhaseFOV": 100,
  "PhaseEncodingDirection": "j-",
  "PhaseEncodingSteps": 96,
  "PhaseResolution": 1,
  "ProcedureStepDescription": "Gobbini_Matteo_1017_famface-angles",
  "ProtocolName": "func_run-07_task-str1back",
  "PulseSequenceDetails": "%SiemensSeq%_ep2d_bold",
  "ReceiveCoilActiveElements": "HEA;HEP",
  "ReceiveCoilName": "Head_32",
  "ReconMatrixPE": 96,
  "RepetitionTime": 1.25,
  "ScanOptions": "FS",
  "ScanningSequence": "EP",
  "SequenceName": "_epfid2d1_96",
  "SequenceVariant": "SK",
  "SeriesDescription": "func_run-07_task-str1back",
  "SliceTiming": [0.8775, 0, 0.615, 0.0875, 0.7025, 0.175, 0.79, 0.3525, 0.9675, 0.44, 1.055, 0.5275, 1.1425, 0.265, 0.8775, 0, 0.615, 0.0875, 0.7025, 0.175, 0.79, 0.3525, 0.9675, 0.44, 1.055, 0.5275, 1.1425, 0.265, 0.8775, 0, 0.615, 0.0875, 0.7025, 0.175, 0.79, 0.3525, 0.9675, 0.44, 1.055, 0.5275, 1.1425, 0.265, 0.8775, 0, 0.615, 0.0875, 0.7025, 0.175, 0.79, 0.3525, 0.9675, 0.44, 1.055, 0.5275, 1.1425, 0.265],
  "SoftwareVersions": "syngo_MR_E11",
  "StationName": "AWP66112",
  "TaskName": "str1back",
  "TotalReadoutTime": 0.0522511,
  "dcmmeta_affine": [
    [-2.498976230621338, 0.035767022520303726, -0.06195845082402229, 122.24299621582031],
    [0.036482613533735275, 2.4995710849761963, -0.02851857990026474, -111.58646392822266],
    [-0.06153981015086174, 0.029411062598228455, 2.4990694522857666, -66.34745025634766],
    [0.0, 0.0, 0.0, 1.0]
],
  "dcmmeta_reorient_transform": [
    [0.0, -1.0, 0.0, 95.0],
    [1.0, 0.0, 0.0, 0.0],
    [0.0, 0.0, 1.0, 0.0],
    [0.0, 0.0, 0.0, 1.0]
],
  "dcmmeta_shape": [96, 96, 56, 280],
  "dcmmeta_slice_dim": 2,
  "dcmmeta_version": 0.6,
  "global": {
    "const": {
      "AccessionNumber": "A000604",
      "AcquisitionMatrix": [96, 0, 0, 96],
      "AngioFlag": "N",
      "BitsAllocated": 16,
      "BitsStored": 12,
      "BodyPartExamined": "BRAIN",
      "Columns": 768,
      "EchoNumbers": 1,
      "EchoTime": 33.0,
      "EchoTrainLength": 96,
      "FlipAngle": 64.0,
      "HighBit": 11,
      "ImageOrientationPatient": [0.99959046579317, -0.0145930451392, -0.0246159242963, 0.01430680852559, 0.99982844205438, -0.0117644247169],
      "ImagePositionPatient": [-977.3145707926, -953.47052611688, -32.993909441968],
      "ImageType": [
        "ORIGINAL",
        "PRIMARY",
        "FMRI",
        "NONE",
        "ND",
        "NORM",
        "MOSAIC"
],
      "ImagedNucleus": "1H",
      "ImagingFrequency": 123.252368,
      "InPlanePhaseEncodingDirection": "COL",
      "MRAcquisitionType": "2D",
      "MagneticFieldStrength": 3.0,
      "Manufacturer": "SIEMENS",
      "ManufacturerModelName": "Prisma",
      "Modality": "MR",
      "NumberOfAverages": 1.0,
      "NumberOfPhaseEncodingSteps": 96,
      "PercentPhaseFieldOfView": 100.0,
      "PercentSampling": 100.0,
      "PerformedProcedureStepStartTime": "175429.251000",
      "PhotometricInterpretation": "MONOCHROME2",
      "PixelBandwidth": 2265.0,
      "PixelRepresentation": 0,
      "PixelSpacing": [2.5, 2.5],
      "PositionReferenceIndicator": "",
      "ProtocolName": "func_run-07_task-str1back",
      "RepetitionTime": 1250.0,
      "Rows": 768,
      "SAR": 0.04876079892454,
      "SamplesPerPixel": 1,
      "ScanOptions": "FS",
      "ScanningSequence": "EP",
      "SequenceName": "*epfid2d1_96",
      "SequenceVariant": "SK",
      "SeriesDescription": "func_run-07_task-str1back",
      "SeriesNumber": 50,
      "SeriesTime": "184443.549000",
      "SliceLocation": -68.079435812736,
      "SliceThickness": 2.5,
      "SmallestImagePixelValue": 0,
      "SoftwareVersions": "syngo MR E11",
      "SpacingBetweenSlices": 2.5000000961071,
      "SpecificCharacterSet": "ISO_IR 100",
      "StudyID": "1",
      "StudyTime": "175429.196000",
      "TransmitCoilName": "Body",
      "VariableFlipAngleFlag": "N",
      "WindowCenterWidthExplanation": "Algo1",
      "dBdt": 0.0},
    "slices": {}
  },
  "time": {
    "samples": {
      "AcquisitionNumber": [1, 2, 3, 4, 5, 6, 7, 8, 9, 10, 11, 12, 13, 14, 15, 16, 17, 18, 19, 20, 21, 22, 23, 24, 25, 26, 27, 28, 29, 30, 31, 32, 33, 34, 35, 36, 37, 38, 39, 40, 41, 42, 43, 44, 45, 46, 47, 48, 49, 50, 51, 52, 53, 54, 55, 56, 57, 58, 59, 60, 61, 62, 63, 64, 65, 66, 67, 68, 69, 70, 71, 72, 73, 74, 75, 76, 77, 78, 79, 80, 81, 82, 83, 84, 85, 86, 87, 88, 89, 90, 91, 92, 93, 94, 95, 96, 97, 98, 99, 100, 101, 102, 103, 104, 105, 106, 107, 108, 109, 110, 111, 112, 113, 114, 115, 116, 117, 118, 119, 120, 121, 122, 123, 124, 125, 126, 127, 128, 129, 130, 131, 132, 133, 134, 135, 136, 137, 138, 139, 140, 141, 142, 143, 144, 145, 146, 147, 148, 149, 150, 151, 152, 153, 154, 155, 156, 157, 158, 159, 160, 161, 162, 163, 164, 165, 166, 167, 168, 169, 170, 171, 172, 173, 174, 175, 176, 177, 178, 179, 180, 181, 182, 183, 184, 185, 186, 187, 188, 189, 190, 191, 192, 193, 194, 195, 196, 197, 198, 199, 200, 201, 202, 203, 204, 205, 206, 207, 208, 209, 210, 211, 212, 213, 214, 215, 216, 217, 218, 219, 220, 221, 222, 223, 224, 225, 226, 227, 228, 229, 230, 231, 232, 233, 234, 235, 236, 237, 238, 239, 240, 241, 242, 243, 244, 245, 246, 247, 248, 249, 250, 251, 252, 253, 254, 255, 256, 257, 258, 259, 260, 261, 262, 263, 264, 265, 266, 267, 268, 269, 270, 271, 272, 273, 274, 275, 276, 277, 278, 279, 280],
      "AcquisitionTime": ["184442.350000", "184443.600000", "184444.850000", "184446.100000", "184447.350000", "184448.600000", "184449.850000", "184451.100000", "184452.350000", "184453.600000", "184454.850000", "184456.100000", "184457.350000", "184458.600000", "184459.850000", "184501.100000", "184502.350000", "184503.600000", "184504.850000", "184506.100000", "184507.350000", "184508.600000", "184509.850000", "184511.100000", "184512.350000", "184513.600000", "184514.850000", "184516.100000", "184517.350000", "184518.600000", "184519.850000", "184521.100000", "184522.350000", "184523.600000", "184524.850000", "184526.100000", "184527.350000", "184528.600000", "184529.850000", "184531.100000", "184532.350000", "184533.600000", "184534.850000", "184536.100000", "184537.350000", "184538.600000", "184539.850000", "184541.100000", "184542.350000", "184543.600000", "184544.850000", "184546.100000", "184547.350000", "184548.600000", "184549.850000", "184551.100000", "184552.350000", "184553.600000", "184554.850000", "184556.100000", "184557.350000", "184558.600000", "184559.850000", "184601.100000", "184602.350000", "184603.600000", "184604.850000", "184606.100000", "184607.350000", "184608.600000", "184609.850000", "184611.100000", "184612.350000", "184613.600000", "184614.850000", "184616.100000", "184617.350000", "184618.600000", "184619.850000", "184621.100000", "184622.350000", "184623.600000", "184624.850000", "184626.100000", "184627.350000", "184628.600000", "184629.850000", "184631.100000", "184632.350000", "184633.600000", "184634.850000", "184636.100000", "184637.350000", "184638.600000", "184639.850000", "184641.100000", "184642.350000", "184643.600000", "184644.850000", "184646.100000", "184647.350000", "184648.600000", "184649.850000", "184651.100000", "184652.350000", "184653.600000", "184654.850000", "184656.100000", "184657.350000", "184658.600000", "184659.850000", "184701.100000", "184702.350000", "184703.600000", "184704.850000", "184706.100000", "184707.350000", "184708.600000", "184709.850000", "184711.100000", "184712.350000", "184713.600000", "184714.850000", "184716.100000", "184717.350000", "184718.600000", "184719.850000", "184721.100000", "184722.350000", "184723.600000", "184724.850000", "184726.100000", "184727.350000", "184728.600000", "184729.850000", "184731.100000", "184732.350000", "184733.600000", "184734.850000", "184736.100000", "184737.350000", "184738.600000", "184739.850000", "184741.100000", "184742.350000", "184743.600000", "184744.850000", "184746.100000", "184747.350000", "184748.600000", "184749.850000", "184751.100000", "184752.350000", "184753.600000", "184754.850000", "184756.100000", "184757.350000", "184758.600000", "184759.850000", "184801.100000", "184802.350000", "184803.600000", "184804.850000", "184806.100000", "184807.350000", "184808.600000", "184809.850000", "184811.100000", "184812.350000", "184813.600000", "184814.850000", "184816.100000", "184817.350000", "184818.600000", "184819.850000", "184821.100000", "184822.350000", "184823.600000", "184824.850000", "184826.100000", "184827.350000", "184828.600000", "184829.850000", "184831.100000", "184832.350000", "184833.600000", "184834.850000", "184836.100000", "184837.350000", "184838.600000", "184839.850000", "184841.100000", "184842.350000", "184843.600000", "184844.850000", "184846.100000", "184847.350000", "184848.600000", "184849.850000", "184851.100000", "184852.350000", "184853.600000", "184854.850000", "184856.100000", "184857.350000", "184858.600000", "184859.850000", "184901.100000", "184902.350000", "184903.600000", "184904.850000", "184906.100000", "184907.350000", "184908.600000", "184909.850000", "184911.100000", "184912.350000", "184913.600000", "184914.850000", "184916.100000", "184917.350000", "184918.600000", "184919.850000", "184921.100000", "184922.350000", "184923.600000", "184924.850000", "184926.100000", "184927.350000", "184928.600000", "184929.850000", "184931.100000", "184932.350000", "184933.600000", "184934.850000", "184936.100000", "184937.350000", "184938.600000", "184939.850000", "184941.100000", "184942.350000", "184943.600000", "184944.850000", "184946.100000", "184947.350000", "184948.600000", "184949.850000", "184951.100000", "184952.350000", "184953.600000", "184954.850000", "184956.100000", "184957.350000", "184958.600000", "184959.850000", "185001.100000", "185002.350000", "185003.600000", "185004.850000", "185006.100000", "185007.350000", "185008.600000", "185009.850000", "185011.100000", "185012.350000", "185013.600000", "185014.850000", "185016.100000", "185017.350000", "185018.600000", "185019.850000", "185021.100000", "185022.350000", "185023.600000", "185024.850000", "185026.100000", "185027.350000", "185028.600000", "185029.850000", "185031.100000"],
      "ContentTime": ["184443.553000", "184444.639000", "184445.842000", "184447.133000", "184448.392000", "184449.599000", "184450.863000", "184452.121000", "184453.347000", "184454.606000", "184455.838000", "184457.080000", "184458.358000", "184459.628000", "184500.851000", "184502.104000", "184503.357000", "184504.584000", "184505.843000", "184507.106000", "184508.367000", "184509.611000", "184510.850000", "184512.091000", "184513.320000", "184514.632000", "184515.837000", "184517.088000", "184518.354000", "184519.592000", "184520.834000", "184522.101000", "184523.364000", "184524.621000", "184525.824000", "184527.104000", "184528.345000", "184529.655000", "184530.829000", "184532.145000", "184533.387000", "184534.597000", "184535.836000", "184537.103000", "184538.340000", "184539.580000", "184540.882000", "184542.170000", "184543.349000", "184544.616000", "184545.834000", "184547.135000", "184548.385000", "184549.603000", "184550.866000", "184552.122000", "184553.339000", "184554.589000", "184555.819000", "184557.098000", "184558.371000", "184559.630000", "184600.857000", "184602.184000", "184603.367000", "184604.594000", "184605.819000", "184607.064000", "184608.313000", "184609.589000", "184610.849000", "184612.086000", "184613.362000", "184614.590000", "184615.845000", "184617.098000", "184618.347000", "184619.585000", "184620.846000", "184622.079000", "184623.357000", "184624.585000", "184625.839000", "184627.080000", "184628.336000", "184629.581000", "184630.870000", "184632.126000", "184633.406000", "184634.614000", "184635.839000", "184637.123000", "184638.334000", "184639.608000", "184640.890000", "184642.074000", "184643.362000", "184644.578000", "184645.861000", "184647.108000", "184648.376000", "184649.631000", "184650.868000", "184652.126000", "184653.327000", "184654.622000", "184655.856000", "184657.119000", "184658.393000", "184659.629000", "184700.871000", "184702.094000", "184703.348000", "184704.609000", "184705.866000", "184707.108000", "184708.353000", "184709.588000", "184710.874000", "184712.129000", "184713.344000", "184714.592000", "184715.877000", "184717.132000", "184718.364000", "184719.638000", "184720.882000", "184722.176000", "184723.374000", "184724.610000", "184725.869000", "184727.109000", "184728.358000", "184729.598000", "184730.860000", "184732.097000", "184733.374000", "184734.590000", "184735.864000", "184737.110000", "184738.340000", "184739.603000", "184740.874000", "184742.083000", "184743.352000", "184744.609000", "184745.842000", "184747.102000", "184748.382000", "184749.592000", "184750.868000", "184752.130000", "184753.343000", "184754.615000", "184755.874000", "184757.119000", "184758.351000", "184759.589000", "184800.872000", "184802.116000", "184803.342000", "184804.601000", "184805.867000", "184807.113000", "184808.371000", "184809.610000", "184810.827000", "184812.098000", "184813.356000", "184814.672000", "184815.843000", "184817.132000", "184818.335000", "184819.591000", "184820.846000", "184822.107000", "184823.371000", "184824.668000", "184825.847000", "184827.090000", "184828.351000", "184829.620000", "184830.829000", "184832.109000", "184833.340000", "184834.647000", "184835.860000", "184837.117000", "184838.386000", "184839.638000", "184840.867000", "184842.128000", "184843.345000", "184844.605000", "184845.860000", "184847.115000", "184848.369000", "184849.606000", "184850.878000", "184852.099000", "184853.366000", "184854.620000", "184855.873000", "184857.107000", "184858.346000", "184859.620000", "184900.826000", "184902.071000", "184903.350000", "184904.614000", "184905.868000", "184907.100000", "184908.341000", "184909.592000", "184910.863000", "184912.146000", "184913.323000", "184914.609000", "184915.841000", "184917.110000", "184918.387000", "184919.636000", "184920.839000", "184922.104000", "184923.386000", "184924.580000", "184925.840000", "184927.080000", "184928.348000", "184929.612000", "184930.846000", "184932.110000", "184933.381000", "184934.601000", "184935.860000", "184937.103000", "184938.358000", "184939.623000", "184940.858000", "184942.162000", "184943.333000", "184944.641000", "184945.838000", "184947.118000", "184948.344000", "184949.627000", "184950.873000", "184952.139000", "184953.359000", "184954.600000", "184955.839000", "184957.091000", "184958.374000", "184959.606000", "185000.866000", "185002.102000", "185003.375000", "185004.619000", "185005.849000", "185007.118000", "185008.376000", "185009.604000", "185010.860000", "185012.150000", "185013.309000", "185014.641000", "185015.863000", "185017.111000", "185018.354000", "185019.607000", "185020.855000", "185022.143000", "185023.386000", "185024.604000", "185025.867000", "185027.111000", "185028.383000", "185029.628000", "185030.903000", "185032.177000"],
      "InstanceCreationTime": ["184443.553000", "184444.639000", "184445.842000", "184447.133000", "184448.392000", "184449.599000", "184450.863000", "184452.121000", "184453.347000", "184454.606000", "184455.838000", "184457.080000", "184458.358000", "184459.628000", "184500.851000", "184502.104000", "184503.357000", "184504.584000", "184505.843000", "184507.106000", "184508.367000", "184509.611000", "184510.850000", "184512.091000", "184513.320000", "184514.632000", "184515.837000", "184517.088000", "184518.354000", "184519.592000", "184520.834000", "184522.101000", "184523.364000", "184524.621000", "184525.824000", "184527.104000", "184528.345000", "184529.655000", "184530.829000", "184532.145000", "184533.387000", "184534.597000", "184535.836000", "184537.103000", "184538.340000", "184539.580000", "184540.882000", "184542.170000", "184543.349000", "184544.616000", "184545.834000", "184547.135000", "184548.385000", "184549.603000", "184550.866000", "184552.122000", "184553.339000", "184554.589000", "184555.819000", "184557.098000", "184558.371000", "184559.630000", "184600.857000", "184602.184000", "184603.367000", "184604.594000", "184605.819000", "184607.064000", "184608.313000", "184609.589000", "184610.849000", "184612.086000", "184613.362000", "184614.590000", "184615.845000", "184617.098000", "184618.347000", "184619.585000", "184620.846000", "184622.079000", "184623.357000", "184624.585000", "184625.839000", "184627.080000", "184628.336000", "184629.581000", "184630.870000", "184632.126000", "184633.406000", "184634.614000", "184635.839000", "184637.123000", "184638.334000", "184639.608000", "184640.890000", "184642.074000", "184643.362000", "184644.578000", "184645.861000", "184647.108000", "184648.376000", "184649.631000", "184650.868000", "184652.126000", "184653.327000", "184654.622000", "184655.856000", "184657.119000", "184658.393000", "184659.629000", "184700.871000", "184702.094000", "184703.348000", "184704.609000", "184705.866000", "184707.108000", "184708.353000", "184709.588000", "184710.874000", "184712.129000", "184713.344000", "184714.592000", "184715.877000", "184717.132000", "184718.364000", "184719.638000", "184720.882000", "184722.176000", "184723.374000", "184724.610000", "184725.869000", "184727.109000", "184728.358000", "184729.598000", "184730.860000", "184732.097000", "184733.374000", "184734.590000", "184735.864000", "184737.110000", "184738.340000", "184739.603000", "184740.874000", "184742.083000", "184743.352000", "184744.609000", "184745.842000", "184747.102000", "184748.382000", "184749.592000", "184750.868000", "184752.130000", "184753.343000", "184754.615000", "184755.874000", "184757.119000", "184758.351000", "184759.589000", "184800.872000", "184802.116000", "184803.342000", "184804.601000", "184805.867000", "184807.113000", "184808.371000", "184809.610000", "184810.827000", "184812.098000", "184813.356000", "184814.672000", "184815.843000", "184817.132000", "184818.335000", "184819.591000", "184820.846000", "184822.107000", "184823.371000", "184824.668000", "184825.847000", "184827.090000", "184828.351000", "184829.620000", "184830.829000", "184832.109000", "184833.340000", "184834.647000", "184835.860000", "184837.117000", "184838.386000", "184839.638000", "184840.867000", "184842.128000", "184843.345000", "184844.605000", "184845.860000", "184847.115000", "184848.369000", "184849.606000", "184850.878000", "184852.099000", "184853.366000", "184854.620000", "184855.873000", "184857.107000", "184858.346000", "184859.620000", "184900.826000", "184902.071000", "184903.350000", "184904.614000", "184905.868000", "184907.100000", "184908.341000", "184909.592000", "184910.863000", "184912.146000", "184913.323000", "184914.609000", "184915.841000", "184917.110000", "184918.387000", "184919.636000", "184920.839000", "184922.104000", "184923.386000", "184924.580000", "184925.840000", "184927.080000", "184928.348000", "184929.612000", "184930.846000", "184932.110000", "184933.381000", "184934.601000", "184935.860000", "184937.103000", "184938.358000", "184939.623000", "184940.858000", "184942.162000", "184943.333000", "184944.641000", "184945.838000", "184947.118000", "184948.344000", "184949.627000", "184950.873000", "184952.139000", "184953.359000", "184954.600000", "184955.839000", "184957.091000", "184958.374000", "184959.606000", "185000.866000", "185002.102000", "185003.375000", "185004.619000", "185005.849000", "185007.118000", "185008.376000", "185009.604000", "185010.860000", "185012.150000", "185013.309000", "185014.641000", "185015.863000", "185017.111000", "185018.354000", "185019.607000", "185020.855000", "185022.143000", "185023.386000", "185024.604000", "185025.867000", "185027.111000", "185028.383000", "185029.628000", "185030.903000", "185032.177000"],
      "InstanceNumber": [1, 2, 3, 4, 5, 6, 7, 8, 9, 10, 11, 12, 13, 14, 15, 16, 17, 18, 19, 20, 21, 22, 23, 24, 25, 26, 27, 28, 29, 30, 31, 32, 33, 34, 35, 36, 37, 38, 39, 40, 41, 42, 43, 44, 45, 46, 47, 48, 49, 50, 51, 52, 53, 54, 55, 56, 57, 58, 59, 60, 61, 62, 63, 64, 65, 66, 67, 68, 69, 70, 71, 72, 73, 74, 75, 76, 77, 78, 79, 80, 81, 82, 83, 84, 85, 86, 87, 88, 89, 90, 91, 92, 93, 94, 95, 96, 97, 98, 99, 100, 101, 102, 103, 104, 105, 106, 107, 108, 109, 110, 111, 112, 113, 114, 115, 116, 117, 118, 119, 120, 121, 122, 123, 124, 125, 126, 127, 128, 129, 130, 131, 132, 133, 134, 135, 136, 137, 138, 139, 140, 141, 142, 143, 144, 145, 146, 147, 148, 149, 150, 151, 152, 153, 154, 155, 156, 157, 158, 159, 160, 161, 162, 163, 164, 165, 166, 167, 168, 169, 170, 171, 172, 173, 174, 175, 176, 177, 178, 179, 180, 181, 182, 183, 184, 185, 186, 187, 188, 189, 190, 191, 192, 193, 194, 195, 196, 197, 198, 199, 200, 201, 202, 203, 204, 205, 206, 207, 208, 209, 210, 211, 212, 213, 214, 215, 216, 217, 218, 219, 220, 221, 222, 223, 224, 225, 226, 227, 228, 229, 230, 231, 232, 233, 234, 235, 236, 237, 238, 239, 240, 241, 242, 243, 244, 245, 246, 247, 248, 249, 250, 251, 252, 253, 254, 255, 256, 257, 258, 259, 260, 261, 262, 263, 264, 265, 266, 267, 268, 269, 270, 271, 272, 273, 274, 275, 276, 277, 278, 279, 280],
      "LargestImagePixelValue": [1274, 1251, 1003, 1207, 1686, 1197, 982, 1282, 1355, 927, 927, 1404, 1278, 942, 1139, 1339, 1447, 1013, 1044, 1373, 1245, 1062, 1042, 1546, 921, 1132, 1448, 1320, 1107, 1295, 1556, 1016, 1523, 1624, 1025, 1108, 1535, 1096, 961, 1453, 1570, 1015, 989, 1477, 932, 942, 1432, 1267, 1177, 1256, 1691, 1010, 1102, 1519, 916, 1188, 1502, 1389, 1059, 1233, 1614, 1077, 1010, 1213, 1366, 1124, 996, 1189, 1694, 1104, 954, 1480, 1536, 1021, 930, 1293, 1295, 953, 1236, 1565, 1250, 951, 1336, 1629, 959, 947, 1499, 1471, 961, 1076, 1499, 1225, 1089, 1177, 1541, 1266, 1089, 1142, 1595, 1062, 1134, 1358, 1285, 966, 1243, 1527, 936, 1069, 1620, 1230, 1070, 1228, 1641, 975, 1014, 1493, 1303, 1028, 1157, 1640, 991, 1058, 1272, 1661, 927, 1038, 1449, 1444, 948, 1035, 1491, 1247, 1110, 995, 1525, 1165, 1104, 1079, 1590, 970, 1031, 1561, 1461, 955, 974, 1571, 1272, 981, 928, 1459, 1320, 962, 931, 1454, 1201, 1150, 1133, 1646, 1241, 973, 980, 1393, 1620, 1226, 984, 1129, 1342, 1631, 937, 980, 1279, 1485, 970, 1016, 1641, 1178, 1168, 1135, 1640, 1088, 1109, 1312, 1379, 958, 1366, 1578, 950, 953, 1615, 1145, 1104, 1244, 1512, 945, 1173, 1518, 934, 964, 1536, 1519, 996, 1140, 1510, 972, 934, 1428, 1001, 1085, 1388, 1672, 1064, 1120, 1286, 1388, 947, 1170, 1414, 1084, 982, 1525, 1428, 912, 970, 1537, 1224, 1056, 998, 1599, 1068, 1077, 1314, 1502, 1030, 1096, 1583, 1433, 956, 955, 1451, 1417, 956, 962, 1402, 1557, 1080, 946, 1337, 1546, 1010, 1168, 1325, 1669, 1149, 1092, 997, 1572, 1207, 1004, 948, 1517, 1480, 1024, 940, 1370, 1603, 1159, 955, 1182, 1500, 1106, 1015, 1065, 1537, 1124, 1079, 1078, 1574, 1126, 1122, 1069],
      "WindowCenter": [428.0, 426.0, 423.0, 425.0, 428.0, 424.0, 421.0, 424.0, 425.0, 421.0, 422.0, 427.0, 425.0, 422.0, 424.0, 426.0, 427.0, 423.0, 424.0, 427.0, 426.0, 424.0, 424.0, 429.0, 423.0, 426.0, 428.0, 427.0, 424.0, 426.0, 429.0, 423.0, 428.0, 428.0, 422.0, 423.0, 427.0, 423.0, 421.0, 426.0, 427.0, 422.0, 421.0, 426.0, 421.0, 421.0, 426.0, 425.0, 425.0, 425.0, 428.0, 422.0, 423.0, 427.0, 421.0, 424.0, 426.0, 425.0, 423.0, 425.0, 427.0, 422.0, 422.0, 424.0, 426.0, 424.0, 423.0, 424.0, 429.0, 423.0, 421.0, 427.0, 427.0, 422.0, 421.0, 426.0, 426.0, 423.0, 425.0, 427.0, 424.0, 421.0, 426.0, 428.0, 422.0, 421.0, 427.0, 426.0, 422.0, 423.0, 427.0, 424.0, 423.0, 423.0, 426.0, 424.0, 422.0, 423.0, 427.0, 422.0, 423.0, 425.0, 424.0, 421.0, 424.0, 427.0, 422.0, 422.0, 427.0, 424.0, 422.0, 424.0, 427.0, 422.0, 422.0, 426.0, 425.0, 422.0, 423.0, 427.0, 422.0, 422.0, 424.0, 427.0, 420.0, 421.0, 425.0, 425.0, 420.0, 421.0, 426.0, 424.0, 423.0, 421.0, 426.0, 423.0, 422.0, 423.0, 427.0, 422.0, 423.0, 427.0, 426.0, 421.0, 422.0, 427.0, 424.0, 421.0, 421.0, 425.0, 425.0, 421.0, 421.0, 426.0, 424.0, 424.0, 424.0, 428.0, 425.0, 422.0, 421.0, 426.0, 427.0, 424.0, 421.0, 422.0, 425.0, 427.0, 421.0, 422.0, 425.0, 427.0, 422.0, 423.0, 428.0, 424.0, 423.0, 423.0, 427.0, 422.0, 422.0, 424.0, 425.0, 422.0, 426.0, 427.0, 422.0, 421.0, 427.0, 423.0, 422.0, 424.0, 427.0, 421.0, 424.0, 426.0, 421.0, 422.0, 427.0, 426.0, 422.0, 423.0, 426.0, 422.0, 421.0, 426.0, 423.0, 424.0, 426.0, 428.0, 423.0, 422.0, 424.0, 425.0, 422.0, 424.0, 426.0, 423.0, 422.0, 426.0, 426.0, 421.0, 422.0, 427.0, 424.0, 422.0, 422.0, 427.0, 423.0, 423.0, 425.0, 427.0, 423.0, 423.0, 427.0, 426.0, 421.0, 420.0, 425.0, 425.0, 422.0, 421.0, 426.0, 427.0, 423.0, 421.0, 425.0, 427.0, 422.0, 423.0, 425.0, 426.0, 422.0, 422.0, 421.0, 426.0, 423.0, 421.0, 421.0, 427.0, 426.0, 422.0, 421.0, 425.0, 427.0, 422.0, 420.0, 423.0, 426.0, 423.0, 422.0, 423.0, 427.0, 423.0, 422.0, 423.0, 427.0, 423.0, 423.0, 423.0],
      "WindowWidth": [905.0, 901.0, 896.0, 898.0, 902.0, 896.0, 892.0, 897.0, 898.0, 893.0, 893.0, 900.0, 898.0, 894.0, 897.0, 900.0, 901.0, 896.0, 896.0, 900.0, 899.0, 897.0, 897.0, 904.0, 896.0, 900.0, 903.0, 901.0, 898.0, 900.0, 904.0, 895.0, 902.0, 902.0, 894.0, 895.0, 901.0, 895.0, 893.0, 899.0, 901.0, 893.0, 893.0, 898.0, 892.0, 892.0, 900.0, 898.0, 897.0, 898.0, 902.0, 894.0, 895.0, 900.0, 893.0, 897.0, 900.0, 898.0, 894.0, 897.0, 900.0, 894.0, 893.0, 896.0, 899.0, 896.0, 895.0, 897.0, 903.0, 895.0, 893.0, 900.0, 900.0, 894.0, 893.0, 899.0, 899.0, 895.0, 899.0, 901.0, 897.0, 892.0, 898.0, 902.0, 893.0, 893.0, 900.0, 899.0, 893.0, 895.0, 900.0, 897.0, 895.0, 895.0, 899.0, 896.0, 893.0, 895.0, 900.0, 893.0, 895.0, 898.0, 896.0, 892.0, 897.0, 901.0, 893.0, 894.0, 901.0, 896.0, 894.0, 896.0, 900.0, 893.0, 893.0, 899.0, 897.0, 894.0, 894.0, 901.0, 893.0, 893.0, 896.0, 900.0, 891.0, 892.0, 897.0, 897.0, 890.0, 892.0, 898.0, 895.0, 894.0, 891.0, 898.0, 894.0, 894.0, 895.0, 901.0, 894.0, 895.0, 901.0, 899.0, 892.0, 893.0, 900.0, 896.0, 892.0, 892.0, 898.0, 898.0, 892.0, 892.0, 899.0, 896.0, 896.0, 896.0, 902.0, 898.0, 893.0, 893.0, 898.0, 900.0, 896.0, 892.0, 893.0, 897.0, 899.0, 891.0, 893.0, 898.0, 901.0, 895.0, 895.0, 901.0, 896.0, 895.0, 895.0, 901.0, 894.0, 894.0, 896.0, 898.0, 893.0, 899.0, 901.0, 894.0, 892.0, 900.0, 895.0, 894.0, 896.0, 900.0, 892.0, 895.0, 899.0, 893.0, 893.0, 900.0, 899.0, 893.0, 895.0, 899.0, 893.0, 892.0, 900.0, 895.0, 897.0, 900.0, 902.0, 894.0, 894.0, 896.0, 897.0, 893.0, 896.0, 900.0, 896.0, 894.0, 899.0, 898.0, 893.0, 893.0, 900.0, 897.0, 894.0, 893.0, 901.0, 895.0, 894.0, 898.0, 900.0, 895.0, 896.0, 901.0, 899.0, 891.0, 891.0, 898.0, 898.0, 893.0, 893.0, 899.0, 901.0, 895.0, 893.0, 898.0, 901.0, 894.0, 895.0, 897.0, 899.0, 893.0, 892.0, 891.0, 898.0, 895.0, 892.0, 892.0, 900.0, 900.0, 893.0, 891.0, 898.0, 900.0, 894.0, 891.0, 894.0, 898.0, 894.0, 894.0, 894.0, 900.0, 895.0, 894.0, 894.0, 901.0, 895.0, 896.0, 894.0]
    },
    "slices": {}
  }
}