{
  "AcquisitionMatrixPE": 96,
  "AcquisitionNumber": 1,
  "AcquisitionTime": "18:23:57.622500",
  "BandwidthPerPixelPhaseEncode": 18.939,
  "BaseResolution": 96,
  "BodyPartExamined": "BRAIN",
  "ConsistencyInfo": "N4_VE11C_LATEST_20160120",
  "ConversionSoftware": "dcm2niix",
  "ConversionSoftwareVersion": "v1.0.20170923 (OpenJPEG build) GCC6.3.0",
  "DerivedVendorReportedEchoSpacing": 0.000550011,
  "DeviceSerialNumber": "66112",
  "DwellTime": 2.3e-06,
  "EchoTime": 0.033,
  "EchoTrainLength": 96,
  "EffectiveEchoSpacing": 0.000550011,
  "FlipAngle": 64,
  "ImageType": [
    "ORIGINAL",
    "PRIMARY",
    "FMRI",
    "NONE",
    "ND",
    "NORM",
    "MOSAIC"
],
  "InstitutionAddress": "Maynard_3_Hanover_NH_US_03755",
  "InstitutionName": "Dartmouth_College_-_PBS",
  "MagneticFieldStrength": 3,
  "Manufacturer": "Siemens",
  "ManufacturersModelName": "Prisma",
  "Modality": "MR",
  "MultibandAccelerationFactor": 4,
  "PartialFourier": 1,
  "PercentPhaseFOV": 100,
  "PhaseEncodingDirection": "j-",
  "PhaseEncodingSteps": 96,
  "PhaseResolution": 1,
  "ProcedureStepDescription": "Gobbini_Matteo_1017_famface-angles",
  "ProtocolName": "func_run-04_task-str1back",
  "PulseSequenceDetails": "%SiemensSeq%_ep2d_bold",
  "ReceiveCoilActiveElements": "HEA;HEP",
  "ReceiveCoilName": "Head_32",
  "ReconMatrixPE": 96,
  "RepetitionTime": 1.25,
  "ScanOptions": "FS",
  "ScanningSequence": "EP",
  "SequenceName": "_epfid2d1_96",
  "SequenceVariant": "SK",
  "SeriesDescription": "func_run-04_task-str1back",
  "SliceTiming": [0.8775, 0, 0.615, 0.0875, 0.7025, 0.175, 0.79, 0.35, 0.965, 0.4375, 1.0525, 0.5275, 1.1425, 0.2625, 0.8775, 0, 0.615, 0.0875, 0.7025, 0.175, 0.79, 0.35, 0.965, 0.4375, 1.0525, 0.5275, 1.1425, 0.2625, 0.8775, 0, 0.615, 0.0875, 0.7025, 0.175, 0.79, 0.35, 0.965, 0.4375, 1.0525, 0.5275, 1.1425, 0.2625, 0.8775, 0, 0.615, 0.0875, 0.7025, 0.175, 0.79, 0.35, 0.965, 0.4375, 1.0525, 0.5275, 1.1425, 0.2625],
  "SoftwareVersions": "syngo_MR_E11",
  "StationName": "AWP66112",
  "TaskName": "str1back",
  "TotalReadoutTime": 0.0522511,
  "dcmmeta_affine": [
    [-2.498976230621338, 0.035767022520303726, -0.06195845082402229, 122.24299621582031],
    [0.036482613533735275, 2.4995710849761963, -0.02851857990026474, -111.58646392822266],
    [-0.06153981015086174, 0.029411062598228455, 2.4990694522857666, -66.34745025634766],
    [0.0, 0.0, 0.0, 1.0]
],
  "dcmmeta_reorient_transform": [
    [0.0, -1.0, 0.0, 95.0],
    [1.0, 0.0, 0.0, 0.0],
    [0.0, 0.0, 1.0, 0.0],
    [0.0, 0.0, 0.0, 1.0]
],
  "dcmmeta_shape": [96, 96, 56, 280],
  "dcmmeta_slice_dim": 2,
  "dcmmeta_version": 0.6,
  "global": {
    "const": {
      "AccessionNumber": "A000604",
      "AcquisitionMatrix": [96, 0, 0, 96],
      "AngioFlag": "N",
      "BitsAllocated": 16,
      "BitsStored": 12,
      "BodyPartExamined": "BRAIN",
      "Columns": 768,
      "EchoNumbers": 1,
      "EchoTime": 33.0,
      "EchoTrainLength": 96,
      "FlipAngle": 64.0,
      "HighBit": 11,
      "ImageOrientationPatient": [0.99959046579317, -0.0145930451392, -0.0246159242963, 0.01430680852559, 0.99982844205438, -0.0117644247169],
      "ImagePositionPatient": [-977.3145707926, -953.47052611688, -32.993909441968],
      "ImageType": [
        "ORIGINAL",
        "PRIMARY",
        "FMRI",
        "NONE",
        "ND",
        "NORM",
        "MOSAIC"
],
      "ImagedNucleus": "1H",
      "ImagingFrequency": 123.252363,
      "InPlanePhaseEncodingDirection": "COL",
      "MRAcquisitionType": "2D",
      "MagneticFieldStrength": 3.0,
      "Manufacturer": "SIEMENS",
      "ManufacturerModelName": "Prisma",
      "Modality": "MR",
      "NumberOfAverages": 1.0,
      "NumberOfPhaseEncodingSteps": 96,
      "PercentPhaseFieldOfView": 100.0,
      "PercentSampling": 100.0,
      "PerformedProcedureStepStartTime": "175429.251000",
      "PhotometricInterpretation": "MONOCHROME2",
      "PixelBandwidth": 2265.0,
      "PixelRepresentation": 0,
      "PixelSpacing": [2.5, 2.5],
      "PositionReferenceIndicator": "",
      "ProtocolName": "func_run-04_task-str1back",
      "RepetitionTime": 1250.0,
      "Rows": 768,
      "SAR": 0.04876079892454,
      "SamplesPerPixel": 1,
      "ScanOptions": "FS",
      "ScanningSequence": "EP",
      "SequenceName": "*epfid2d1_96",
      "SequenceVariant": "SK",
      "SeriesDescription": "func_run-04_task-str1back",
      "SeriesNumber": 29,
      "SeriesTime": "182359.353000",
      "SliceLocation": -68.079435812736,
      "SliceThickness": 2.5,
      "SmallestImagePixelValue": 0,
      "SoftwareVersions": "syngo MR E11",
      "SpacingBetweenSlices": 2.5000000961071,
      "SpecificCharacterSet": "ISO_IR 100",
      "StudyID": "1",
      "StudyTime": "175429.196000",
      "TransmitCoilName": "Body",
      "VariableFlipAngleFlag": "N",
      "WindowCenterWidthExplanation": "Algo1",
      "dBdt": 0.0},
    "slices": {}
  },
  "time": {
    "samples": {
      "AcquisitionNumber": [1, 2, 3, 4, 5, 6, 7, 8, 9, 10, 11, 12, 13, 14, 15, 16, 17, 18, 19, 20, 21, 22, 23, 24, 25, 26, 27, 28, 29, 30, 31, 32, 33, 34, 35, 36, 37, 38, 39, 40, 41, 42, 43, 44, 45, 46, 47, 48, 49, 50, 51, 52, 53, 54, 55, 56, 57, 58, 59, 60, 61, 62, 63, 64, 65, 66, 67, 68, 69, 70, 71, 72, 73, 74, 75, 76, 77, 78, 79, 80, 81, 82, 83, 84, 85, 86, 87, 88, 89, 90, 91, 92, 93, 94, 95, 96, 97, 98, 99, 100, 101, 102, 103, 104, 105, 106, 107, 108, 109, 110, 111, 112, 113, 114, 115, 116, 117, 118, 119, 120, 121, 122, 123, 124, 125, 126, 127, 128, 129, 130, 131, 132, 133, 134, 135, 136, 137, 138, 139, 140, 141, 142, 143, 144, 145, 146, 147, 148, 149, 150, 151, 152, 153, 154, 155, 156, 157, 158, 159, 160, 161, 162, 163, 164, 165, 166, 167, 168, 169, 170, 171, 172, 173, 174, 175, 176, 177, 178, 179, 180, 181, 182, 183, 184, 185, 186, 187, 188, 189, 190, 191, 192, 193, 194, 195, 196, 197, 198, 199, 200, 201, 202, 203, 204, 205, 206, 207, 208, 209, 210, 211, 212, 213, 214, 215, 216, 217, 218, 219, 220, 221, 222, 223, 224, 225, 226, 227, 228, 229, 230, 231, 232, 233, 234, 235, 236, 237, 238, 239, 240, 241, 242, 243, 244, 245, 246, 247, 248, 249, 250, 251, 252, 253, 254, 255, 256, 257, 258, 259, 260, 261, 262, 263, 264, 265, 266, 267, 268, 269, 270, 271, 272, 273, 274, 275, 276, 277, 278, 279, 280],
      "AcquisitionTime": ["182357.622500", "182358.872500", "182400.122500", "182401.372500", "182402.622500", "182403.872500", "182405.122500", "182406.372500", "182407.622500", "182408.872500", "182410.122500", "182411.372500", "182412.622500", "182413.872500", "182415.122500", "182416.372500", "182417.622500", "182418.872500", "182420.122500", "182421.372500", "182422.622500", "182423.872500", "182425.122500", "182426.372500", "182427.622500", "182428.872500", "182430.122500", "182431.372500", "182432.622500", "182433.872500", "182435.122500", "182436.372500", "182437.622500", "182438.872500", "182440.122500", "182441.372500", "182442.622500", "182443.872500", "182445.122500", "182446.372500", "182447.622500", "182448.872500", "182450.122500", "182451.372500", "182452.622500", "182453.872500", "182455.122500", "182456.372500", "182457.622500", "182458.872500", "182500.122500", "182501.372500", "182502.622500", "182503.872500", "182505.122500", "182506.372500", "182507.622500", "182508.872500", "182510.122500", "182511.372500", "182512.622500", "182513.872500", "182515.122500", "182516.372500", "182517.622500", "182518.872500", "182520.122500", "182521.372500", "182522.622500", "182523.872500", "182525.122500", "182526.372500", "182527.622500", "182528.872500", "182530.122500", "182531.372500", "182532.622500", "182533.872500", "182535.122500", "182536.372500", "182537.622500", "182538.872500", "182540.122500", "182541.372500", "182542.622500", "182543.872500", "182545.122500", "182546.372500", "182547.622500", "182548.872500", "182550.122500", "182551.372500", "182552.622500", "182553.872500", "182555.122500", "182556.372500", "182557.622500", "182558.872500", "182600.122500", "182601.372500", "182602.622500", "182603.872500", "182605.122500", "182606.372500", "182607.622500", "182608.872500", "182610.122500", "182611.372500", "182612.622500", "182613.872500", "182615.122500", "182616.372500", "182617.622500", "182618.872500", "182620.122500", "182621.372500", "182622.622500", "182623.872500", "182625.122500", "182626.372500", "182627.622500", "182628.872500", "182630.122500", "182631.372500", "182632.622500", "182633.872500", "182635.122500", "182636.372500", "182637.622500", "182638.872500", "182640.122500", "182641.372500", "182642.622500", "182643.872500", "182645.122500", "182646.372500", "182647.622500", "182648.872500", "182650.122500", "182651.372500", "182652.622500", "182653.872500", "182655.122500", "182656.372500", "182657.622500", "182658.872500", "182700.122500", "182701.372500", "182702.622500", "182703.872500", "182705.122500", "182706.372500", "182707.622500", "182708.872500", "182710.122500", "182711.372500", "182712.622500", "182713.872500", "182715.122500", "182716.372500", "182717.622500", "182718.872500", "182720.122500", "182721.372500", "182722.622500", "182723.872500", "182725.122500", "182726.372500", "182727.622500", "182728.872500", "182730.122500", "182731.372500", "182732.622500", "182733.872500", "182735.122500", "182736.372500", "182737.622500", "182738.872500", "182740.122500", "182741.372500", "182742.622500", "182743.872500", "182745.122500", "182746.372500", "182747.622500", "182748.872500", "182750.122500", "182751.372500", "182752.622500", "182753.872500", "182755.122500", "182756.372500", "182757.622500", "182758.872500", "182800.122500", "182801.372500", "182802.622500", "182803.872500", "182805.122500", "182806.372500", "182807.622500", "182808.872500", "182810.122500", "182811.372500", "182812.622500", "182813.872500", "182815.122500", "182816.372500", "182817.622500", "182818.872500", "182820.122500", "182821.372500", "182822.622500", "182823.872500", "182825.122500", "182826.372500", "182827.622500", "182828.872500", "182830.122500", "182831.372500", "182832.622500", "182833.872500", "182835.122500", "182836.372500", "182837.622500", "182838.872500", "182840.122500", "182841.372500", "182842.622500", "182843.872500", "182845.122500", "182846.372500", "182847.622500", "182848.872500", "182850.122500", "182851.372500", "182852.622500", "182853.872500", "182855.122500", "182856.372500", "182857.622500", "182858.872500", "182900.122500", "182901.372500", "182902.622500", "182903.872500", "182905.122500", "182906.372500", "182907.622500", "182908.872500", "182910.122500", "182911.372500", "182912.622500", "182913.872500", "182915.122500", "182916.372500", "182917.622500", "182918.872500", "182920.122500", "182921.372500", "182922.622500", "182923.872500", "182925.122500", "182926.372500", "182927.622500", "182928.872500", "182930.122500", "182931.372500", "182932.622500", "182933.872500", "182935.122500", "182936.372500", "182937.622500", "182938.872500", "182940.122500", "182941.372500", "182942.622500", "182943.872500", "182945.122500", "182946.372500"],
      "ContentTime": ["182359.357000", "182400.382000", "182401.748000", "182402.938000", "182404.188000", "182405.425000", "182406.666000", "182407.891000", "182409.163000", "182410.402000", "182411.713000", "182412.908000", "182414.170000", "182415.404000", "182416.637000", "182417.883000", "182419.170000", "182420.403000", "182421.672000", "182422.932000", "182424.195000", "182425.429000", "182426.648000", "182427.870000", "182429.160000", "182430.403000", "182431.651000", "182432.979000", "182434.172000", "182435.426000", "182436.643000", "182437.892000", "182439.131000", "182440.417000", "182441.650000", "182442.923000", "182444.163000", "182445.402000", "182446.660000", "182447.879000", "182449.146000", "182450.393000", "182451.692000", "182452.936000", "182454.200000", "182455.443000", "182456.667000", "182457.892000", "182459.139000", "182500.397000", "182501.645000", "182502.874000", "182504.172000", "182505.411000", "182506.657000", "182507.904000", "182509.157000", "182510.417000", "182511.642000", "182512.894000", "182514.126000", "182515.377000", "182516.667000", "182517.921000", "182519.139000", "182520.415000", "182521.622000", "182522.878000", "182524.151000", "182525.395000", "182526.643000", "182527.909000", "182529.141000", "182530.414000", "182531.654000", "182532.900000", "182534.132000", "182535.361000", "182536.650000", "182537.916000", "182539.141000", "182540.403000", "182541.662000", "182542.901000", "182544.148000", "182545.432000", "182546.660000", "182547.942000", "182549.167000", "182550.401000", "182551.691000", "182552.907000", "182554.177000", "182555.409000", "182556.684000", "182557.913000", "182559.135000", "182600.416000", "182601.654000", "182602.879000", "182604.152000", "182605.429000", "182606.663000", "182607.984000", "182609.169000", "182610.421000", "182611.659000", "182612.924000", "182614.178000", "182615.431000", "182616.636000", "182617.893000", "182619.169000", "182620.420000", "182621.666000", "182622.927000", "182624.150000", "182625.421000", "182626.674000", "182627.930000", "182629.182000", "182630.400000", "182631.644000", "182632.900000", "182634.179000", "182635.387000", "182636.636000", "182637.922000", "182639.146000", "182640.409000", "182641.688000", "182642.936000", "182644.173000", "182645.406000", "182646.657000", "182647.908000", "182649.187000", "182650.418000", "182651.647000", "182652.916000", "182654.175000", "182655.392000", "182656.650000", "182657.881000", "182659.159000", "182700.425000", "182701.659000", "182702.920000", "182704.134000", "182705.408000", "182706.662000", "182707.925000", "182709.179000", "182710.387000", "182711.651000", "182712.936000", "182714.178000", "182715.419000", "182716.670000", "182717.971000", "182719.145000", "182720.420000", "182721.662000", "182722.898000", "182724.179000", "182725.396000", "182726.647000", "182727.904000", "182729.163000", "182730.395000", "182731.675000", "182732.915000", "182734.175000", "182735.419000", "182736.676000", "182737.925000", "182739.141000", "182740.420000", "182741.662000", "182742.897000", "182744.195000", "182745.453000", "182746.671000", "182747.911000", "182749.146000", "182750.453000", "182751.682000", "182752.912000", "182754.168000", "182755.375000", "182756.688000", "182757.901000", "182759.167000", "182800.408000", "182801.678000", "182802.937000", "182804.160000", "182805.400000", "182806.665000", "182807.934000", "182809.109000", "182810.383000", "182811.662000", "182812.899000", "182814.145000", "182815.397000", "182816.653000", "182817.913000", "182819.172000", "182820.381000", "182821.656000", "182822.915000", "182824.184000", "182825.389000", "182826.681000", "182827.917000", "182829.158000", "182830.394000", "182831.642000", "182832.903000", "182834.154000", "182835.427000", "182836.667000", "182837.921000", "182839.150000", "182840.484000", "182841.692000", "182842.929000", "182844.204000", "182845.412000", "182846.651000", "182847.961000", "182849.157000", "182850.382000", "182851.671000", "182852.908000", "182854.132000", "182855.417000", "182856.696000", "182857.915000", "182859.187000", "182900.407000", "182901.667000", "182902.910000", "182904.157000", "182905.391000", "182906.650000", "182907.900000", "182909.165000", "182910.393000", "182911.662000", "182912.929000", "182914.149000", "182915.395000", "182916.664000", "182917.931000", "182919.183000", "182920.422000", "182921.668000", "182922.929000", "182924.150000", "182925.446000", "182926.668000", "182927.944000", "182929.142000", "182930.394000", "182931.663000", "182932.919000", "182934.165000", "182935.432000", "182936.653000", "182937.916000", "182939.182000", "182940.411000", "182941.634000", "182942.918000", "182944.181000", "182945.410000", "182946.624000", "182947.968000"],
      "InstanceCreationTime": ["182359.357000", "182400.382000", "182401.748000", "182402.938000", "182404.188000", "182405.425000", "182406.666000", "182407.891000", "182409.163000", "182410.402000", "182411.713000", "182412.908000", "182414.170000", "182415.404000", "182416.637000", "182417.883000", "182419.170000", "182420.403000", "182421.672000", "182422.932000", "182424.195000", "182425.429000", "182426.648000", "182427.870000", "182429.160000", "182430.403000", "182431.651000", "182432.979000", "182434.172000", "182435.426000", "182436.643000", "182437.892000", "182439.131000", "182440.417000", "182441.650000", "182442.923000", "182444.163000", "182445.402000", "182446.660000", "182447.879000", "182449.146000", "182450.393000", "182451.692000", "182452.936000", "182454.200000", "182455.443000", "182456.667000", "182457.892000", "182459.139000", "182500.397000", "182501.645000", "182502.874000", "182504.172000", "182505.411000", "182506.657000", "182507.904000", "182509.157000", "182510.417000", "182511.642000", "182512.894000", "182514.126000", "182515.377000", "182516.667000", "182517.921000", "182519.139000", "182520.415000", "182521.622000", "182522.878000", "182524.151000", "182525.395000", "182526.643000", "182527.909000", "182529.141000", "182530.414000", "182531.654000", "182532.900000", "182534.132000", "182535.361000", "182536.650000", "182537.916000", "182539.141000", "182540.403000", "182541.662000", "182542.901000", "182544.148000", "182545.432000", "182546.660000", "182547.942000", "182549.167000", "182550.401000", "182551.691000", "182552.907000", "182554.177000", "182555.409000", "182556.684000", "182557.913000", "182559.135000", "182600.416000", "182601.654000", "182602.879000", "182604.152000", "182605.429000", "182606.663000", "182607.984000", "182609.169000", "182610.421000", "182611.659000", "182612.924000", "182614.178000", "182615.431000", "182616.636000", "182617.893000", "182619.169000", "182620.420000", "182621.666000", "182622.927000", "182624.150000", "182625.421000", "182626.674000", "182627.930000", "182629.182000", "182630.400000", "182631.644000", "182632.900000", "182634.179000", "182635.387000", "182636.636000", "182637.922000", "182639.146000", "182640.409000", "182641.688000", "182642.936000", "182644.173000", "182645.406000", "182646.657000", "182647.908000", "182649.187000", "182650.418000", "182651.647000", "182652.916000", "182654.175000", "182655.392000", "182656.650000", "182657.881000", "182659.159000", "182700.425000", "182701.659000", "182702.920000", "182704.134000", "182705.408000", "182706.662000", "182707.925000", "182709.179000", "182710.387000", "182711.651000", "182712.936000", "182714.178000", "182715.419000", "182716.670000", "182717.971000", "182719.145000", "182720.420000", "182721.662000", "182722.898000", "182724.179000", "182725.396000", "182726.647000", "182727.904000", "182729.163000", "182730.395000", "182731.675000", "182732.915000", "182734.175000", "182735.419000", "182736.676000", "182737.925000", "182739.141000", "182740.420000", "182741.662000", "182742.897000", "182744.195000", "182745.453000", "182746.671000", "182747.911000", "182749.146000", "182750.453000", "182751.682000", "182752.912000", "182754.168000", "182755.375000", "182756.688000", "182757.901000", "182759.167000", "182800.408000", "182801.678000", "182802.937000", "182804.160000", "182805.400000", "182806.665000", "182807.934000", "182809.109000", "182810.383000", "182811.662000", "182812.899000", "182814.145000", "182815.397000", "182816.653000", "182817.913000", "182819.172000", "182820.381000", "182821.656000", "182822.915000", "182824.184000", "182825.389000", "182826.681000", "182827.917000", "182829.158000", "182830.394000", "182831.642000", "182832.903000", "182834.154000", "182835.427000", "182836.667000", "182837.921000", "182839.150000", "182840.484000", "182841.692000", "182842.929000", "182844.204000", "182845.412000", "182846.651000", "182847.961000", "182849.157000", "182850.382000", "182851.671000", "182852.908000", "182854.132000", "182855.417000", "182856.696000", "182857.915000", "182859.187000", "182900.407000", "182901.667000", "182902.910000", "182904.157000", "182905.391000", "182906.650000", "182907.900000", "182909.165000", "182910.393000", "182911.662000", "182912.929000", "182914.149000", "182915.395000", "182916.664000", "182917.931000", "182919.183000", "182920.422000", "182921.668000", "182922.929000", "182924.150000", "182925.446000", "182926.668000", "182927.944000", "182929.142000", "182930.394000", "182931.663000", "182932.919000", "182934.165000", "182935.432000", "182936.653000", "182937.916000", "182939.182000", "182940.411000", "182941.634000", "182942.918000", "182944.181000", "182945.410000", "182946.624000", "182947.968000"],
      "InstanceNumber": [1, 2, 3, 4, 5, 6, 7, 8, 9, 10, 11, 12, 13, 14, 15, 16, 17, 18, 19, 20, 21, 22, 23, 24, 25, 26, 27, 28, 29, 30, 31, 32, 33, 34, 35, 36, 37, 38, 39, 40, 41, 42, 43, 44, 45, 46, 47, 48, 49, 50, 51, 52, 53, 54, 55, 56, 57, 58, 59, 60, 61, 62, 63, 64, 65, 66, 67, 68, 69, 70, 71, 72, 73, 74, 75, 76, 77, 78, 79, 80, 81, 82, 83, 84, 85, 86, 87, 88, 89, 90, 91, 92, 93, 94, 95, 96, 97, 98, 99, 100, 101, 102, 103, 104, 105, 106, 107, 108, 109, 110, 111, 112, 113, 114, 115, 116, 117, 118, 119, 120, 121, 122, 123, 124, 125, 126, 127, 128, 129, 130, 131, 132, 133, 134, 135, 136, 137, 138, 139, 140, 141, 142, 143, 144, 145, 146, 147, 148, 149, 150, 151, 152, 153, 154, 155, 156, 157, 158, 159, 160, 161, 162, 163, 164, 165, 166, 167, 168, 169, 170, 171, 172, 173, 174, 175, 176, 177, 178, 179, 180, 181, 182, 183, 184, 185, 186, 187, 188, 189, 190, 191, 192, 193, 194, 195, 196, 197, 198, 199, 200, 201, 202, 203, 204, 205, 206, 207, 208, 209, 210, 211, 212, 213, 214, 215, 216, 217, 218, 219, 220, 221, 222, 223, 224, 225, 226, 227, 228, 229, 230, 231, 232, 233, 234, 235, 236, 237, 238, 239, 240, 241, 242, 243, 244, 245, 246, 247, 248, 249, 250, 251, 252, 253, 254, 255, 256, 257, 258, 259, 260, 261, 262, 263, 264, 265, 266, 267, 268, 269, 270, 271, 272, 273, 274, 275, 276, 277, 278, 279, 280],
      "LargestImagePixelValue": [1401, 1055, 932, 1256, 1114, 956, 1033, 1513, 1632, 998, 1073, 1184, 1508, 1183, 928, 1207, 1528, 1210, 1083, 995, 1448, 1262, 932, 1164, 1370, 1335, 974, 1099, 1588, 1672, 1275, 1023, 1037, 1473, 1594, 1148, 943, 1155, 1433, 1161, 1075, 1065, 1538, 1362, 1033, 964, 1512, 1430, 910, 1180, 1391, 1683, 972, 1130, 1372, 1643, 1017, 981, 1313, 1483, 1020, 935, 1423, 1646, 1060, 1230, 1314, 1676, 921, 1094, 1205, 1652, 1007, 1126, 1235, 1666, 1019, 1214, 1175, 1623, 1228, 1018, 919, 1284, 1439, 1195, 940, 1052, 1302, 1661, 984, 1138, 1333, 1702, 1301, 1210, 1028, 1525, 1527, 1061, 932, 1130, 1419, 1230, 1011, 933, 1322, 1542, 1244, 1036, 1144, 1535, 1382, 920, 965, 1354, 1500, 1362, 927, 1110, 1205, 1585, 1190, 936, 950, 1308, 1425, 1012, 1070, 1577, 1364, 1004, 1165, 1317, 1577, 947, 1087, 1152, 1633, 1169, 1168, 1162, 1587, 1379, 924, 1174, 1246, 1607, 943, 1001, 1145, 1565, 1230, 987, 938, 1068, 1307, 1308, 1076, 952, 1116, 1277, 1674, 1230, 1025, 956, 1454, 1557, 1181, 955, 1122, 1394, 1323, 931, 950, 1212, 1391, 1171, 947, 1182, 1392, 1580, 1004, 1076, 1229, 1351, 1365, 953, 919, 1127, 1382, 1272, 1026, 945, 1204, 1569, 937, 1186, 1421, 1663, 1350, 1019, 966, 1088, 1651, 935, 1172, 1288, 1530, 1055, 1289, 1593, 957, 1083, 1536, 1074, 1073, 1392, 1404, 965, 1009, 1475, 1000, 1266, 1388, 1539, 1216, 938, 956, 1156, 1469, 1122, 1012, 1112, 1497, 1053, 1249, 1289, 1617, 1309, 988, 1151, 1437, 1508, 1095, 1199, 1570, 1272, 1016, 943, 1401, 1366, 927, 931, 1289, 1082, 1359, 1140, 1686, 1328, 977, 1092, 1219, 1620, 940, 946, 1221, 1523, 1301, 1010, 1118, 1127, 1283, 1486, 1228, 962, 954, 1123, 1459, 1048],
      "WindowCenter": [428.0, 423.0, 422.0, 426.0, 425.0, 423.0, 423.0, 428.0, 428.0, 423.0, 424.0, 425.0, 428.0, 425.0, 422.0, 425.0, 428.0, 426.0, 424.0, 424.0, 428.0, 426.0, 423.0, 425.0, 427.0, 427.0, 424.0, 425.0, 429.0, 429.0, 425.0, 423.0, 423.0, 427.0, 427.0, 424.0, 422.0, 425.0, 428.0, 425.0, 425.0, 424.0, 428.0, 427.0, 424.0, 423.0, 428.0, 427.0, 422.0, 425.0, 427.0, 428.0, 422.0, 423.0, 426.0, 427.0, 422.0, 422.0, 425.0, 427.0, 423.0, 422.0, 427.0, 429.0, 423.0, 425.0, 425.0, 427.0, 421.0, 423.0, 424.0, 428.0, 422.0, 423.0, 424.0, 428.0, 422.0, 424.0, 424.0, 427.0, 423.0, 422.0, 421.0, 424.0, 426.0, 424.0, 421.0, 423.0, 426.0, 429.0, 423.0, 424.0, 426.0, 429.0, 425.0, 423.0, 421.0, 425.0, 426.0, 422.0, 421.0, 423.0, 425.0, 424.0, 423.0, 422.0, 426.0, 428.0, 425.0, 423.0, 423.0, 427.0, 425.0, 421.0, 421.0, 425.0, 426.0, 425.0, 420.0, 422.0, 423.0, 426.0, 424.0, 421.0, 422.0, 426.0, 427.0, 423.0, 424.0, 428.0, 426.0, 422.0, 423.0, 424.0, 426.0, 421.0, 423.0, 423.0, 427.0, 423.0, 423.0, 423.0, 426.0, 424.0, 419.0, 422.0, 423.0, 426.0, 420.0, 421.0, 423.0, 427.0, 424.0, 421.0, 421.0, 422.0, 424.0, 425.0, 423.0, 423.0, 424.0, 426.0, 428.0, 425.0, 422.0, 421.0, 426.0, 426.0, 423.0, 421.0, 423.0, 426.0, 425.0, 422.0, 422.0, 425.0, 426.0, 425.0, 422.0, 425.0, 427.0, 428.0, 423.0, 424.0, 424.0, 425.0, 425.0, 422.0, 422.0, 424.0, 427.0, 426.0, 423.0, 422.0, 426.0, 429.0, 424.0, 426.0, 427.0, 428.0, 425.0, 421.0, 420.0, 422.0, 427.0, 421.0, 424.0, 424.0, 426.0, 422.0, 424.0, 426.0, 421.0, 422.0, 426.0, 422.0, 422.0, 425.0, 425.0, 421.0, 423.0, 428.0, 424.0, 426.0, 426.0, 427.0, 424.0, 421.0, 422.0, 424.0, 427.0, 424.0, 423.0, 424.0, 428.0, 425.0, 426.0, 426.0, 427.0, 424.0, 421.0, 424.0, 427.0, 427.0, 423.0, 423.0, 427.0, 424.0, 421.0, 421.0, 425.0, 425.0, 422.0, 423.0, 427.0, 425.0, 427.0, 424.0, 428.0, 424.0, 421.0, 422.0, 423.0, 426.0, 421.0, 422.0, 425.0, 427.0, 425.0, 422.0, 423.0, 423.0, 425.0, 426.0, 424.0, 422.0, 423.0, 426.0, 430.0, 425.0],
      "WindowWidth": [906.0, 897.0, 894.0, 900.0, 898.0, 896.0, 896.0, 902.0, 903.0, 896.0, 897.0, 899.0, 903.0, 899.0, 894.0, 898.0, 903.0, 899.0, 897.0, 897.0, 902.0, 900.0, 896.0, 899.0, 902.0, 901.0, 897.0, 898.0, 904.0, 905.0, 899.0, 895.0, 895.0, 901.0, 901.0, 896.0, 895.0, 898.0, 902.0, 899.0, 898.0, 897.0, 903.0, 901.0, 897.0, 895.0, 902.0, 901.0, 894.0, 898.0, 900.0, 903.0, 894.0, 895.0, 899.0, 901.0, 894.0, 893.0, 897.0, 900.0, 895.0, 895.0, 901.0, 903.0, 896.0, 898.0, 897.0, 901.0, 891.0, 895.0, 896.0, 902.0, 894.0, 896.0, 897.0, 902.0, 894.0, 896.0, 896.0, 900.0, 895.0, 893.0, 892.0, 896.0, 899.0, 896.0, 892.0, 895.0, 899.0, 903.0, 895.0, 897.0, 900.0, 903.0, 898.0, 895.0, 892.0, 897.0, 898.0, 893.0, 892.0, 894.0, 898.0, 897.0, 895.0, 894.0, 900.0, 902.0, 898.0, 895.0, 896.0, 901.0, 898.0, 893.0, 893.0, 898.0, 899.0, 897.0, 891.0, 893.0, 895.0, 899.0, 896.0, 892.0, 894.0, 899.0, 901.0, 895.0, 896.0, 901.0, 899.0, 893.0, 894.0, 896.0, 899.0, 891.0, 895.0, 895.0, 901.0, 896.0, 895.0, 894.0, 899.0, 896.0, 889.0, 893.0, 894.0, 898.0, 890.0, 892.0, 895.0, 900.0, 897.0, 893.0, 891.0, 893.0, 896.0, 897.0, 896.0, 895.0, 898.0, 899.0, 903.0, 897.0, 893.0, 892.0, 899.0, 900.0, 895.0, 893.0, 896.0, 899.0, 897.0, 893.0, 894.0, 897.0, 900.0, 898.0, 894.0, 898.0, 901.0, 902.0, 895.0, 896.0, 897.0, 898.0, 898.0, 894.0, 893.0, 897.0, 901.0, 899.0, 896.0, 895.0, 900.0, 905.0, 897.0, 900.0, 902.0, 902.0, 898.0, 892.0, 890.0, 892.0, 900.0, 892.0, 896.0, 897.0, 900.0, 893.0, 896.0, 899.0, 892.0, 894.0, 900.0, 894.0, 894.0, 897.0, 897.0, 893.0, 895.0, 902.0, 897.0, 900.0, 900.0, 900.0, 897.0, 892.0, 893.0, 896.0, 901.0, 897.0, 896.0, 898.0, 903.0, 898.0, 900.0, 900.0, 901.0, 896.0, 892.0, 897.0, 900.0, 900.0, 895.0, 895.0, 900.0, 896.0, 892.0, 891.0, 897.0, 897.0, 894.0, 896.0, 901.0, 898.0, 901.0, 896.0, 902.0, 897.0, 891.0, 893.0, 895.0, 899.0, 892.0, 894.0, 899.0, 901.0, 898.0, 894.0, 895.0, 895.0, 897.0, 900.0, 896.0, 894.0, 895.0, 900.0, 906.0, 900.0]
    },
    "slices": {}
  }
}