{
  "AcquisitionMatrixPE": 96,
  "AcquisitionNumber": 1,
  "AcquisitionTime": "15:28:14.352500",
  "BandwidthPerPixelPhaseEncode": 18.939,
  "BaseResolution": 96,
  "BodyPartExamined": "BRAIN",
  "ConsistencyInfo": "N4_VE11C_LATEST_20160120",
  "ConversionSoftware": "dcm2niix",
  "ConversionSoftwareVersion": "v1.0.20170923 (OpenJPEG build) GCC6.3.0",
  "DerivedVendorReportedEchoSpacing": 0.000550011,
  "DeviceSerialNumber": "66112",
  "DwellTime": 2.3e-06,
  "EchoTime": 0.033,
  "EchoTrainLength": 96,
  "EffectiveEchoSpacing": 0.000550011,
  "FlipAngle": 64,
  "ImageType": [
    "ORIGINAL",
    "PRIMARY",
    "FMRI",
    "NONE",
    "ND",
    "NORM",
    "MOSAIC"
],
  "InstitutionAddress": "Maynard_3_Hanover_NH_US_03755",
  "InstitutionName": "Dartmouth_College_-_PBS",
  "MagneticFieldStrength": 3,
  "Manufacturer": "Siemens",
  "ManufacturersModelName": "Prisma",
  "Modality": "MR",
  "MultibandAccelerationFactor": 4,
  "PartialFourier": 1,
  "PercentPhaseFOV": 100,
  "PhaseEncodingDirection": "j-",
  "PhaseEncodingSteps": 96,
  "PhaseResolution": 1,
  "ProcedureStepDescription": "Gobbini_Matteo_1017_famface-angles",
  "ProtocolName": "func_run-06_task-localizer",
  "PulseSequenceDetails": "%SiemensSeq%_ep2d_bold",
  "ReceiveCoilActiveElements": "HEA;HEP",
  "ReceiveCoilName": "Head_32",
  "ReconMatrixPE": 96,
  "RepetitionTime": 1.25,
  "ScanOptions": "FS",
  "ScanningSequence": "EP",
  "SequenceName": "_epfid2d1_96",
  "SequenceVariant": "SK",
  "SeriesDescription": "func_run-06_task-localizer",
  "SliceTiming": [0.88, 0, 0.615, 0.09, 0.705, 0.1775, 0.7925, 0.3525, 0.9675, 0.44, 1.055, 0.5275, 1.1425, 0.265, 0.88, 0, 0.615, 0.09, 0.705, 0.1775, 0.7925, 0.3525, 0.9675, 0.44, 1.055, 0.5275, 1.1425, 0.265, 0.88, 0, 0.615, 0.09, 0.705, 0.1775, 0.7925, 0.3525, 0.9675, 0.44, 1.055, 0.5275, 1.1425, 0.265, 0.88, 0, 0.615, 0.09, 0.705, 0.1775, 0.7925, 0.3525, 0.9675, 0.44, 1.055, 0.5275, 1.1425, 0.265],
  "SoftwareVersions": "syngo_MR_E11",
  "StationName": "AWP66112",
  "TaskName": "localizer",
  "TotalReadoutTime": 0.0522511,
  "dcmmeta_affine": [
    [-2.4974052906036377, -0.07324890047311783, 0.08718433976173401, 125.31900787353516],
    [-0.07097452878952026, 2.498126983642578, 0.06575585901737213, -98.83976745605469],
    [0.08904563635587692, -0.06321246922016144, 2.4976139068603516, -99.29717254638672],
    [0.0, 0.0, 0.0, 1.0]
],
  "dcmmeta_reorient_transform": [
    [0.0, -1.0, 0.0, 95.0],
    [1.0, 0.0, 0.0, 0.0],
    [0.0, 0.0, 1.0, 0.0],
    [0.0, 0.0, 0.0, 1.0]
],
  "dcmmeta_shape": [96, 96, 56, 325],
  "dcmmeta_slice_dim": 2,
  "dcmmeta_version": 0.6,
  "global": {
    "const": {
      "AccessionNumber": "A000622",
      "AcquisitionMatrix": [96, 0, 0, 96],
      "AngioFlag": "N",
      "BitsAllocated": 16,
      "BitsStored": 12,
      "BodyPartExamined": "BRAIN",
      "Columns": 768,
      "EchoNumbers": 1,
      "EchoTime": 33.0,
      "EchoTrainLength": 96,
      "FlipAngle": 64.0,
      "HighBit": 11,
      "ImageOrientationPatient": [0.9989621406208, 0.02838981249847, 0.03561825588958, -0.0292995594538, 0.99925082197658, 0.02528498754087],
      "ImagePositionPatient": [-932.87693312773, -1001.7004382113, -156.46107884215],
      "ImageType": [
        "ORIGINAL",
        "PRIMARY",
        "FMRI",
        "NONE",
        "ND",
        "NORM",
        "MOSAIC"
],
      "ImagedNucleus": "1H",
      "ImagingFrequency": 123.25241,
      "InPlanePhaseEncodingDirection": "COL",
      "MRAcquisitionType": "2D",
      "MagneticFieldStrength": 3.0,
      "Manufacturer": "SIEMENS",
      "ManufacturerModelName": "Prisma",
      "Modality": "MR",
      "NumberOfAverages": 1.0,
      "NumberOfPhaseEncodingSteps": 96,
      "PercentPhaseFieldOfView": 100.0,
      "PercentSampling": 100.0,
      "PerformedProcedureStepStartTime": "143042.567000",
      "PhotometricInterpretation": "MONOCHROME2",
      "PixelBandwidth": 2265.0,
      "PixelRepresentation": 0,
      "PixelSpacing": [2.5, 2.5],
      "PositionReferenceIndicator": "",
      "ProtocolName": "func_run-06_task-localizer",
      "RepetitionTime": 1250.0,
      "Rows": 768,
      "SAR": 0.05701810914863,
      "SamplesPerPixel": 1,
      "ScanOptions": "FS",
      "ScanningSequence": "EP",
      "SequenceName": "*epfid2d1_96",
      "SequenceVariant": "SK",
      "SeriesDescription": "func_run-06_task-localizer",
      "SeriesNumber": 46,
      "SeriesTime": "152815.587000",
      "SliceLocation": -97.43177108844,
      "SliceThickness": 2.5,
      "SmallestImagePixelValue": 0,
      "SoftwareVersions": "syngo MR E11",
      "SpacingBetweenSlices": 2.4999999993289,
      "SpecificCharacterSet": "ISO_IR 100",
      "StudyID": "1",
      "StudyTime": "143042.498000",
      "TransmitCoilName": "Body",
      "VariableFlipAngleFlag": "N",
      "WindowCenterWidthExplanation": "Algo1",
      "dBdt": 0.0},
    "slices": {}
  },
  "time": {
    "samples": {
      "AcquisitionNumber": [1, 2, 3, 4, 5, 6, 7, 8, 9, 10, 11, 12, 13, 14, 15, 16, 17, 18, 19, 20, 21, 22, 23, 24, 25, 26, 27, 28, 29, 30, 31, 32, 33, 34, 35, 36, 37, 38, 39, 40, 41, 42, 43, 44, 45, 46, 47, 48, 49, 50, 51, 52, 53, 54, 55, 56, 57, 58, 59, 60, 61, 62, 63, 64, 65, 66, 67, 68, 69, 70, 71, 72, 73, 74, 75, 76, 77, 78, 79, 80, 81, 82, 83, 84, 85, 86, 87, 88, 89, 90, 91, 92, 93, 94, 95, 96, 97, 98, 99, 100, 101, 102, 103, 104, 105, 106, 107, 108, 109, 110, 111, 112, 113, 114, 115, 116, 117, 118, 119, 120, 121, 122, 123, 124, 125, 126, 127, 128, 129, 130, 131, 132, 133, 134, 135, 136, 137, 138, 139, 140, 141, 142, 143, 144, 145, 146, 147, 148, 149, 150, 151, 152, 153, 154, 155, 156, 157, 158, 159, 160, 161, 162, 163, 164, 165, 166, 167, 168, 169, 170, 171, 172, 173, 174, 175, 176, 177, 178, 179, 180, 181, 182, 183, 184, 185, 186, 187, 188, 189, 190, 191, 192, 193, 194, 195, 196, 197, 198, 199, 200, 201, 202, 203, 204, 205, 206, 207, 208, 209, 210, 211, 212, 213, 214, 215, 216, 217, 218, 219, 220, 221, 222, 223, 224, 225, 226, 227, 228, 229, 230, 231, 232, 233, 234, 235, 236, 237, 238, 239, 240, 241, 242, 243, 244, 245, 246, 247, 248, 249, 250, 251, 252, 253, 254, 255, 256, 257, 258, 259, 260, 261, 262, 263, 264, 265, 266, 267, 268, 269, 270, 271, 272, 273, 274, 275, 276, 277, 278, 279, 280, 281, 282, 283, 284, 285, 286, 287, 288, 289, 290, 291, 292, 293, 294, 295, 296, 297, 298, 299, 300, 301, 302, 303, 304, 305, 306, 307, 308, 309, 310, 311, 312, 313, 314, 315, 316, 317, 318, 319, 320, 321, 322, 323, 324, 325],
      "AcquisitionTime": ["152814.352500", "152815.602500", "152816.852500", "152818.102500", "152819.352500", "152820.602500", "152821.852500", "152823.102500", "152824.352500", "152825.602500", "152826.852500", "152828.102500", "152829.352500", "152830.602500", "152831.852500", "152833.102500", "152834.352500", "152835.602500", "152836.852500", "152838.102500", "152839.352500", "152840.602500", "152841.852500", "152843.102500", "152844.352500", "152845.602500", "152846.852500", "152848.102500", "152849.352500", "152850.602500", "152851.852500", "152853.102500", "152854.352500", "152855.602500", "152856.852500", "152858.102500", "152859.352500", "152900.602500", "152901.852500", "152903.102500", "152904.352500", "152905.602500", "152906.852500", "152908.102500", "152909.352500", "152910.602500", "152911.852500", "152913.102500", "152914.352500", "152915.602500", "152916.852500", "152918.102500", "152919.352500", "152920.602500", "152921.852500", "152923.102500", "152924.352500", "152925.602500", "152926.852500", "152928.102500", "152929.352500", "152930.602500", "152931.852500", "152933.102500", "152934.352500", "152935.602500", "152936.852500", "152938.102500", "152939.352500", "152940.602500", "152941.852500", "152943.102500", "152944.352500", "152945.602500", "152946.852500", "152948.102500", "152949.352500", "152950.602500", "152951.852500", "152953.102500", "152954.352500", "152955.602500", "152956.852500", "152958.102500", "152959.352500", "153000.602500", "153001.852500", "153003.102500", "153004.352500", "153005.602500", "153006.852500", "153008.102500", "153009.352500", "153010.602500", "153011.852500", "153013.102500", "153014.352500", "153015.602500", "153016.852500", "153018.102500", "153019.352500", "153020.602500", "153021.852500", "153023.102500", "153024.352500", "153025.602500", "153026.852500", "153028.102500", "153029.352500", "153030.602500", "153031.852500", "153033.102500", "153034.352500", "153035.602500", "153036.852500", "153038.102500", "153039.352500", "153040.602500", "153041.852500", "153043.102500", "153044.352500", "153045.602500", "153046.852500", "153048.102500", "153049.352500", "153050.602500", "153051.852500", "153053.102500", "153054.352500", "153055.602500", "153056.852500", "153058.102500", "153059.352500", "153100.602500", "153101.852500", "153103.102500", "153104.352500", "153105.602500", "153106.852500", "153108.102500", "153109.352500", "153110.602500", "153111.852500", "153113.102500", "153114.352500", "153115.602500", "153116.852500", "153118.102500", "153119.352500", "153120.602500", "153121.852500", "153123.102500", "153124.352500", "153125.602500", "153126.852500", "153128.102500", "153129.352500", "153130.602500", "153131.852500", "153133.102500", "153134.352500", "153135.602500", "153136.852500", "153138.102500", "153139.352500", "153140.602500", "153141.852500", "153143.102500", "153144.352500", "153145.602500", "153146.852500", "153148.102500", "153149.352500", "153150.602500", "153151.852500", "153153.102500", "153154.352500", "153155.602500", "153156.852500", "153158.102500", "153159.352500", "153200.602500", "153201.852500", "153203.102500", "153204.352500", "153205.602500", "153206.852500", "153208.102500", "153209.352500", "153210.602500", "153211.852500", "153213.102500", "153214.352500", "153215.602500", "153216.852500", "153218.102500", "153219.352500", "153220.602500", "153221.852500", "153223.102500", "153224.352500", "153225.602500", "153226.852500", "153228.102500", "153229.352500", "153230.602500", "153231.852500", "153233.102500", "153234.352500", "153235.602500", "153236.852500", "153238.102500", "153239.352500", "153240.602500", "153241.852500", "153243.102500", "153244.352500", "153245.602500", "153246.852500", "153248.102500", "153249.352500", "153250.602500", "153251.852500", "153253.102500", "153254.352500", "153255.602500", "153256.852500", "153258.102500", "153259.352500", "153300.602500", "153301.852500", "153303.102500", "153304.352500", "153305.602500", "153306.852500", "153308.102500", "153309.352500", "153310.602500", "153311.852500", "153313.102500", "153314.352500", "153315.602500", "153316.852500", "153318.102500", "153319.352500", "153320.602500", "153321.852500", "153323.102500", "153324.352500", "153325.602500", "153326.852500", "153328.102500", "153329.352500", "153330.602500", "153331.852500", "153333.102500", "153334.352500", "153335.602500", "153336.852500", "153338.102500", "153339.352500", "153340.602500", "153341.852500", "153343.102500", "153344.352500", "153345.602500", "153346.852500", "153348.102500", "153349.352500", "153350.602500", "153351.852500", "153353.102500", "153354.352500", "153355.602500", "153356.852500", "153358.102500", "153359.352500", "153400.602500", "153401.852500", "153403.102500", "153404.352500", "153405.602500", "153406.852500", "153408.102500", "153409.352500", "153410.602500", "153411.852500", "153413.102500", "153414.352500", "153415.602500", "153416.852500", "153418.102500", "153419.352500", "153420.602500", "153421.852500", "153423.102500", "153424.352500", "153425.602500", "153426.852500", "153428.102500", "153429.352500", "153430.602500", "153431.852500", "153433.102500", "153434.352500", "153435.602500", "153436.852500", "153438.102500", "153439.352500", "153440.602500", "153441.852500", "153443.102500", "153444.352500", "153445.602500", "153446.852500", "153448.102500", "153449.352500", "153450.602500", "153451.852500", "153453.102500", "153454.352500", "153455.602500", "153456.852500", "153458.102500", "153459.352500"],
      "ContentTime": ["152815.591000", "152816.586000", "152817.837000", "152819.109000", "152820.341000", "152821.576000", "152822.855000", "152824.099000", "152825.306000", "152826.599000", "152827.821000", "152829.079000", "152830.339000", "152831.573000", "152832.838000", "152834.099000", "152835.345000", "152836.580000", "152837.811000", "152839.084000", "152840.316000", "152841.594000", "152842.820000", "152844.077000", "152845.346000", "152846.586000", "152847.807000", "152849.086000", "152850.315000", "152851.561000", "152852.829000", "152854.082000", "152855.323000", "152856.550000", "152857.864000", "152859.091000", "152900.377000", "152901.612000", "152902.808000", "152904.057000", "152905.343000", "152906.564000", "152907.817000", "152909.072000", "152910.317000", "152911.560000", "152912.839000", "152914.065000", "152915.338000", "152916.579000", "152917.835000", "152919.058000", "152920.343000", "152921.598000", "152922.845000", "152924.080000", "152925.314000", "152926.566000", "152927.842000", "152929.068000", "152930.315000", "152931.573000", "152932.837000", "152934.069000", "152935.336000", "152936.556000", "152937.844000", "152939.077000", "152940.347000", "152941.559000", "152942.848000", "152944.107000", "152945.334000", "152946.616000", "152947.850000", "152949.088000", "152950.340000", "152951.585000", "152952.809000", "152954.116000", "152955.364000", "152956.575000", "152957.817000", "152959.065000", "153000.306000", "153001.574000", "153002.827000", "153004.099000", "153005.351000", "153006.598000", "153007.808000", "153009.085000", "153010.334000", "153011.556000", "153012.832000", "153014.072000", "153015.302000", "153016.592000", "153017.825000", "153019.083000", "153020.367000", "153021.576000", "153022.896000", "153024.125000", "153025.357000", "153026.587000", "153027.850000", "153029.098000", "153030.341000", "153031.540000", "153032.845000", "153034.100000", "153035.328000", "153036.627000", "153037.858000", "153039.105000", "153040.325000", "153041.586000", "153042.846000", "153044.100000", "153045.323000", "153046.591000", "153047.871000", "153049.065000", "153050.350000", "153051.556000", "153052.838000", "153054.091000", "153055.318000", "153056.569000", "153057.841000", "153059.128000", "153100.355000", "153101.592000", "153102.850000", "153104.084000", "153105.391000", "153106.587000", "153107.824000", "153109.122000", "153110.356000", "153111.594000", "153112.849000", "153114.106000", "153115.334000", "153116.591000", "153117.873000", "153119.082000", "153120.362000", "153121.579000", "153122.864000", "153124.110000", "153125.332000", "153126.590000", "153127.853000", "153129.047000", "153130.316000", "153131.604000", "153132.868000", "153134.127000", "153135.337000", "153136.595000", "153137.835000", "153139.083000", "153140.320000", "153141.600000", "153142.847000", "153144.059000", "153145.351000", "153146.608000", "153147.847000", "153149.079000", "153150.320000", "153151.577000", "153152.843000", "153154.099000", "153155.331000", "153156.600000", "153157.823000", "153159.099000", "153200.307000", "153201.589000", "153202.846000", "153204.084000", "153205.406000", "153206.595000", "153207.839000", "153209.079000", "153210.330000", "153211.572000", "153212.879000", "153214.098000", "153215.354000", "153216.581000", "153217.822000", "153219.116000", "153220.336000", "153221.586000", "153222.829000", "153224.101000", "153225.321000", "153226.645000", "153227.850000", "153229.095000", "153230.330000", "153231.588000", "153232.802000", "153234.101000", "153235.332000", "153236.582000", "153237.866000", "153239.062000", "153240.326000", "153241.566000", "153242.871000", "153244.101000", "153245.339000", "153246.581000", "153247.844000", "153249.092000", "153250.332000", "153251.563000", "153252.847000", "153254.132000", "153255.370000", "153256.578000", "153257.855000", "153259.123000", "153300.347000", "153301.570000", "153302.854000", "153304.080000", "153305.336000", "153306.610000", "153307.817000", "153309.056000", "153310.371000", "153311.572000", "153312.813000", "153314.084000", "153315.326000", "153316.631000", "153317.825000", "153319.120000", "153320.341000", "153321.576000", "153322.819000", "153324.102000", "153325.347000", "153326.589000", "153327.832000", "153329.080000", "153330.335000", "153331.609000", "153332.828000", "153334.082000", "153335.341000", "153336.600000", "153337.887000", "153339.105000", "153340.326000", "153341.596000", "153342.863000", "153344.083000", "153345.336000", "153346.632000", "153347.834000", "153349.100000", "153350.332000", "153351.585000", "153352.833000", "153354.086000", "153355.365000", "153356.584000", "153357.854000", "153359.100000", "153400.323000", "153401.579000", "153402.838000", "153404.073000", "153405.380000", "153406.597000", "153407.825000", "153409.105000", "153410.315000", "153411.584000", "153412.825000", "153414.140000", "153415.338000", "153416.557000", "153417.854000", "153419.100000", "153420.323000", "153421.582000", "153422.850000", "153424.103000", "153425.352000", "153426.593000", "153427.832000", "153429.065000", "153430.341000", "153431.564000", "153432.868000", "153434.093000", "153435.337000", "153436.629000", "153437.835000", "153439.088000", "153440.329000", "153441.569000", "153442.858000", "153444.077000", "153445.344000", "153446.545000", "153447.843000", "153449.081000", "153450.311000", "153451.579000", "153452.815000", "153454.136000", "153455.325000", "153456.603000", "153457.824000", "153459.091000", "153500.343000"],
      "InstanceCreationTime": ["152815.591000", "152816.586000", "152817.837000", "152819.109000", "152820.341000", "152821.576000", "152822.855000", "152824.099000", "152825.306000", "152826.599000", "152827.821000", "152829.079000", "152830.339000", "152831.573000", "152832.838000", "152834.099000", "152835.345000", "152836.580000", "152837.811000", "152839.084000", "152840.316000", "152841.594000", "152842.820000", "152844.077000", "152845.346000", "152846.586000", "152847.807000", "152849.086000", "152850.315000", "152851.561000", "152852.829000", "152854.082000", "152855.323000", "152856.550000", "152857.864000", "152859.091000", "152900.377000", "152901.612000", "152902.808000", "152904.057000", "152905.343000", "152906.564000", "152907.817000", "152909.072000", "152910.317000", "152911.560000", "152912.839000", "152914.065000", "152915.338000", "152916.579000", "152917.835000", "152919.058000", "152920.343000", "152921.598000", "152922.845000", "152924.080000", "152925.314000", "152926.566000", "152927.842000", "152929.068000", "152930.315000", "152931.573000", "152932.837000", "152934.069000", "152935.336000", "152936.556000", "152937.844000", "152939.077000", "152940.347000", "152941.559000", "152942.848000", "152944.107000", "152945.334000", "152946.616000", "152947.850000", "152949.088000", "152950.340000", "152951.585000", "152952.809000", "152954.116000", "152955.364000", "152956.575000", "152957.817000", "152959.065000", "153000.306000", "153001.574000", "153002.827000", "153004.099000", "153005.351000", "153006.598000", "153007.808000", "153009.085000", "153010.334000", "153011.556000", "153012.832000", "153014.072000", "153015.302000", "153016.592000", "153017.825000", "153019.083000", "153020.367000", "153021.576000", "153022.896000", "153024.125000", "153025.357000", "153026.587000", "153027.850000", "153029.098000", "153030.341000", "153031.540000", "153032.845000", "153034.100000", "153035.328000", "153036.627000", "153037.858000", "153039.105000", "153040.325000", "153041.586000", "153042.846000", "153044.100000", "153045.323000", "153046.591000", "153047.871000", "153049.065000", "153050.350000", "153051.556000", "153052.838000", "153054.091000", "153055.318000", "153056.569000", "153057.841000", "153059.128000", "153100.355000", "153101.592000", "153102.850000", "153104.084000", "153105.391000", "153106.587000", "153107.824000", "153109.122000", "153110.356000", "153111.594000", "153112.849000", "153114.106000", "153115.334000", "153116.591000", "153117.873000", "153119.082000", "153120.362000", "153121.579000", "153122.864000", "153124.110000", "153125.332000", "153126.590000", "153127.853000", "153129.047000", "153130.316000", "153131.604000", "153132.868000", "153134.127000", "153135.337000", "153136.595000", "153137.835000", "153139.083000", "153140.320000", "153141.600000", "153142.847000", "153144.059000", "153145.351000", "153146.608000", "153147.847000", "153149.079000", "153150.320000", "153151.577000", "153152.843000", "153154.099000", "153155.331000", "153156.600000", "153157.823000", "153159.099000", "153200.307000", "153201.589000", "153202.846000", "153204.084000", "153205.406000", "153206.595000", "153207.839000", "153209.079000", "153210.330000", "153211.572000", "153212.879000", "153214.098000", "153215.354000", "153216.581000", "153217.822000", "153219.116000", "153220.336000", "153221.586000", "153222.829000", "153224.101000", "153225.321000", "153226.645000", "153227.850000", "153229.095000", "153230.330000", "153231.588000", "153232.802000", "153234.101000", "153235.332000", "153236.582000", "153237.866000", "153239.062000", "153240.326000", "153241.566000", "153242.871000", "153244.101000", "153245.339000", "153246.581000", "153247.844000", "153249.092000", "153250.332000", "153251.563000", "153252.847000", "153254.132000", "153255.370000", "153256.578000", "153257.855000", "153259.123000", "153300.347000", "153301.570000", "153302.854000", "153304.080000", "153305.336000", "153306.610000", "153307.817000", "153309.056000", "153310.371000", "153311.572000", "153312.813000", "153314.084000", "153315.326000", "153316.631000", "153317.825000", "153319.120000", "153320.341000", "153321.576000", "153322.819000", "153324.102000", "153325.347000", "153326.589000", "153327.832000", "153329.080000", "153330.335000", "153331.609000", "153332.828000", "153334.082000", "153335.341000", "153336.600000", "153337.887000", "153339.105000", "153340.326000", "153341.596000", "153342.863000", "153344.083000", "153345.336000", "153346.632000", "153347.834000", "153349.100000", "153350.332000", "153351.585000", "153352.833000", "153354.086000", "153355.365000", "153356.584000", "153357.854000", "153359.100000", "153400.323000", "153401.579000", "153402.838000", "153404.073000", "153405.380000", "153406.597000", "153407.825000", "153409.105000", "153410.315000", "153411.584000", "153412.825000", "153414.140000", "153415.338000", "153416.557000", "153417.854000", "153419.100000", "153420.323000", "153421.582000", "153422.850000", "153424.103000", "153425.352000", "153426.593000", "153427.832000", "153429.065000", "153430.341000", "153431.564000", "153432.868000", "153434.093000", "153435.337000", "153436.629000", "153437.835000", "153439.088000", "153440.329000", "153441.569000", "153442.858000", "153444.077000", "153445.344000", "153446.545000", "153447.843000", "153449.081000", "153450.311000", "153451.579000", "153452.815000", "153454.136000", "153455.325000", "153456.603000", "153457.824000", "153459.091000", "153500.343000"],
      "InstanceNumber": [1, 2, 3, 4, 5, 6, 7, 8, 9, 10, 11, 12, 13, 14, 15, 16, 17, 18, 19, 20, 21, 22, 23, 24, 25, 26, 27, 28, 29, 30, 31, 32, 33, 34, 35, 36, 37, 38, 39, 40, 41, 42, 43, 44, 45, 46, 47, 48, 49, 50, 51, 52, 53, 54, 55, 56, 57, 58, 59, 60, 61, 62, 63, 64, 65, 66, 67, 68, 69, 70, 71, 72, 73, 74, 75, 76, 77, 78, 79, 80, 81, 82, 83, 84, 85, 86, 87, 88, 89, 90, 91, 92, 93, 94, 95, 96, 97, 98, 99, 100, 101, 102, 103, 104, 105, 106, 107, 108, 109, 110, 111, 112, 113, 114, 115, 116, 117, 118, 119, 120, 121, 122, 123, 124, 125, 126, 127, 128, 129, 130, 131, 132, 133, 134, 135, 136, 137, 138, 139, 140, 141, 142, 143, 144, 145, 146, 147, 148, 149, 150, 151, 152, 153, 154, 155, 156, 157, 158, 159, 160, 161, 162, 163, 164, 165, 166, 167, 168, 169, 170, 171, 172, 173, 174, 175, 176, 177, 178, 179, 180, 181, 182, 183, 184, 185, 186, 187, 188, 189, 190, 191, 192, 193, 194, 195, 196, 197, 198, 199, 200, 201, 202, 203, 204, 205, 206, 207, 208, 209, 210, 211, 212, 213, 214, 215, 216, 217, 218, 219, 220, 221, 222, 223, 224, 225, 226, 227, 228, 229, 230, 231, 232, 233, 234, 235, 236, 237, 238, 239, 240, 241, 242, 243, 244, 245, 246, 247, 248, 249, 250, 251, 252, 253, 254, 255, 256, 257, 258, 259, 260, 261, 262, 263, 264, 265, 266, 267, 268, 269, 270, 271, 272, 273, 274, 275, 276, 277, 278, 279, 280, 281, 282, 283, 284, 285, 286, 287, 288, 289, 290, 291, 292, 293, 294, 295, 296, 297, 298, 299, 300, 301, 302, 303, 304, 305, 306, 307, 308, 309, 310, 311, 312, 313, 314, 315, 316, 317, 318, 319, 320, 321, 322, 323, 324, 325],
      "LargestImagePixelValue": [1012, 874, 1114, 787, 1257, 802, 963, 797, 920, 883, 890, 987, 836, 934, 756, 969, 748, 946, 852, 933, 915, 1001, 875, 938, 900, 800, 840, 817, 821, 1220, 854, 872, 815, 810, 949, 792, 1025, 1107, 997, 1055, 925, 812, 845, 812, 1023, 808, 1035, 1206, 790, 893, 770, 894, 864, 1042, 826, 980, 819, 783, 783, 800, 897, 812, 1012, 933, 795, 1044, 927, 1157, 769, 1009, 760, 722, 749, 930, 824, 1046, 853, 1002, 1112, 943, 843, 903, 755, 955, 859, 808, 928, 758, 1047, 785, 984, 1133, 823, 902, 740, 956, 845, 962, 823, 888, 848, 976, 750, 1139, 930, 808, 911, 766, 981, 768, 1170, 771, 1008, 924, 937, 1082, 803, 865, 752, 952, 919, 980, 1242, 902, 765, 919, 750, 997, 933, 765, 1148, 765, 796, 743, 968, 1074, 953, 954, 1089, 809, 1081, 897, 1037, 1007, 769, 834, 770, 1017, 751, 1049, 767, 787, 725, 767, 890, 759, 1022, 773, 1078, 778, 1000, 798, 1194, 780, 1010, 751, 770, 936, 767, 1131, 765, 1047, 838, 1011, 851, 895, 960, 750, 1007, 766, 999, 764, 953, 771, 1084, 812, 1188, 772, 1126, 826, 1082, 856, 993, 925, 879, 904, 761, 934, 854, 781, 858, 845, 880, 922, 968, 1015, 788, 847, 915, 752, 973, 758, 998, 863, 973, 1050, 823, 1195, 787, 880, 788, 1096, 829, 997, 821, 943, 808, 777, 735, 825, 845, 978, 836, 916, 790, 953, 1091, 781, 1174, 786, 1015, 852, 778, 977, 781, 972, 769, 868, 744, 927, 964, 961, 1255, 1019, 1030, 850, 766, 1059, 846, 1039, 869, 801, 754, 801, 1053, 781, 1165, 859, 1088, 820, 791, 1024, 772, 1093, 763, 795, 818, 763, 1097, 773, 985, 762, 1049, 776, 972, 822, 970, 839, 879, 1112, 987, 985, 809, 923, 1118, 932, 879, 774, 773, 813, 960, 1024, 1008, 888, 814, 797, 826, 831, 1013, 940, 1195, 1043, 871, 951, 736, 842, 945, 1142, 988, 770, 755, 741, 1022, 753, 934],
      "WindowCenter": [377.0, 374.0, 376.0, 372.0, 377.0, 373.0, 375.0, 373.0, 375.0, 374.0, 374.0, 375.0, 374.0, 375.0, 373.0, 376.0, 373.0, 376.0, 374.0, 375.0, 375.0, 376.0, 375.0, 376.0, 374.0, 373.0, 373.0, 373.0, 373.0, 377.0, 374.0, 374.0, 374.0, 375.0, 376.0, 374.0, 377.0, 377.0, 375.0, 376.0, 375.0, 374.0, 374.0, 374.0, 375.0, 373.0, 375.0, 376.0, 372.0, 374.0, 373.0, 374.0, 374.0, 376.0, 374.0, 375.0, 373.0, 373.0, 374.0, 374.0, 375.0, 374.0, 376.0, 374.0, 373.0, 376.0, 375.0, 376.0, 372.0, 375.0, 372.0, 372.0, 374.0, 376.0, 375.0, 376.0, 374.0, 375.0, 376.0, 374.0, 373.0, 374.0, 372.0, 374.0, 373.0, 373.0, 374.0, 372.0, 375.0, 372.0, 375.0, 376.0, 373.0, 374.0, 372.0, 375.0, 373.0, 375.0, 373.0, 374.0, 373.0, 375.0, 373.0, 376.0, 374.0, 373.0, 374.0, 372.0, 375.0, 372.0, 377.0, 373.0, 375.0, 374.0, 375.0, 376.0, 373.0, 374.0, 373.0, 375.0, 374.0, 375.0, 377.0, 374.0, 373.0, 375.0, 373.0, 375.0, 375.0, 372.0, 376.0, 372.0, 374.0, 373.0, 376.0, 377.0, 376.0, 375.0, 376.0, 373.0, 376.0, 374.0, 375.0, 375.0, 372.0, 373.0, 372.0, 375.0, 372.0, 375.0, 372.0, 373.0, 372.0, 373.0, 375.0, 373.0, 376.0, 373.0, 376.0, 373.0, 376.0, 373.0, 376.0, 372.0, 375.0, 372.0, 372.0, 374.0, 373.0, 377.0, 373.0, 376.0, 374.0, 375.0, 373.0, 374.0, 374.0, 372.0, 375.0, 373.0, 375.0, 373.0, 375.0, 373.0, 377.0, 374.0, 377.0, 373.0, 377.0, 374.0, 377.0, 374.0, 375.0, 374.0, 374.0, 374.0, 372.0, 374.0, 374.0, 373.0, 374.0, 374.0, 374.0, 375.0, 375.0, 376.0, 373.0, 374.0, 375.0, 373.0, 376.0, 373.0, 376.0, 374.0, 375.0, 375.0, 373.0, 376.0, 372.0, 373.0, 373.0, 377.0, 373.0, 375.0, 373.0, 374.0, 372.0, 373.0, 373.0, 374.0, 374.0, 376.0, 373.0, 374.0, 373.0, 375.0, 376.0, 372.0, 376.0, 372.0, 375.0, 374.0, 373.0, 375.0, 373.0, 375.0, 373.0, 374.0, 373.0, 376.0, 376.0, 375.0, 377.0, 375.0, 375.0, 373.0, 372.0, 375.0, 373.0, 375.0, 373.0, 372.0, 372.0, 373.0, 376.0, 373.0, 376.0, 373.0, 376.0, 373.0, 373.0, 375.0, 373.0, 375.0, 372.0, 373.0, 374.0, 372.0, 376.0, 372.0, 375.0, 373.0, 377.0, 373.0, 376.0, 374.0, 375.0, 374.0, 374.0, 377.0, 376.0, 376.0, 373.0, 374.0, 376.0, 374.0, 374.0, 373.0, 373.0, 374.0, 376.0, 376.0, 376.0, 374.0, 374.0, 374.0, 374.0, 374.0, 376.0, 375.0, 377.0, 375.0, 375.0, 375.0, 373.0, 374.0, 375.0, 377.0, 374.0, 372.0, 372.0, 373.0, 376.0, 373.0, 375.0],
