{
  "AcquisitionMatrixPE": 96,
  "AcquisitionNumber": 1,
  "AcquisitionTime": "15:08:20.892500",
  "BandwidthPerPixelPhaseEncode": 18.939,
  "BaseResolution": 96,
  "BodyPartExamined": "BRAIN",
  "ConsistencyInfo": "N4_VE11C_LATEST_20160120",
  "ConversionSoftware": "dcm2niix",
  "ConversionSoftwareVersion": "v1.0.20170923 (OpenJPEG build) GCC6.3.0",
  "DerivedVendorReportedEchoSpacing": 0.000550011,
  "DeviceSerialNumber": "66112",
  "DwellTime": 2.3e-06,
  "EchoTime": 0.033,
  "EchoTrainLength": 96,
  "EffectiveEchoSpacing": 0.000550011,
  "FlipAngle": 64,
  "ImageType": [
    "ORIGINAL",
    "PRIMARY",
    "FMRI",
    "NONE",
    "ND",
    "NORM",
    "MOSAIC"
],
  "InstitutionAddress": "Maynard_3_Hanover_NH_US_03755",
  "InstitutionName": "Dartmouth_College_-_PBS",
  "MagneticFieldStrength": 3,
  "Manufacturer": "Siemens",
  "ManufacturersModelName": "Prisma",
  "Modality": "MR",
  "MultibandAccelerationFactor": 4,
  "PartialFourier": 1,
  "PercentPhaseFOV": 100,
  "PhaseEncodingDirection": "j-",
  "PhaseEncodingSteps": 96,
  "PhaseResolution": 1,
  "ProcedureStepDescription": "Gobbini_Matteo_1017_famface-angles",
  "ProtocolName": "func_run-03_task-fam1back",
  "PulseSequenceDetails": "%SiemensSeq%_ep2d_bold",
  "ReceiveCoilActiveElements": "HEA;HEP",
  "ReceiveCoilName": "Head_32",
  "ReconMatrixPE": 96,
  "RepetitionTime": 1.25,
  "ScanOptions": "FS",
  "ScanningSequence": "EP",
  "SequenceName": "_epfid2d1_96",
  "SequenceVariant": "SK",
  "SeriesDescription": "func_run-03_task-fam1back",
  "SliceTiming": [0.88, 0, 0.615, 0.0875, 0.7025, 0.175, 0.79, 0.3525, 0.9675, 0.44, 1.055, 0.5275, 1.1425, 0.265, 0.88, 0, 0.615, 0.0875, 0.7025, 0.175, 0.79, 0.3525, 0.9675, 0.44, 1.055, 0.5275, 1.1425, 0.265, 0.88, 0, 0.615, 0.0875, 0.7025, 0.175, 0.79, 0.3525, 0.9675, 0.44, 1.055, 0.5275, 1.1425, 0.265, 0.88, 0, 0.615, 0.0875, 0.7025, 0.175, 0.79, 0.3525, 0.9675, 0.44, 1.055, 0.5275, 1.1425, 0.265],
  "SoftwareVersions": "syngo_MR_E11",
  "StationName": "AWP66112",
  "TaskName": "fam1back",
  "TotalReadoutTime": 0.0522511,
  "dcmmeta_affine": [
    [-2.4974052906036377, -0.07324890047311783, 0.08718433976173401, 125.31900787353516],
    [-0.07097452878952026, 2.498126983642578, 0.06575585901737213, -98.83976745605469],
    [0.08904563635587692, -0.06321246922016144, 2.4976139068603516, -99.29717254638672],
    [0.0, 0.0, 0.0, 1.0]
],
  "dcmmeta_reorient_transform": [
    [0.0, -1.0, 0.0, 95.0],
    [1.0, 0.0, 0.0, 0.0],
    [0.0, 0.0, 1.0, 0.0],
    [0.0, 0.0, 0.0, 1.0]
],
  "dcmmeta_shape": [96, 96, 56, 280],
  "dcmmeta_slice_dim": 2,
  "dcmmeta_version": 0.6,
  "global": {
    "const": {
      "AccessionNumber": "A000622",
      "AcquisitionMatrix": [96, 0, 0, 96],
      "AngioFlag": "N",
      "BitsAllocated": 16,
      "BitsStored": 12,
      "BodyPartExamined": "BRAIN",
      "Columns": 768,
      "EchoNumbers": 1,
      "EchoTime": 33.0,
      "EchoTrainLength": 96,
      "FlipAngle": 64.0,
      "HighBit": 11,
      "ImageOrientationPatient": [0.9989621406208, 0.02838981249847, 0.03561825588958, -0.0292995594538, 0.99925082197658, 0.02528498754087],
      "ImagePositionPatient": [-932.87693312773, -1001.7004382113, -156.46107884215],
      "ImageType": [
        "ORIGINAL",
        "PRIMARY",
        "FMRI",
        "NONE",
        "ND",
        "NORM",
        "MOSAIC"
],
      "ImagedNucleus": "1H",
      "ImagingFrequency": 123.252404,
      "InPlanePhaseEncodingDirection": "COL",
      "MRAcquisitionType": "2D",
      "MagneticFieldStrength": 3.0,
      "Manufacturer": "SIEMENS",
      "ManufacturerModelName": "Prisma",
      "Modality": "MR",
      "NumberOfAverages": 1.0,
      "NumberOfPhaseEncodingSteps": 96,
      "PercentPhaseFieldOfView": 100.0,
      "PercentSampling": 100.0,
      "PerformedProcedureStepStartTime": "143042.567000",
      "PhotometricInterpretation": "MONOCHROME2",
      "PixelBandwidth": 2265.0,
      "PixelRepresentation": 0,
      "PixelSpacing": [2.5, 2.5],
      "PositionReferenceIndicator": "",
      "ProtocolName": "func_run-03_task-fam1back",
      "RepetitionTime": 1250.0,
      "Rows": 768,
      "SAR": 0.05694067184066,
      "SamplesPerPixel": 1,
      "ScanOptions": "FS",
      "ScanningSequence": "EP",
      "SequenceName": "*epfid2d1_96",
      "SequenceVariant": "SK",
      "SeriesDescription": "func_run-03_task-fam1back",
      "SeriesNumber": 25,
      "SeriesTime": "150822.282000",
      "SliceLocation": -97.43177108844,
      "SliceThickness": 2.5,
      "SmallestImagePixelValue": 0,
      "SoftwareVersions": "syngo MR E11",
      "SpacingBetweenSlices": 2.4999999993289,
      "SpecificCharacterSet": "ISO_IR 100",
      "StudyID": "1",
      "StudyTime": "143042.498000",
      "TransmitCoilName": "Body",
      "VariableFlipAngleFlag": "N",
      "WindowCenterWidthExplanation": "Algo1",
      "dBdt": 0.0},
    "slices": {}
  },
  "time": {
    "samples": {
      "AcquisitionNumber": [1, 2, 3, 4, 5, 6, 7, 8, 9, 10, 11, 12, 13, 14, 15, 16, 17, 18, 19, 20, 21, 22, 23, 24, 25, 26, 27, 28, 29, 30, 31, 32, 33, 34, 35, 36, 37, 38, 39, 40, 41, 42, 43, 44, 45, 46, 47, 48, 49, 50, 51, 52, 53, 54, 55, 56, 57, 58, 59, 60, 61, 62, 63, 64, 65, 66, 67, 68, 69, 70, 71, 72, 73, 74, 75, 76, 77, 78, 79, 80, 81, 82, 83, 84, 85, 86, 87, 88, 89, 90, 91, 92, 93, 94, 95, 96, 97, 98, 99, 100, 101, 102, 103, 104, 105, 106, 107, 108, 109, 110, 111, 112, 113, 114, 115, 116, 117, 118, 119, 120, 121, 122, 123, 124, 125, 126, 127, 128, 129, 130, 131, 132, 133, 134, 135, 136, 137, 138, 139, 140, 141, 142, 143, 144, 145, 146, 147, 148, 149, 150, 151, 152, 153, 154, 155, 156, 157, 158, 159, 160, 161, 162, 163, 164, 165, 166, 167, 168, 169, 170, 171, 172, 173, 174, 175, 176, 177, 178, 179, 180, 181, 182, 183, 184, 185, 186, 187, 188, 189, 190, 191, 192, 193, 194, 195, 196, 197, 198, 199, 200, 201, 202, 203, 204, 205, 206, 207, 208, 209, 210, 211, 212, 213, 214, 215, 216, 217, 218, 219, 220, 221, 222, 223, 224, 225, 226, 227, 228, 229, 230, 231, 232, 233, 234, 235, 236, 237, 238, 239, 240, 241, 242, 243, 244, 245, 246, 247, 248, 249, 250, 251, 252, 253, 254, 255, 256, 257, 258, 259, 260, 261, 262, 263, 264, 265, 266, 267, 268, 269, 270, 271, 272, 273, 274, 275, 276, 277, 278, 279, 280],
      "AcquisitionTime": ["150820.892500", "150822.142500", "150823.392500", "150824.642500", "150825.892500", "150827.142500", "150828.392500", "150829.642500", "150830.892500", "150832.142500", "150833.392500", "150834.642500", "150835.892500", "150837.142500", "150838.392500", "150839.642500", "150840.892500", "150842.142500", "150843.392500", "150844.642500", "150845.892500", "150847.142500", "150848.392500", "150849.642500", "150850.892500", "150852.142500", "150853.392500", "150854.642500", "150855.892500", "150857.142500", "150858.392500", "150859.642500", "150900.892500", "150902.142500", "150903.392500", "150904.642500", "150905.892500", "150907.142500", "150908.392500", "150909.642500", "150910.892500", "150912.142500", "150913.392500", "150914.642500", "150915.892500", "150917.142500", "150918.392500", "150919.642500", "150920.892500", "150922.142500", "150923.392500", "150924.642500", "150925.892500", "150927.142500", "150928.392500", "150929.642500", "150930.892500", "150932.142500", "150933.392500", "150934.642500", "150935.892500", "150937.142500", "150938.392500", "150939.642500", "150940.892500", "150942.142500", "150943.392500", "150944.642500", "150945.892500", "150947.142500", "150948.392500", "150949.642500", "150950.892500", "150952.142500", "150953.392500", "150954.642500", "150955.892500", "150957.142500", "150958.392500", "150959.642500", "151000.892500", "151002.142500", "151003.392500", "151004.642500", "151005.892500", "151007.142500", "151008.392500", "151009.642500", "151010.892500", "151012.142500", "151013.392500", "151014.642500", "151015.892500", "151017.142500", "151018.392500", "151019.642500", "151020.892500", "151022.142500", "151023.392500", "151024.642500", "151025.892500", "151027.142500", "151028.392500", "151029.642500", "151030.892500", "151032.142500", "151033.392500", "151034.642500", "151035.892500", "151037.142500", "151038.392500", "151039.642500", "151040.892500", "151042.142500", "151043.392500", "151044.642500", "151045.892500", "151047.142500", "151048.392500", "151049.642500", "151050.892500", "151052.142500", "151053.392500", "151054.642500", "151055.892500", "151057.142500", "151058.392500", "151059.642500", "151100.892500", "151102.142500", "151103.392500", "151104.642500", "151105.892500", "151107.142500", "151108.392500", "151109.642500", "151110.892500", "151112.142500", "151113.392500", "151114.642500", "151115.892500", "151117.142500", "151118.392500", "151119.642500", "151120.892500", "151122.142500", "151123.392500", "151124.642500", "151125.892500", "151127.142500", "151128.392500", "151129.642500", "151130.892500", "151132.142500", "151133.392500", "151134.642500", "151135.892500", "151137.142500", "151138.392500", "151139.642500", "151140.892500", "151142.142500", "151143.392500", "151144.642500", "151145.892500", "151147.142500", "151148.392500", "151149.642500", "151150.892500", "151152.142500", "151153.392500", "151154.642500", "151155.892500", "151157.142500", "151158.392500", "151159.642500", "151200.892500", "151202.142500", "151203.392500", "151204.642500", "151205.892500", "151207.142500", "151208.392500", "151209.642500", "151210.892500", "151212.142500", "151213.392500", "151214.642500", "151215.892500", "151217.142500", "151218.392500", "151219.642500", "151220.892500", "151222.142500", "151223.392500", "151224.642500", "151225.892500", "151227.142500", "151228.392500", "151229.642500", "151230.892500", "151232.142500", "151233.392500", "151234.642500", "151235.892500", "151237.142500", "151238.392500", "151239.642500", "151240.892500", "151242.142500", "151243.392500", "151244.642500", "151245.892500", "151247.142500", "151248.392500", "151249.642500", "151250.892500", "151252.142500", "151253.392500", "151254.642500", "151255.892500", "151257.142500", "151258.392500", "151259.642500", "151300.892500", "151302.142500", "151303.392500", "151304.642500", "151305.892500", "151307.142500", "151308.392500", "151309.642500", "151310.892500", "151312.142500", "151313.392500", "151314.642500", "151315.892500", "151317.142500", "151318.392500", "151319.642500", "151320.892500", "151322.142500", "151323.392500", "151324.642500", "151325.892500", "151327.142500", "151328.392500", "151329.642500", "151330.892500", "151332.142500", "151333.392500", "151334.642500", "151335.892500", "151337.142500", "151338.392500", "151339.642500", "151340.892500", "151342.142500", "151343.392500", "151344.642500", "151345.892500", "151347.142500", "151348.392500", "151349.642500", "151350.892500", "151352.142500", "151353.392500", "151354.642500", "151355.892500", "151357.142500", "151358.392500", "151359.642500", "151400.892500", "151402.142500", "151403.392500", "151404.642500", "151405.892500", "151407.142500", "151408.392500", "151409.642500"],
      "ContentTime": ["150822.286000", "150823.279000", "150824.584000", "150825.799000", "150827.058000", "150828.345000", "150829.540000", "150830.797000", "150832.053000", "150833.277000", "150834.551000", "150835.819000", "150837.024000", "150838.306000", "150839.529000", "150840.842000", "150842.032000", "150843.278000", "150844.566000", "150845.805000", "150847.048000", "150848.316000", "150849.543000", "150850.791000", "150852.008000", "150853.303000", "150854.549000", "150855.849000", "150857.003000", "150858.320000", "150859.530000", "150900.733000", "150902.035000", "150903.353000", "150904.560000", "150905.799000", "150907.060000", "150908.300000", "150909.541000", "150910.816000", "150912.058000", "150913.289000", "150914.523000", "150915.814000", "150917.033000", "150918.295000", "150919.541000", "150920.796000", "150922.037000", "150923.291000", "150924.545000", "150925.780000", "150927.047000", "150928.274000", "150929.551000", "150930.788000", "150932.017000", "150933.290000", "150934.545000", "150935.823000", "150937.050000", "150938.289000", "150939.617000", "150940.801000", "150942.055000", "150943.289000", "150944.535000", "150945.777000", "150947.047000", "150948.282000", "150949.554000", "150950.789000", "150952.017000", "150953.303000", "150954.525000", "150955.803000", "150957.028000", "150958.277000", "150959.535000", "151000.776000", "151002.020000", "151003.277000", "151004.507000", "151005.835000", "151007.066000", "151008.281000", "151009.532000", "151010.771000", "151012.028000", "151013.314000", "151014.546000", "151015.783000", "151017.049000", "151018.288000", "151019.510000", "151020.793000", "151022.046000", "151023.294000", "151024.533000", "151025.803000", "151027.032000", "151028.315000", "151029.586000", "151030.794000", "151032.053000", "151033.269000", "151034.554000", "151035.799000", "151037.058000", "151038.291000", "151039.537000", "151040.793000", "151042.057000", "151043.303000", "151044.599000", "151045.782000", "151047.072000", "151048.304000", "151049.551000", "151050.855000", "151052.031000", "151053.286000", "151054.548000", "151055.793000", "151057.062000", "151058.306000", "151059.568000", "151100.744000", "151102.045000", "151103.286000", "151104.559000", "151105.785000", "151107.044000", "151108.299000", "151109.535000", "151110.803000", "151112.052000", "151113.296000", "151114.553000", "151115.803000", "151117.021000", "151118.286000", "151119.612000", "151120.800000", "151122.002000", "151123.265000", "151124.517000", "151125.795000", "151127.057000", "151128.303000", "151129.541000", "151130.821000", "151132.048000", "151133.287000", "151134.544000", "151135.772000", "151137.063000", "151138.298000", "151139.568000", "151140.790000", "151142.096000", "151143.293000", "151144.560000", "151145.791000", "151147.061000", "151148.290000", "151149.546000", "151150.859000", "151152.058000", "151153.303000", "151154.540000", "151155.840000", "151157.062000", "151158.286000", "151159.552000", "151200.774000", "151202.028000", "151203.270000", "151204.549000", "151205.845000", "151207.049000", "151208.319000", "151209.532000", "151210.803000", "151212.070000", "151213.300000", "151214.554000", "151215.794000", "151217.058000", "151218.302000", "151219.541000", "151220.795000", "151222.055000", "151223.309000", "151224.530000", "151225.784000", "151227.032000", "151228.285000", "151229.557000", "151230.841000", "151232.044000", "151233.322000", "151234.567000", "151235.773000", "151237.010000", "151238.279000", "151239.544000", "151240.830000", "151242.049000", "151243.331000", "151244.547000", "151245.778000", "151247.076000", "151248.317000", "151249.572000", "151250.790000", "151252.058000", "151253.288000", "151254.530000", "151255.788000", "151257.041000", "151258.283000", "151259.561000", "151300.766000", "151302.080000", "151303.285000", "151304.584000", "151305.794000", "151307.059000", "151308.277000", "151309.484000", "151310.807000", "151312.047000", "151313.269000", "151314.560000", "151315.806000", "151317.067000", "151318.358000", "151319.483000", "151320.790000", "151322.056000", "151323.303000", "151324.564000", "151325.780000", "151327.057000", "151328.271000", "151329.582000", "151330.782000", "151332.038000", "151333.321000", "151334.552000", "151335.807000", "151337.027000", "151338.285000", "151339.590000", "151340.840000", "151342.055000", "151343.298000", "151344.546000", "151345.834000", "151347.047000", "151348.291000", "151349.581000", "151350.799000", "151352.046000", "151353.301000", "151354.530000", "151355.823000", "151357.041000", "151358.257000", "151359.563000", "151400.818000", "151402.054000", "151403.307000", "151404.540000", "151405.808000", "151407.050000", "151408.278000", "151409.543000", "151410.834000"],
      "InstanceCreationTime": ["150822.286000", "150823.279000", "150824.584000", "150825.799000", "150827.058000", "150828.345000", "150829.540000", "150830.797000", "150832.053000", "150833.277000", "150834.551000", "150835.819000", "150837.024000", "150838.306000", "150839.529000", "150840.842000", "150842.032000", "150843.278000", "150844.566000", "150845.805000", "150847.048000", "150848.316000", "150849.543000", "150850.791000", "150852.008000", "150853.303000", "150854.549000", "150855.849000", "150857.003000", "150858.320000", "150859.530000", "150900.733000", "150902.035000", "150903.353000", "150904.560000", "150905.799000", "150907.060000", "150908.300000", "150909.541000", "150910.816000", "150912.058000", "150913.289000", "150914.523000", "150915.814000", "150917.033000", "150918.295000", "150919.541000", "150920.796000", "150922.037000", "150923.291000", "150924.545000", "150925.780000", "150927.047000", "150928.274000", "150929.551000", "150930.788000", "150932.017000", "150933.290000", "150934.545000", "150935.823000", "150937.050000", "150938.289000", "150939.617000", "150940.801000", "150942.055000", "150943.289000", "150944.535000", "150945.777000", "150947.047000", "150948.282000", "150949.554000", "150950.789000", "150952.017000", "150953.303000", "150954.525000", "150955.803000", "150957.028000", "150958.277000", "150959.535000", "151000.776000", "151002.020000", "151003.277000", "151004.507000", "151005.835000", "151007.066000", "151008.281000", "151009.532000", "151010.771000", "151012.028000", "151013.314000", "151014.546000", "151015.783000", "151017.049000", "151018.288000", "151019.510000", "151020.793000", "151022.046000", "151023.294000", "151024.533000", "151025.803000", "151027.032000", "151028.315000", "151029.586000", "151030.794000", "151032.053000", "151033.269000", "151034.554000", "151035.799000", "151037.058000", "151038.291000", "151039.537000", "151040.793000", "151042.057000", "151043.303000", "151044.599000", "151045.782000", "151047.072000", "151048.304000", "151049.551000", "151050.855000", "151052.031000", "151053.286000", "151054.548000", "151055.793000", "151057.062000", "151058.306000", "151059.568000", "151100.744000", "151102.045000", "151103.286000", "151104.559000", "151105.785000", "151107.044000", "151108.299000", "151109.535000", "151110.803000", "151112.052000", "151113.296000", "151114.553000", "151115.803000", "151117.021000", "151118.286000", "151119.612000", "151120.800000", "151122.002000", "151123.265000", "151124.517000", "151125.795000", "151127.057000", "151128.303000", "151129.541000", "151130.821000", "151132.048000", "151133.287000", "151134.544000", "151135.772000", "151137.063000", "151138.298000", "151139.568000", "151140.790000", "151142.096000", "151143.293000", "151144.560000", "151145.791000", "151147.061000", "151148.290000", "151149.546000", "151150.859000", "151152.058000", "151153.303000", "151154.540000", "151155.840000", "151157.062000", "151158.286000", "151159.552000", "151200.774000", "151202.028000", "151203.270000", "151204.549000", "151205.845000", "151207.049000", "151208.319000", "151209.532000", "151210.803000", "151212.070000", "151213.300000", "151214.554000", "151215.794000", "151217.058000", "151218.302000", "151219.541000", "151220.795000", "151222.055000", "151223.309000", "151224.530000", "151225.784000", "151227.032000", "151228.285000", "151229.557000", "151230.841000", "151232.044000", "151233.322000", "151234.567000", "151235.773000", "151237.010000", "151238.279000", "151239.544000", "151240.830000", "151242.049000", "151243.331000", "151244.547000", "151245.778000", "151247.076000", "151248.317000", "151249.572000", "151250.790000", "151252.058000", "151253.288000", "151254.530000", "151255.788000", "151257.041000", "151258.283000", "151259.561000", "151300.766000", "151302.080000", "151303.285000", "151304.584000", "151305.794000", "151307.059000", "151308.277000", "151309.484000", "151310.807000", "151312.047000", "151313.269000", "151314.560000", "151315.806000", "151317.067000", "151318.358000", "151319.483000", "151320.790000", "151322.056000", "151323.303000", "151324.564000", "151325.780000", "151327.057000", "151328.271000", "151329.582000", "151330.782000", "151332.038000", "151333.321000", "151334.552000", "151335.807000", "151337.027000", "151338.285000", "151339.590000", "151340.840000", "151342.055000", "151343.298000", "151344.546000", "151345.834000", "151347.047000", "151348.291000", "151349.581000", "151350.799000", "151352.046000", "151353.301000", "151354.530000", "151355.823000", "151357.041000", "151358.257000", "151359.563000", "151400.818000", "151402.054000", "151403.307000", "151404.540000", "151405.808000", "151407.050000", "151408.278000", "151409.543000", "151410.834000"],
      "InstanceNumber": [1, 2, 3, 4, 5, 6, 7, 8, 9, 10, 11, 12, 13, 14, 15, 16, 17, 18, 19, 20, 21, 22, 23, 24, 25, 26, 27, 28, 29, 30, 31, 32, 33, 34, 35, 36, 37, 38, 39, 40, 41, 42, 43, 44, 45, 46, 47, 48, 49, 50, 51, 52, 53, 54, 55, 56, 57, 58, 59, 60, 61, 62, 63, 64, 65, 66, 67, 68, 69, 70, 71, 72, 73, 74, 75, 76, 77, 78, 79, 80, 81, 82, 83, 84, 85, 86, 87, 88, 89, 90, 91, 92, 93, 94, 95, 96, 97, 98, 99, 100, 101, 102, 103, 104, 105, 106, 107, 108, 109, 110, 111, 112, 113, 114, 115, 116, 117, 118, 119, 120, 121, 122, 123, 124, 125, 126, 127, 128, 129, 130, 131, 132, 133, 134, 135, 136, 137, 138, 139, 140, 141, 142, 143, 144, 145, 146, 147, 148, 149, 150, 151, 152, 153, 154, 155, 156, 157, 158, 159, 160, 161, 162, 163, 164, 165, 166, 167, 168, 169, 170, 171, 172, 173, 174, 175, 176, 177, 178, 179, 180, 181, 182, 183, 184, 185, 186, 187, 188, 189, 190, 191, 192, 193, 194, 195, 196, 197, 198, 199, 200, 201, 202, 203, 204, 205, 206, 207, 208, 209, 210, 211, 212, 213, 214, 215, 216, 217, 218, 219, 220, 221, 222, 223, 224, 225, 226, 227, 228, 229, 230, 231, 232, 233, 234, 235, 236, 237, 238, 239, 240, 241, 242, 243, 244, 245, 246, 247, 248, 249, 250, 251, 252, 253, 254, 255, 256, 257, 258, 259, 260, 261, 262, 263, 264, 265, 266, 267, 268, 269, 270, 271, 272, 273, 274, 275, 276, 277, 278, 279, 280],
      "LargestImagePixelValue": [1309, 798, 965, 733, 943, 735, 913, 1070, 907, 1124, 752, 777, 913, 748, 737, 781, 988, 872, 1081, 749, 792, 855, 1106, 788, 1023, 799, 1118, 964, 1013, 773, 822, 744, 761, 738, 915, 826, 1063, 1013, 908, 844, 815, 742, 758, 912, 805, 1075, 858, 919, 736, 957, 832, 894, 1185, 877, 860, 756, 762, 758, 779, 773, 1011, 1046, 1004, 1210, 891, 858, 801, 774, 830, 1151, 842, 948, 758, 826, 818, 789, 791, 879, 1033, 779, 986, 749, 715, 816, 985, 782, 1109, 810, 771, 754, 809, 951, 828, 834, 838, 804, 872, 897, 961, 1010, 1233, 920, 798, 762, 750, 961, 768, 1157, 838, 979, 971, 1002, 737, 874, 931, 1070, 978, 976, 782, 812, 816, 748, 957, 760, 1176, 804, 1314, 759, 1250, 791, 1145, 775, 960, 874, 1140, 857, 860, 780, 1001, 758, 977, 759, 1107, 808, 1197, 772, 1199, 753, 1201, 783, 1004, 864, 965, 877, 919, 958, 846, 1145, 769, 1093, 740, 1065, 786, 952, 887, 743, 815, 806, 896, 904, 851, 1045, 820, 817, 829, 905, 806, 958, 870, 811, 1180, 830, 765, 834, 823, 866, 952, 925, 868, 1057, 831, 1201, 757, 1265, 753, 1201, 811, 1128, 806, 826, 801, 1082, 854, 793, 864, 747, 766, 746, 844, 774, 898, 747, 977, 909, 860, 907, 883, 1079, 831, 976, 850, 851, 940, 997, 1137, 780, 776, 815, 787, 848, 924, 1147, 855, 850, 828, 1108, 1058, 879, 1201, 756, 1219, 783, 961, 765, 972, 1008, 1015, 1138, 797, 1152, 769, 1126, 751, 982, 839, 946, 851, 750, 891, 759, 1118, 813, 1152, 806, 1006, 915, 767, 851, 787, 1068, 854, 855, 1093, 798, 957, 868, 768, 1080, 754, 969],
      "WindowCenter": [380.0, 374.0, 375.0, 373.0, 376.0, 373.0, 376.0, 376.0, 374.0, 376.0, 373.0, 372.0, 375.0, 372.0, 372.0, 374.0, 376.0, 375.0, 377.0, 374.0, 375.0, 375.0, 377.0, 374.0, 376.0, 374.0, 376.0, 376.0, 376.0, 373.0, 374.0, 373.0, 373.0, 374.0, 376.0, 375.0, 377.0, 375.0, 374.0, 373.0, 374.0, 373.0, 373.0, 376.0, 374.0, 377.0, 374.0, 375.0, 373.0, 376.0, 374.0, 375.0, 377.0, 373.0, 374.0, 373.0, 373.0, 373.0, 374.0, 374.0, 376.0, 376.0, 375.0, 377.0, 375.0, 374.0, 374.0, 374.0, 374.0, 377.0, 373.0, 374.0, 372.0, 373.0, 373.0, 373.0, 373.0, 374.0, 375.0, 373.0, 375.0, 374.0, 373.0, 375.0, 376.0, 374.0, 376.0, 373.0, 373.0, 373.0, 374.0, 376.0, 374.0, 374.0, 374.0, 374.0, 375.0, 375.0, 376.0, 376.0, 378.0, 374.0, 373.0, 373.0, 373.0, 375.0, 373.0, 378.0, 375.0, 375.0, 375.0, 375.0, 374.0, 376.0, 376.0, 377.0, 376.0, 375.0, 373.0, 374.0, 374.0, 373.0, 376.0, 374.0, 378.0, 373.0, 377.0, 372.0, 378.0, 373.0, 377.0, 373.0, 375.0, 374.0, 376.0, 374.0, 374.0, 373.0, 376.0, 373.0, 377.0, 374.0, 377.0, 374.0, 378.0, 373.0, 377.0, 373.0, 377.0, 373.0, 375.0, 374.0, 375.0, 374.0, 375.0, 375.0, 374.0, 376.0, 373.0, 376.0, 373.0, 376.0, 373.0, 375.0, 374.0, 373.0, 374.0, 374.0, 375.0, 375.0, 375.0, 376.0, 374.0, 374.0, 374.0, 375.0, 374.0, 376.0, 374.0, 373.0, 376.0, 373.0, 373.0, 374.0, 374.0, 375.0, 375.0, 376.0, 374.0, 376.0, 375.0, 378.0, 373.0, 377.0, 373.0, 378.0, 374.0, 376.0, 374.0, 374.0, 374.0, 377.0, 374.0, 374.0, 375.0, 373.0, 373.0, 373.0, 375.0, 373.0, 375.0, 373.0, 376.0, 375.0, 375.0, 376.0, 375.0, 377.0, 375.0, 377.0, 376.0, 375.0, 376.0, 377.0, 377.0, 373.0, 373.0, 374.0, 374.0, 374.0, 376.0, 377.0, 374.0, 374.0, 374.0, 377.0, 377.0, 374.0, 377.0, 373.0, 377.0, 373.0, 376.0, 374.0, 377.0, 377.0, 377.0, 376.0, 373.0, 377.0, 373.0, 377.0, 373.0, 376.0, 375.0, 376.0, 374.0, 373.0, 375.0, 374.0, 377.0, 375.0, 377.0, 373.0, 376.0, 375.0, 373.0, 375.0, 375.0, 377.0, 375.0, 375.0, 376.0, 373.0, 375.0, 374.0, 373.0, 377.0, 373.0, 376.0],
      "WindowWidth": [809.0, 799.0, 800.0, 797.0, 801.0, 798.0, 801.0, 801.0, 798.0, 800.0, 796.0, 796.0, 799.0, 796.0, 796.0, 799.0, 801.0, 800.0, 802.0, 798.0, 799.0, 800.0, 803.0, 799.0, 802.0, 799.0, 801.0, 800.0, 801.0, 798.0, 798.0, 796.0, 798.0, 799.0, 802.0, 800.0, 803.0, 800.0, 798.0, 797.0, 798.0, 797.0, 798.0, 801.0, 798.0, 802.0, 799.0, 800.0, 796.0, 801.0, 799.0, 800.0, 802.0, 797.0, 798.0, 797.0, 798.0, 797.0, 799.0, 799.0, 802.0, 801.0, 800.0, 802.0, 799.0, 799.0, 798.0, 798.0, 799.0, 803.0, 797.0, 798.0, 796.0, 797.0, 797.0, 797.0, 797.0, 799.0, 800.0, 796.0, 800.0, 798.0, 797.0, 801.0, 801.0, 798.0, 801.0, 797.0, 797.0, 797.0, 799.0, 801.0, 799.0, 798.0, 798.0, 798.0, 800.0, 800.0, 801.0, 801.0, 803.0, 798.0, 796.0, 796.0, 796.0, 799.0, 797.0, 804.0, 799.0, 800.0, 800.0, 800.0, 798.0, 801.0, 802.0, 803.0, 801.0, 799.0, 796.0, 799.0, 798.0, 798.0, 802.0, 799.0, 804.0, 798.0, 803.0, 796.0, 803.0, 797.0, 803.0, 797.0, 800.0, 798.0, 800.0, 798.0, 797.0, 796.0, 800.0, 798.0, 803.0, 799.0, 803.0, 799.0, 804.0, 798.0, 803.0, 798.0, 803.0, 797.0, 800.0, 799.0, 800.0, 799.0, 799.0, 800.0, 798.0, 801.0, 796.0, 802.0, 796.0, 801.0, 796.0, 800.0, 797.0, 797.0, 798.0, 799.0, 800.0, 800.0, 799.0, 801.0, 798.0, 798.0, 799.0, 800.0, 799.0, 801.0, 799.0, 797.0, 801.0, 797.0, 796.0, 798.0, 799.0, 800.0, 800.0, 801.0, 799.0, 802.0, 799.0, 803.0, 798.0, 803.0, 797.0, 804.0, 798.0, 801.0, 798.0, 798.0, 799.0, 802.0, 799.0, 798.0, 800.0, 797.0, 798.0, 797.0, 800.0, 798.0, 800.0, 797.0, 801.0, 800.0, 799.0, 801.0, 801.0, 802.0, 800.0, 803.0, 801.0, 800.0, 802.0, 802.0, 803.0, 797.0, 798.0, 799.0, 799.0, 799.0, 801.0, 803.0, 799.0, 799.0, 799.0, 803.0, 802.0, 799.0, 802.0, 796.0, 802.0, 796.0, 801.0, 799.0, 803.0, 802.0, 803.0, 802.0, 798.0, 802.0, 797.0, 802.0, 798.0, 802.0, 800.0, 801.0, 799.0, 797.0, 800.0, 798.0, 803.0, 799.0, 803.0, 797.0, 800.0, 800.0, 798.0, 800.0, 800.0, 804.0, 801.0, 799.0, 801.0, 798.0, 800.0, 799.0, 798.0, 802.0, 798.0, 802.0]
    },
    "slices": {}
  }
}