{
  "AcquisitionMatrixPE": 96,
  "AcquisitionNumber": 1,
  "AcquisitionTime": "15:49:6.300000",
  "BandwidthPerPixelPhaseEncode": 18.939,
  "BaseResolution": 96,
  "BodyPartExamined": "BRAIN",
  "ConsistencyInfo": "N4_VE11C_LATEST_20160120",
  "ConversionSoftware": "dcm2niix",
  "ConversionSoftwareVersion": "v1.0.20170923 (OpenJPEG build) GCC6.3.0",
  "DerivedVendorReportedEchoSpacing": 0.000550011,
  "DeviceSerialNumber": "66112",
  "DwellTime": 2.3e-06,
  "EchoTime": 0.033,
  "EchoTrainLength": 96,
  "EffectiveEchoSpacing": 0.000550011,
  "FlipAngle": 64,
  "ImageType": [
    "ORIGINAL",
    "PRIMARY",
    "FMRI",
    "NONE",
    "ND",
    "NORM",
    "MOSAIC"
],
  "InstitutionAddress": "Maynard_3_Hanover_NH_US_03755",
  "InstitutionName": "Dartmouth_College_-_PBS",
  "MagneticFieldStrength": 3,
  "Manufacturer": "Siemens",
  "ManufacturersModelName": "Prisma",
  "Modality": "MR",
  "MultibandAccelerationFactor": 4,
  "PartialFourier": 1,
  "PercentPhaseFOV": 100,
  "PhaseEncodingDirection": "j-",
  "PhaseEncodingSteps": 96,
  "PhaseResolution": 1,
  "ProcedureStepDescription": "Gobbini_Matteo_1017_famface-angles",
  "ProtocolName": "func_run-09_task-str1back",
  "PulseSequenceDetails": "%SiemensSeq%_ep2d_bold",
  "ReceiveCoilActiveElements": "HEA;HEP",
  "ReceiveCoilName": "Head_32",
  "ReconMatrixPE": 96,
  "RepetitionTime": 1.25,
  "ScanOptions": "FS",
  "ScanningSequence": "EP",
  "SequenceName": "_epfid2d1_96",
  "SequenceVariant": "SK",
  "SeriesDescription": "func_run-09_task-str1back",
  "SliceTiming": [0.88, 0, 0.615, 0.0875, 0.7025, 0.1775, 0.79, 0.3525, 0.9675, 0.44, 1.055, 0.5275, 1.1425, 0.265, 0.88, 0, 0.615, 0.0875, 0.7025, 0.1775, 0.79, 0.3525, 0.9675, 0.44, 1.055, 0.5275, 1.1425, 0.265, 0.88, 0, 0.615, 0.0875, 0.7025, 0.1775, 0.79, 0.3525, 0.9675, 0.44, 1.055, 0.5275, 1.1425, 0.265, 0.88, 0, 0.615, 0.0875, 0.7025, 0.1775, 0.79, 0.3525, 0.9675, 0.44, 1.055, 0.5275, 1.1425, 0.265],
  "SoftwareVersions": "syngo_MR_E11",
  "StationName": "AWP66112",
  "TaskName": "str1back",
  "TotalReadoutTime": 0.0522511,
  "dcmmeta_affine": [
    [-2.4974052906036377, -0.07324890047311783, 0.08718433976173401, 125.31900787353516],
    [-0.07097452878952026, 2.498126983642578, 0.06575585901737213, -98.83976745605469],
    [0.08904563635587692, -0.06321246922016144, 2.4976139068603516, -99.29717254638672],
    [0.0, 0.0, 0.0, 1.0]
],
  "dcmmeta_reorient_transform": [
    [0.0, -1.0, 0.0, 95.0],
    [1.0, 0.0, 0.0, 0.0],
    [0.0, 0.0, 1.0, 0.0],
    [0.0, 0.0, 0.0, 1.0]
],
  "dcmmeta_shape": [96, 96, 56, 280],
  "dcmmeta_slice_dim": 2,
  "dcmmeta_version": 0.6,
  "global": {
    "const": {
      "AccessionNumber": "A000622",
      "AcquisitionMatrix": [96, 0, 0, 96],
      "AngioFlag": "N",
      "BitsAllocated": 16,
      "BitsStored": 12,
      "BodyPartExamined": "BRAIN",
      "Columns": 768,
      "EchoNumbers": 1,
      "EchoTime": 33.0,
      "EchoTrainLength": 96,
      "FlipAngle": 64.0,
      "HighBit": 11,
      "ImageOrientationPatient": [0.9989621406208, 0.02838981249847, 0.03561825588958, -0.0292995594538, 0.99925082197658, 0.02528498754087],
      "ImagePositionPatient": [-932.87693312773, -1001.7004382113, -156.46107884215],
      "ImageType": [
        "ORIGINAL",
        "PRIMARY",
        "FMRI",
        "NONE",
        "ND",
        "NORM",
        "MOSAIC"
],
      "ImagedNucleus": "1H",
      "ImagingFrequency": 123.252414,
      "InPlanePhaseEncodingDirection": "COL",
      "MRAcquisitionType": "2D",
      "MagneticFieldStrength": 3.0,
      "Manufacturer": "SIEMENS",
      "ManufacturerModelName": "Prisma",
      "Modality": "MR",
      "NumberOfAverages": 1.0,
      "NumberOfPhaseEncodingSteps": 96,
      "PercentPhaseFieldOfView": 100.0,
      "PercentSampling": 100.0,
      "PerformedProcedureStepStartTime": "143042.567000",
      "PhotometricInterpretation": "MONOCHROME2",
      "PixelBandwidth": 2265.0,
      "PixelRepresentation": 0,
      "PixelSpacing": [2.5, 2.5],
      "PositionReferenceIndicator": "",
      "ProtocolName": "func_run-09_task-str1back",
      "RepetitionTime": 1250.0,
      "Rows": 768,
      "SAR": 0.05694067184066,
      "SamplesPerPixel": 1,
      "ScanOptions": "FS",
      "ScanningSequence": "EP",
      "SequenceName": "*epfid2d1_96",
      "SequenceVariant": "SK",
      "SeriesDescription": "func_run-09_task-str1back",
      "SeriesNumber": 67,
      "SeriesTime": "154907.582000",
      "SliceLocation": -97.43177108844,
      "SliceThickness": 2.5,
      "SmallestImagePixelValue": 0,
      "SoftwareVersions": "syngo MR E11",
      "SpacingBetweenSlices": 2.4999999993289,
      "SpecificCharacterSet": "ISO_IR 100",
      "StudyID": "1",
      "StudyTime": "143042.498000",
      "TransmitCoilName": "Body",
      "VariableFlipAngleFlag": "N",
      "WindowCenterWidthExplanation": "Algo1",
      "dBdt": 0.0},
    "slices": {}
  },
  "time": {
    "samples": {
      "AcquisitionNumber": [1, 2, 3, 4, 5, 6, 7, 8, 9, 10, 11, 12, 13, 14, 15, 16, 17, 18, 19, 20, 21, 22, 23, 24, 25, 26, 27, 28, 29, 30, 31, 32, 33, 34, 35, 36, 37, 38, 39, 40, 41, 42, 43, 44, 45, 46, 47, 48, 49, 50, 51, 52, 53, 54, 55, 56, 57, 58, 59, 60, 61, 62, 63, 64, 65, 66, 67, 68, 69, 70, 71, 72, 73, 74, 75, 76, 77, 78, 79, 80, 81, 82, 83, 84, 85, 86, 87, 88, 89, 90, 91, 92, 93, 94, 95, 96, 97, 98, 99, 100, 101, 102, 103, 104, 105, 106, 107, 108, 109, 110, 111, 112, 113, 114, 115, 116, 117, 118, 119, 120, 121, 122, 123, 124, 125, 126, 127, 128, 129, 130, 131, 132, 133, 134, 135, 136, 137, 138, 139, 140, 141, 142, 143, 144, 145, 146, 147, 148, 149, 150, 151, 152, 153, 154, 155, 156, 157, 158, 159, 160, 161, 162, 163, 164, 165, 166, 167, 168, 169, 170, 171, 172, 173, 174, 175, 176, 177, 178, 179, 180, 181, 182, 183, 184, 185, 186, 187, 188, 189, 190, 191, 192, 193, 194, 195, 196, 197, 198, 199, 200, 201, 202, 203, 204, 205, 206, 207, 208, 209, 210, 211, 212, 213, 214, 215, 216, 217, 218, 219, 220, 221, 222, 223, 224, 225, 226, 227, 228, 229, 230, 231, 232, 233, 234, 235, 236, 237, 238, 239, 240, 241, 242, 243, 244, 245, 246, 247, 248, 249, 250, 251, 252, 253, 254, 255, 256, 257, 258, 259, 260, 261, 262, 263, 264, 265, 266, 267, 268, 269, 270, 271, 272, 273, 274, 275, 276, 277, 278, 279, 280],
      "AcquisitionTime": ["154906.300000", "154907.550000", "154908.800000", "154910.050000", "154911.300000", "154912.550000", "154913.800000", "154915.050000", "154916.300000", "154917.550000", "154918.800000", "154920.050000", "154921.300000", "154922.550000", "154923.800000", "154925.050000", "154926.300000", "154927.550000", "154928.800000", "154930.050000", "154931.300000", "154932.550000", "154933.800000", "154935.050000", "154936.300000", "154937.550000", "154938.800000", "154940.050000", "154941.300000", "154942.550000", "154943.800000", "154945.050000", "154946.300000", "154947.550000", "154948.800000", "154950.050000", "154951.300000", "154952.550000", "154953.800000", "154955.050000", "154956.300000", "154957.550000", "154958.800000", "155000.050000", "155001.300000", "155002.550000", "155003.800000", "155005.050000", "155006.300000", "155007.550000", "155008.800000", "155010.050000", "155011.300000", "155012.550000", "155013.800000", "155015.050000", "155016.300000", "155017.550000", "155018.800000", "155020.050000", "155021.300000", "155022.550000", "155023.800000", "155025.050000", "155026.300000", "155027.550000", "155028.800000", "155030.050000", "155031.300000", "155032.550000", "155033.800000", "155035.050000", "155036.300000", "155037.550000", "155038.800000", "155040.050000", "155041.300000", "155042.550000", "155043.800000", "155045.050000", "155046.300000", "155047.550000", "155048.800000", "155050.050000", "155051.300000", "155052.550000", "155053.800000", "155055.050000", "155056.300000", "155057.550000", "155058.800000", "155100.050000", "155101.300000", "155102.550000", "155103.800000", "155105.050000", "155106.300000", "155107.550000", "155108.800000", "155110.050000", "155111.300000", "155112.550000", "155113.800000", "155115.050000", "155116.300000", "155117.550000", "155118.800000", "155120.050000", "155121.300000", "155122.550000", "155123.800000", "155125.050000", "155126.300000", "155127.550000", "155128.800000", "155130.050000", "155131.300000", "155132.550000", "155133.800000", "155135.050000", "155136.300000", "155137.550000", "155138.800000", "155140.050000", "155141.300000", "155142.550000", "155143.800000", "155145.050000", "155146.300000", "155147.550000", "155148.800000", "155150.050000", "155151.300000", "155152.550000", "155153.800000", "155155.050000", "155156.300000", "155157.550000", "155158.800000", "155200.050000", "155201.300000", "155202.550000", "155203.800000", "155205.050000", "155206.300000", "155207.550000", "155208.800000", "155210.050000", "155211.300000", "155212.550000", "155213.800000", "155215.050000", "155216.300000", "155217.550000", "155218.800000", "155220.050000", "155221.300000", "155222.550000", "155223.800000", "155225.050000", "155226.300000", "155227.550000", "155228.800000", "155230.050000", "155231.300000", "155232.550000", "155233.800000", "155235.050000", "155236.300000", "155237.550000", "155238.800000", "155240.050000", "155241.300000", "155242.550000", "155243.800000", "155245.050000", "155246.300000", "155247.550000", "155248.800000", "155250.050000", "155251.300000", "155252.550000", "155253.800000", "155255.050000", "155256.300000", "155257.550000", "155258.800000", "155300.050000", "155301.300000", "155302.550000", "155303.800000", "155305.050000", "155306.300000", "155307.550000", "155308.800000", "155310.050000", "155311.300000", "155312.550000", "155313.800000", "155315.050000", "155316.300000", "155317.550000", "155318.800000", "155320.050000", "155321.300000", "155322.550000", "155323.800000", "155325.050000", "155326.300000", "155327.550000", "155328.800000", "155330.050000", "155331.300000", "155332.550000", "155333.800000", "155335.050000", "155336.300000", "155337.550000", "155338.800000", "155340.050000", "155341.300000", "155342.550000", "155343.800000", "155345.050000", "155346.300000", "155347.550000", "155348.800000", "155350.050000", "155351.300000", "155352.550000", "155353.800000", "155355.050000", "155356.300000", "155357.550000", "155358.800000", "155400.050000", "155401.300000", "155402.550000", "155403.800000", "155405.050000", "155406.300000", "155407.550000", "155408.800000", "155410.050000", "155411.300000", "155412.550000", "155413.800000", "155415.050000", "155416.300000", "155417.550000", "155418.800000", "155420.050000", "155421.300000", "155422.550000", "155423.800000", "155425.050000", "155426.300000", "155427.550000", "155428.800000", "155430.050000", "155431.300000", "155432.550000", "155433.800000", "155435.050000", "155436.300000", "155437.550000", "155438.800000", "155440.050000", "155441.300000", "155442.550000", "155443.800000", "155445.050000", "155446.300000", "155447.550000", "155448.800000", "155450.050000", "155451.300000", "155452.550000", "155453.800000", "155455.050000"],
      "ContentTime": ["154907.587000", "154908.637000", "154909.876000", "154911.142000", "154912.379000", "154913.639000", "154914.905000", "154916.135000", "154917.402000", "154918.666000", "154919.874000", "154921.159000", "154922.398000", "154923.630000", "154924.859000", "154926.146000", "154927.461000", "154928.629000", "154929.898000", "154931.131000", "154932.351000", "154933.616000", "154934.880000", "154936.119000", "154937.355000", "154938.630000", "154939.881000", "154941.101000", "154942.424000", "154943.666000", "154944.897000", "154946.133000", "154947.396000", "154948.669000", "154949.885000", "154951.135000", "154952.395000", "154953.646000", "154954.841000", "154956.107000", "154957.377000", "154958.606000", "154959.880000", "155001.122000", "155002.373000", "155003.650000", "155004.909000", "155006.120000", "155007.392000", "155008.670000", "155009.873000", "155011.127000", "155012.353000", "155013.623000", "155014.901000", "155016.149000", "155017.380000", "155018.631000", "155019.891000", "155021.119000", "155022.373000", "155023.641000", "155024.879000", "155026.142000", "155027.395000", "155028.649000", "155029.875000", "155031.121000", "155032.356000", "155033.655000", "155034.887000", "155036.134000", "155037.347000", "155038.643000", "155039.878000", "155041.128000", "155042.438000", "155043.635000", "155044.878000", "155046.174000", "155047.387000", "155048.631000", "155049.883000", "155051.146000", "155052.369000", "155053.643000", "155054.904000", "155056.136000", "155057.383000", "155058.617000", "155059.853000", "155101.161000", "155102.406000", "155103.653000", "155104.876000", "155106.141000", "155107.370000", "155108.653000", "155109.881000", "155111.133000", "155112.375000", "155113.628000", "155114.949000", "155116.129000", "155117.408000", "155118.640000", "155119.908000", "155121.157000", "155122.382000", "155123.637000", "155124.899000", "155126.167000", "155127.390000", "155128.638000", "155129.889000", "155131.143000", "155132.389000", "155133.641000", "155134.869000", "155136.117000", "155137.403000", "155138.661000", "155139.881000", "155141.130000", "155142.382000", "155143.602000", "155144.872000", "155146.122000", "155147.382000", "155148.650000", "155149.904000", "155151.196000", "155152.407000", "155153.641000", "155154.906000", "155156.146000", "155157.398000", "155158.652000", "155159.905000", "155201.154000", "155202.402000", "155203.624000", "155204.913000", "155206.156000", "155207.364000", "155208.592000", "155209.887000", "155211.117000", "155212.399000", "155213.631000", "155214.869000", "155216.179000", "155217.381000", "155218.636000", "155219.881000", "155221.115000", "155222.375000", "155223.654000", "155224.911000", "155226.162000", "155227.390000", "155228.637000", "155229.888000", "155231.203000", "155232.418000", "155233.682000", "155234.872000", "155236.160000", "155237.393000", "155238.621000", "155239.901000", "155241.114000", "155242.398000", "155243.632000", "155244.898000", "155246.110000", "155247.425000", "155248.634000", "155249.893000", "155251.145000", "155252.386000", "155253.626000", "155254.922000", "155256.119000", "155257.371000", "155258.651000", "155259.890000", "155301.162000", "155302.381000", "155303.645000", "155304.895000", "155306.138000", "155307.385000", "155308.648000", "155309.890000", "155311.161000", "155312.416000", "155313.645000", "155314.900000", "155316.151000", "155317.369000", "155318.671000", "155319.885000", "155321.168000", "155322.389000", "155323.640000", "155324.892000", "155326.137000", "155327.416000", "155328.690000", "155329.878000", "155331.148000", "155332.382000", "155333.667000", "155334.861000", "155336.156000", "155337.395000", "155338.642000", "155339.899000", "155341.143000", "155342.419000", "155343.630000", "155344.878000", "155346.134000", "155347.402000", "155348.715000", "155349.903000", "155351.113000", "155352.436000", "155353.630000", "155354.893000", "155356.138000", "155357.387000", "155358.635000", "155359.940000", "155401.124000", "155402.395000", "155403.647000", "155404.879000", "155406.166000", "155407.437000", "155408.636000", "155409.879000", "155411.148000", "155412.346000", "155413.629000", "155414.889000", "155416.147000", "155417.409000", "155418.663000", "155419.901000", "155421.155000", "155422.370000", "155423.675000", "155424.886000", "155426.157000", "155427.404000", "155428.640000", "155429.895000", "155431.137000", "155432.400000", "155433.664000", "155434.943000", "155436.149000", "155437.377000", "155438.614000", "155439.893000", "155441.143000", "155442.408000", "155443.653000", "155444.884000", "155446.116000", "155447.378000", "155448.646000", "155449.895000", "155451.104000", "155452.380000", "155453.658000", "155454.889000", "155456.172000"],
      "InstanceCreationTime": ["154907.587000", "154908.637000", "154909.876000", "154911.142000", "154912.379000", "154913.639000", "154914.905000", "154916.135000", "154917.402000", "154918.666000", "154919.874000", "154921.159000", "154922.398000", "154923.630000", "154924.859000", "154926.146000", "154927.461000", "154928.629000", "154929.898000", "154931.131000", "154932.351000", "154933.616000", "154934.880000", "154936.119000", "154937.355000", "154938.630000", "154939.881000", "154941.101000", "154942.424000", "154943.666000", "154944.897000", "154946.133000", "154947.396000", "154948.669000", "154949.885000", "154951.135000", "154952.395000", "154953.646000", "154954.841000", "154956.107000", "154957.377000", "154958.606000", "154959.880000", "155001.122000", "155002.373000", "155003.650000", "155004.909000", "155006.120000", "155007.392000", "155008.670000", "155009.873000", "155011.127000", "155012.353000", "155013.623000", "155014.901000", "155016.149000", "155017.380000", "155018.631000", "155019.891000", "155021.119000", "155022.373000", "155023.641000", "155024.879000", "155026.142000", "155027.395000", "155028.649000", "155029.875000", "155031.121000", "155032.356000", "155033.655000", "155034.887000", "155036.134000", "155037.347000", "155038.643000", "155039.878000", "155041.128000", "155042.438000", "155043.635000", "155044.878000", "155046.174000", "155047.387000", "155048.631000", "155049.883000", "155051.146000", "155052.369000", "155053.643000", "155054.904000", "155056.136000", "155057.383000", "155058.617000", "155059.853000", "155101.161000", "155102.406000", "155103.653000", "155104.876000", "155106.141000", "155107.370000", "155108.653000", "155109.881000", "155111.133000", "155112.375000", "155113.628000", "155114.949000", "155116.129000", "155117.408000", "155118.640000", "155119.908000", "155121.157000", "155122.382000", "155123.637000", "155124.899000", "155126.167000", "155127.390000", "155128.638000", "155129.889000", "155131.143000", "155132.389000", "155133.641000", "155134.869000", "155136.117000", "155137.403000", "155138.661000", "155139.881000", "155141.130000", "155142.382000", "155143.602000", "155144.872000", "155146.122000", "155147.382000", "155148.650000", "155149.904000", "155151.196000", "155152.407000", "155153.641000", "155154.906000", "155156.146000", "155157.398000", "155158.652000", "155159.905000", "155201.154000", "155202.402000", "155203.624000", "155204.913000", "155206.156000", "155207.364000", "155208.592000", "155209.887000", "155211.117000", "155212.399000", "155213.631000", "155214.869000", "155216.179000", "155217.381000", "155218.636000", "155219.881000", "155221.115000", "155222.375000", "155223.654000", "155224.911000", "155226.162000", "155227.390000", "155228.637000", "155229.888000", "155231.203000", "155232.418000", "155233.682000", "155234.872000", "155236.160000", "155237.393000", "155238.621000", "155239.901000", "155241.114000", "155242.398000", "155243.632000", "155244.898000", "155246.110000", "155247.425000", "155248.634000", "155249.893000", "155251.145000", "155252.386000", "155253.626000", "155254.922000", "155256.119000", "155257.371000", "155258.651000", "155259.890000", "155301.162000", "155302.381000", "155303.645000", "155304.895000", "155306.138000", "155307.385000", "155308.648000", "155309.890000", "155311.161000", "155312.416000", "155313.645000", "155314.900000", "155316.151000", "155317.369000", "155318.671000", "155319.885000", "155321.168000", "155322.389000", "155323.640000", "155324.892000", "155326.137000", "155327.416000", "155328.690000", "155329.878000", "155331.148000", "155332.382000", "155333.667000", "155334.861000", "155336.156000", "155337.395000", "155338.642000", "155339.899000", "155341.143000", "155342.419000", "155343.630000", "155344.878000", "155346.134000", "155347.402000", "155348.715000", "155349.903000", "155351.113000", "155352.436000", "155353.630000", "155354.893000", "155356.138000", "155357.387000", "155358.635000", "155359.940000", "155401.124000", "155402.395000", "155403.647000", "155404.879000", "155406.166000", "155407.437000", "155408.636000", "155409.879000", "155411.148000", "155412.346000", "155413.629000", "155414.889000", "155416.147000", "155417.409000", "155418.663000", "155419.901000", "155421.155000", "155422.370000", "155423.675000", "155424.886000", "155426.157000", "155427.404000", "155428.640000", "155429.895000", "155431.137000", "155432.400000", "155433.664000", "155434.943000", "155436.149000", "155437.377000", "155438.614000", "155439.893000", "155441.143000", "155442.408000", "155443.653000", "155444.884000", "155446.116000", "155447.378000", "155448.646000", "155449.895000", "155451.104000", "155452.380000", "155453.658000", "155454.889000", "155456.172000"],
      "InstanceNumber": [1, 2, 3, 4, 5, 6, 7, 8, 9, 10, 11, 12, 13, 14, 15, 16, 17, 18, 19, 20, 21, 22, 23, 24, 25, 26, 27, 28, 29, 30, 31, 32, 33, 34, 35, 36, 37, 38, 39, 40, 41, 42, 43, 44, 45, 46, 47, 48, 49, 50, 51, 52, 53, 54, 55, 56, 57, 58, 59, 60, 61, 62, 63, 64, 65, 66, 67, 68, 69, 70, 71, 72, 73, 74, 75, 76, 77, 78, 79, 80, 81, 82, 83, 84, 85, 86, 87, 88, 89, 90, 91, 92, 93, 94, 95, 96, 97, 98, 99, 100, 101, 102, 103, 104, 105, 106, 107, 108, 109, 110, 111, 112, 113, 114, 115, 116, 117, 118, 119, 120, 121, 122, 123, 124, 125, 126, 127, 128, 129, 130, 131, 132, 133, 134, 135, 136, 137, 138, 139, 140, 141, 142, 143, 144, 145, 146, 147, 148, 149, 150, 151, 152, 153, 154, 155, 156, 157, 158, 159, 160, 161, 162, 163, 164, 165, 166, 167, 168, 169, 170, 171, 172, 173, 174, 175, 176, 177, 178, 179, 180, 181, 182, 183, 184, 185, 186, 187, 188, 189, 190, 191, 192, 193, 194, 195, 196, 197, 198, 199, 200, 201, 202, 203, 204, 205, 206, 207, 208, 209, 210, 211, 212, 213, 214, 215, 216, 217, 218, 219, 220, 221, 222, 223, 224, 225, 226, 227, 228, 229, 230, 231, 232, 233, 234, 235, 236, 237, 238, 239, 240, 241, 242, 243, 244, 245, 246, 247, 248, 249, 250, 251, 252, 253, 254, 255, 256, 257, 258, 259, 260, 261, 262, 263, 264, 265, 266, 267, 268, 269, 270, 271, 272, 273, 274, 275, 276, 277, 278, 279, 280],
      "LargestImagePixelValue": [924, 807, 905, 899, 935, 899, 842, 800, 808, 794, 818, 804, 835, 760, 862, 756, 871, 801, 913, 777, 964, 1053, 925, 1015, 983, 1126, 1077, 1009, 1012, 1095, 1090, 954, 1024, 773, 840, 832, 803, 750, 1167, 876, 1001, 965, 792, 747, 1229, 979, 851, 1037, 750, 1312, 833, 1093, 872, 775, 902, 853, 988, 888, 936, 773, 914, 885, 849, 863, 1010, 897, 959, 835, 879, 847, 968, 738, 975, 840, 1092, 1101, 1152, 785, 797, 879, 1099, 865, 846, 892, 983, 816, 760, 976, 968, 839, 1177, 921, 1084, 886, 843, 868, 926, 829, 786, 866, 779, 894, 824, 1019, 887, 980, 1059, 1013, 988, 809, 819, 792, 858, 791, 910, 871, 912, 761, 926, 752, 822, 799, 1009, 816, 988, 844, 826, 901, 848, 928, 864, 1000, 811, 799, 796, 910, 857, 977, 887, 889, 923, 799, 962, 766, 1162, 783, 923, 773, 940, 816, 962, 859, 983, 931, 1040, 858, 869, 871, 786, 952, 831, 936, 799, 938, 870, 907, 859, 825, 823, 990, 814, 805, 918, 842, 883, 997, 1068, 967, 1035, 785, 852, 826, 830, 781, 966, 814, 1063, 758, 976, 779, 890, 791, 933, 913, 928, 772, 901, 805, 821, 862, 924, 912, 968, 930, 964, 753, 1018, 792, 1191, 778, 823, 845, 912, 955, 759, 924, 793, 890, 795, 913, 1075, 777, 918, 786, 998, 1041, 890, 834, 858, 886, 978, 1064, 998, 826, 936, 833, 960, 746, 867, 744, 857, 744, 919, 786, 930, 836, 873, 813, 789, 909, 827, 899, 780, 944, 833, 1022, 787, 853, 909, 772, 1064, 871, 975, 824, 950, 1003, 855, 779, 753, 760, 749, 816, 847, 1057, 837, 851, 793, 807, 730, 857],
      "WindowCenter": [374.0, 371.0, 372.0, 372.0, 373.0, 371.0, 372.0, 372.0, 372.0, 372.0, 372.0, 372.0, 372.0, 371.0, 374.0, 373.0, 375.0, 374.0, 374.0, 374.0, 376.0, 378.0, 375.0, 377.0, 376.0, 376.0, 376.0, 374.0, 374.0, 376.0, 376.0, 374.0, 375.0, 371.0, 372.0, 373.0, 373.0, 372.0, 377.0, 374.0, 374.0, 374.0, 373.0, 373.0, 377.0, 375.0, 373.0, 375.0, 372.0, 376.0, 372.0, 376.0, 373.0, 372.0, 374.0, 374.0, 375.0, 374.0, 374.0, 371.0, 374.0, 374.0, 373.0, 373.0, 375.0, 374.0, 374.0, 373.0, 375.0, 374.0, 376.0, 374.0, 375.0, 374.0, 376.0, 376.0, 377.0, 372.0, 373.0, 372.0, 375.0, 373.0, 371.0, 374.0, 374.0, 372.0, 372.0, 375.0, 374.0, 373.0, 376.0, 373.0, 375.0, 373.0, 372.0, 373.0, 374.0, 373.0, 372.0, 373.0, 372.0, 375.0, 373.0, 375.0, 374.0, 373.0, 374.0, 374.0, 373.0, 372.0, 372.0, 372.0, 373.0, 372.0, 374.0, 374.0, 374.0, 371.0, 374.0, 372.0, 373.0, 372.0, 375.0, 372.0, 374.0, 372.0, 373.0, 374.0, 373.0, 374.0, 373.0, 374.0, 372.0, 372.0, 372.0, 374.0, 373.0, 374.0, 373.0, 373.0, 374.0, 372.0, 375.0, 372.0, 376.0, 373.0, 375.0, 373.0, 374.0, 373.0, 374.0, 373.0, 375.0, 375.0, 375.0, 373.0, 372.0, 372.0, 372.0, 373.0, 374.0, 374.0, 373.0, 375.0, 373.0, 373.0, 373.0, 372.0, 371.0, 374.0, 372.0, 371.0, 374.0, 372.0, 374.0, 375.0, 375.0, 374.0, 373.0, 372.0, 372.0, 373.0, 373.0, 373.0, 374.0, 374.0, 376.0, 371.0, 373.0, 372.0, 374.0, 373.0, 374.0, 373.0, 374.0, 372.0, 373.0, 373.0, 373.0, 374.0, 374.0, 374.0, 374.0, 374.0, 373.0, 371.0, 376.0, 373.0, 376.0, 371.0, 372.0, 373.0, 375.0, 375.0, 373.0, 374.0, 373.0, 373.0, 373.0, 374.0, 376.0, 374.0, 374.0, 374.0, 376.0, 375.0, 374.0, 373.0, 373.0, 374.0, 375.0, 375.0, 373.0, 373.0, 375.0, 372.0, 375.0, 372.0, 372.0, 371.0, 372.0, 371.0, 373.0, 371.0, 374.0, 373.0, 372.0, 372.0, 371.0, 374.0, 372.0, 373.0, 372.0, 374.0, 373.0, 376.0, 372.0, 374.0, 373.0, 373.0, 376.0, 374.0, 376.0, 372.0, 374.0, 375.0, 372.0, 372.0, 372.0, 372.0, 371.0, 373.0, 374.0, 376.0, 372.0, 372.0, 372.0, 372.0, 372.0, 373.0],
      "WindowWidth": [798.0, 794.0, 795.0, 795.0, 795.0, 793.0, 795.0, 795.0, 795.0, 795.0, 795.0, 795.0, 794.0, 793.0, 798.0, 796.0, 800.0, 798.0, 798.0, 798.0, 800.0, 803.0, 799.0, 803.0, 800.0, 800.0, 802.0, 797.0, 797.0, 800.0, 800.0, 798.0, 799.0, 792.0, 794.0, 796.0, 797.0, 796.0, 802.0, 798.0, 797.0, 797.0, 797.0, 796.0, 803.0, 800.0, 797.0, 800.0, 795.0, 800.0, 795.0, 800.0, 797.0, 796.0, 798.0, 798.0, 799.0, 798.0, 799.0, 794.0, 798.0, 798.0, 796.0, 797.0, 800.0, 798.0, 798.0, 797.0, 800.0, 799.0, 800.0, 799.0, 800.0, 799.0, 800.0, 801.0, 801.0, 796.0, 797.0, 795.0, 799.0, 796.0, 792.0, 797.0, 798.0, 794.0, 795.0, 799.0, 799.0, 796.0, 800.0, 796.0, 798.0, 796.0, 795.0, 797.0, 798.0, 796.0, 795.0, 797.0, 796.0, 799.0, 796.0, 799.0, 797.0, 796.0, 796.0, 798.0, 795.0, 794.0, 795.0, 795.0, 797.0, 794.0, 798.0, 798.0, 798.0, 793.0, 798.0, 796.0, 796.0, 794.0, 799.0, 794.0, 798.0, 795.0, 797.0, 798.0, 797.0, 798.0, 797.0, 798.0, 795.0, 795.0, 795.0, 798.0, 797.0, 798.0, 797.0, 796.0, 797.0, 795.0, 799.0, 796.0, 800.0, 797.0, 799.0, 797.0, 797.0, 797.0, 798.0, 797.0, 799.0, 799.0, 799.0, 797.0, 795.0, 795.0, 795.0, 796.0, 797.0, 799.0, 796.0, 799.0, 797.0, 797.0, 796.0, 795.0, 793.0, 798.0, 794.0, 793.0, 797.0, 795.0, 798.0, 799.0, 800.0, 798.0, 796.0, 794.0, 794.0, 796.0, 796.0, 796.0, 798.0, 798.0, 800.0, 792.0, 796.0, 795.0, 797.0, 796.0, 799.0, 796.0, 797.0, 795.0, 796.0, 797.0, 797.0, 798.0, 797.0, 797.0, 798.0, 798.0, 796.0, 793.0, 800.0, 796.0, 799.0, 794.0, 794.0, 796.0, 799.0, 800.0, 797.0, 798.0, 796.0, 797.0, 798.0, 798.0, 800.0, 798.0, 798.0, 798.0, 801.0, 798.0, 798.0, 797.0, 796.0, 798.0, 800.0, 798.0, 796.0, 796.0, 799.0, 795.0, 799.0, 795.0, 795.0, 792.0, 794.0, 792.0, 795.0, 793.0, 797.0, 796.0, 794.0, 795.0, 793.0, 798.0, 794.0, 796.0, 795.0, 799.0, 796.0, 802.0, 795.0, 798.0, 797.0, 798.0, 801.0, 797.0, 800.0, 795.0, 797.0, 799.0, 795.0, 794.0, 794.0, 795.0, 794.0, 796.0, 798.0, 801.0, 795.0, 795.0, 794.0, 794.0, 796.0, 796.0]
    },
    "slices": {}
  }
}