{
  "AcquisitionMatrixPE": 96,
  "AcquisitionNumber": 1,
  "AcquisitionTime": "15:42:2.350000",
  "BandwidthPerPixelPhaseEncode": 18.939,
  "BaseResolution": 96,
  "BodyPartExamined": "BRAIN",
  "ConsistencyInfo": "N4_VE11C_LATEST_20160120",
  "ConversionSoftware": "dcm2niix",
  "ConversionSoftwareVersion": "v1.0.20170923 (OpenJPEG build) GCC6.3.0",
  "DerivedVendorReportedEchoSpacing": 0.000550011,
  "DeviceSerialNumber": "66112",
  "DwellTime": 2.3e-06,
  "EchoTime": 0.033,
  "EchoTrainLength": 96,
  "EffectiveEchoSpacing": 0.000550011,
  "FlipAngle": 64,
  "ImageType": [
    "ORIGINAL",
    "PRIMARY",
    "FMRI",
    "NONE",
    "ND",
    "NORM",
    "MOSAIC"
],
  "InstitutionAddress": "Maynard_3_Hanover_NH_US_03755",
  "InstitutionName": "Dartmouth_College_-_PBS",
  "MagneticFieldStrength": 3,
  "Manufacturer": "Siemens",
  "ManufacturersModelName": "Prisma",
  "Modality": "MR",
  "MultibandAccelerationFactor": 4,
  "PartialFourier": 1,
  "PercentPhaseFOV": 100,
  "PhaseEncodingDirection": "j-",
  "PhaseEncodingSteps": 96,
  "PhaseResolution": 1,
  "ProcedureStepDescription": "Gobbini_Matteo_1017_famface-angles",
  "ProtocolName": "func_run-08_task-fam1back",
  "PulseSequenceDetails": "%SiemensSeq%_ep2d_bold",
  "ReceiveCoilActiveElements": "HEA;HEP",
  "ReceiveCoilName": "Head_32",
  "ReconMatrixPE": 96,
  "RepetitionTime": 1.25,
  "ScanOptions": "FS",
  "ScanningSequence": "EP",
  "SequenceName": "_epfid2d1_96",
  "SequenceVariant": "SK",
  "SeriesDescription": "func_run-08_task-fam1back",
  "SliceTiming": [0.88, 0, 0.615, 0.09, 0.705, 0.1775, 0.7925, 0.3525, 0.9675, 0.44, 1.055, 0.5275, 1.1425, 0.265, 0.88, 0, 0.615, 0.09, 0.705, 0.1775, 0.7925, 0.3525, 0.9675, 0.44, 1.055, 0.5275, 1.1425, 0.265, 0.88, 0, 0.615, 0.09, 0.705, 0.1775, 0.7925, 0.3525, 0.9675, 0.44, 1.055, 0.5275, 1.1425, 0.265, 0.88, 0, 0.615, 0.09, 0.705, 0.1775, 0.7925, 0.3525, 0.9675, 0.44, 1.055, 0.5275, 1.1425, 0.265],
  "SoftwareVersions": "syngo_MR_E11",
  "StationName": "AWP66112",
  "TaskName": "fam1back",
  "TotalReadoutTime": 0.0522511,
  "dcmmeta_affine": [
    [-2.4974052906036377, -0.07324890047311783, 0.08718433976173401, 125.31900787353516],
    [-0.07097452878952026, 2.498126983642578, 0.06575585901737213, -98.83976745605469],
    [0.08904563635587692, -0.06321246922016144, 2.4976139068603516, -99.29717254638672],
    [0.0, 0.0, 0.0, 1.0]
],
  "dcmmeta_reorient_transform": [
    [0.0, -1.0, 0.0, 95.0],
    [1.0, 0.0, 0.0, 0.0],
    [0.0, 0.0, 1.0, 0.0],
    [0.0, 0.0, 0.0, 1.0]
],
  "dcmmeta_shape": [96, 96, 56, 280],
  "dcmmeta_slice_dim": 2,
  "dcmmeta_version": 0.6,
  "global": {
    "const": {
      "AccessionNumber": "A000622",
      "AcquisitionMatrix": [96, 0, 0, 96],
      "AngioFlag": "N",
      "BitsAllocated": 16,
      "BitsStored": 12,
      "BodyPartExamined": "BRAIN",
      "Columns": 768,
      "EchoNumbers": 1,
      "EchoTime": 33.0,
      "EchoTrainLength": 96,
      "FlipAngle": 64.0,
      "HighBit": 11,
      "ImageOrientationPatient": [0.9989621406208, 0.02838981249847, 0.03561825588958, -0.0292995594538, 0.99925082197658, 0.02528498754087],
      "ImagePositionPatient": [-932.87693312773, -1001.7004382113, -156.46107884215],
      "ImageType": [
        "ORIGINAL",
        "PRIMARY",
        "FMRI",
        "NONE",
        "ND",
        "NORM",
        "MOSAIC"
],
      "ImagedNucleus": "1H",
      "ImagingFrequency": 123.252413,
      "InPlanePhaseEncodingDirection": "COL",
      "MRAcquisitionType": "2D",
      "MagneticFieldStrength": 3.0,
      "Manufacturer": "SIEMENS",
      "ManufacturerModelName": "Prisma",
      "Modality": "MR",
      "NumberOfAverages": 1.0,
      "NumberOfPhaseEncodingSteps": 96,
      "PercentPhaseFieldOfView": 100.0,
      "PercentSampling": 100.0,
      "PerformedProcedureStepStartTime": "143042.567000",
      "PhotometricInterpretation": "MONOCHROME2",
      "PixelBandwidth": 2265.0,
      "PixelRepresentation": 0,
      "PixelSpacing": [2.5, 2.5],
      "PositionReferenceIndicator": "",
      "ProtocolName": "func_run-08_task-fam1back",
      "RepetitionTime": 1250.0,
      "Rows": 768,
      "SAR": 0.05694067184066,
      "SamplesPerPixel": 1,
      "ScanOptions": "FS",
      "ScanningSequence": "EP",
      "SequenceName": "*epfid2d1_96",
      "SequenceVariant": "SK",
      "SeriesDescription": "func_run-08_task-fam1back",
      "SeriesNumber": 60,
      "SeriesTime": "154203.911000",
      "SliceLocation": -97.43177108844,
      "SliceThickness": 2.5,
      "SmallestImagePixelValue": 0,
      "SoftwareVersions": "syngo MR E11",
      "SpacingBetweenSlices": 2.4999999993289,
      "SpecificCharacterSet": "ISO_IR 100",
      "StudyID": "1",
      "StudyTime": "143042.498000",
      "TransmitCoilName": "Body",
      "VariableFlipAngleFlag": "N",
      "WindowCenterWidthExplanation": "Algo1",
      "dBdt": 0.0},
    "slices": {}
  },
  "time": {
    "samples": {
      "AcquisitionNumber": [1, 2, 3, 4, 5, 6, 7, 8, 9, 10, 11, 12, 13, 14, 15, 16, 17, 18, 19, 20, 21, 22, 23, 24, 25, 26, 27, 28, 29, 30, 31, 32, 33, 34, 35, 36, 37, 38, 39, 40, 41, 42, 43, 44, 45, 46, 47, 48, 49, 50, 51, 52, 53, 54, 55, 56, 57, 58, 59, 60, 61, 62, 63, 64, 65, 66, 67, 68, 69, 70, 71, 72, 73, 74, 75, 76, 77, 78, 79, 80, 81, 82, 83, 84, 85, 86, 87, 88, 89, 90, 91, 92, 93, 94, 95, 96, 97, 98, 99, 100, 101, 102, 103, 104, 105, 106, 107, 108, 109, 110, 111, 112, 113, 114, 115, 116, 117, 118, 119, 120, 121, 122, 123, 124, 125, 126, 127, 128, 129, 130, 131, 132, 133, 134, 135, 136, 137, 138, 139, 140, 141, 142, 143, 144, 145, 146, 147, 148, 149, 150, 151, 152, 153, 154, 155, 156, 157, 158, 159, 160, 161, 162, 163, 164, 165, 166, 167, 168, 169, 170, 171, 172, 173, 174, 175, 176, 177, 178, 179, 180, 181, 182, 183, 184, 185, 186, 187, 188, 189, 190, 191, 192, 193, 194, 195, 196, 197, 198, 199, 200, 201, 202, 203, 204, 205, 206, 207, 208, 209, 210, 211, 212, 213, 214, 215, 216, 217, 218, 219, 220, 221, 222, 223, 224, 225, 226, 227, 228, 229, 230, 231, 232, 233, 234, 235, 236, 237, 238, 239, 240, 241, 242, 243, 244, 245, 246, 247, 248, 249, 250, 251, 252, 253, 254, 255, 256, 257, 258, 259, 260, 261, 262, 263, 264, 265, 266, 267, 268, 269, 270, 271, 272, 273, 274, 275, 276, 277, 278, 279, 280],
      "AcquisitionTime": ["154202.350000", "154203.600000", "154204.850000", "154206.100000", "154207.350000", "154208.600000", "154209.850000", "154211.100000", "154212.350000", "154213.600000", "154214.850000", "154216.100000", "154217.350000", "154218.600000", "154219.850000", "154221.100000", "154222.350000", "154223.600000", "154224.850000", "154226.100000", "154227.350000", "154228.600000", "154229.850000", "154231.100000", "154232.350000", "154233.600000", "154234.850000", "154236.100000", "154237.350000", "154238.600000", "154239.850000", "154241.100000", "154242.350000", "154243.600000", "154244.850000", "154246.100000", "154247.350000", "154248.600000", "154249.850000", "154251.100000", "154252.350000", "154253.600000", "154254.850000", "154256.100000", "154257.350000", "154258.600000", "154259.850000", "154301.100000", "154302.350000", "154303.600000", "154304.850000", "154306.100000", "154307.350000", "154308.600000", "154309.850000", "154311.100000", "154312.350000", "154313.600000", "154314.850000", "154316.100000", "154317.350000", "154318.600000", "154319.850000", "154321.100000", "154322.350000", "154323.600000", "154324.850000", "154326.100000", "154327.350000", "154328.600000", "154329.850000", "154331.100000", "154332.350000", "154333.600000", "154334.850000", "154336.100000", "154337.350000", "154338.600000", "154339.850000", "154341.100000", "154342.350000", "154343.600000", "154344.850000", "154346.100000", "154347.350000", "154348.600000", "154349.850000", "154351.100000", "154352.350000", "154353.600000", "154354.850000", "154356.100000", "154357.350000", "154358.600000", "154359.850000", "154401.100000", "154402.350000", "154403.600000", "154404.850000", "154406.100000", "154407.350000", "154408.600000", "154409.850000", "154411.100000", "154412.350000", "154413.600000", "154414.850000", "154416.100000", "154417.350000", "154418.600000", "154419.850000", "154421.100000", "154422.350000", "154423.600000", "154424.850000", "154426.100000", "154427.350000", "154428.600000", "154429.850000", "154431.100000", "154432.350000", "154433.600000", "154434.850000", "154436.100000", "154437.350000", "154438.600000", "154439.850000", "154441.100000", "154442.350000", "154443.600000", "154444.850000", "154446.100000", "154447.350000", "154448.600000", "154449.850000", "154451.100000", "154452.350000", "154453.600000", "154454.850000", "154456.100000", "154457.350000", "154458.600000", "154459.850000", "154501.100000", "154502.350000", "154503.600000", "154504.850000", "154506.100000", "154507.350000", "154508.600000", "154509.850000", "154511.100000", "154512.350000", "154513.600000", "154514.850000", "154516.100000", "154517.350000", "154518.600000", "154519.850000", "154521.100000", "154522.350000", "154523.600000", "154524.850000", "154526.100000", "154527.350000", "154528.600000", "154529.850000", "154531.100000", "154532.350000", "154533.600000", "154534.850000", "154536.100000", "154537.350000", "154538.600000", "154539.850000", "154541.100000", "154542.350000", "154543.600000", "154544.850000", "154546.100000", "154547.350000", "154548.600000", "154549.850000", "154551.100000", "154552.350000", "154553.600000", "154554.850000", "154556.100000", "154557.350000", "154558.600000", "154559.850000", "154601.100000", "154602.350000", "154603.600000", "154604.850000", "154606.100000", "154607.350000", "154608.600000", "154609.850000", "154611.100000", "154612.350000", "154613.600000", "154614.850000", "154616.100000", "154617.350000", "154618.600000", "154619.850000", "154621.100000", "154622.350000", "154623.600000", "154624.850000", "154626.100000", "154627.350000", "154628.600000", "154629.850000", "154631.100000", "154632.350000", "154633.600000", "154634.850000", "154636.100000", "154637.350000", "154638.600000", "154639.850000", "154641.100000", "154642.350000", "154643.600000", "154644.850000", "154646.100000", "154647.350000", "154648.600000", "154649.850000", "154651.100000", "154652.350000", "154653.600000", "154654.850000", "154656.100000", "154657.350000", "154658.600000", "154659.850000", "154701.100000", "154702.350000", "154703.600000", "154704.850000", "154706.100000", "154707.350000", "154708.600000", "154709.850000", "154711.100000", "154712.350000", "154713.600000", "154714.850000", "154716.100000", "154717.350000", "154718.600000", "154719.850000", "154721.100000", "154722.350000", "154723.600000", "154724.850000", "154726.100000", "154727.350000", "154728.600000", "154729.850000", "154731.100000", "154732.350000", "154733.600000", "154734.850000", "154736.100000", "154737.350000", "154738.600000", "154739.850000", "154741.100000", "154742.350000", "154743.600000", "154744.850000", "154746.100000", "154747.350000", "154748.600000", "154749.850000", "154751.100000"],
      "ContentTime": ["154203.915000", "154204.891000", "154206.159000", "154207.415000", "154208.655000", "154209.948000", "154211.162000", "154212.431000", "154213.664000", "154214.944000", "154216.179000", "154217.448000", "154218.689000", "154219.915000", "154221.192000", "154222.423000", "154223.663000", "154224.888000", "154226.187000", "154227.400000", "154228.695000", "154229.915000", "154231.158000", "154232.415000", "154233.677000", "154234.919000", "154236.161000", "154237.399000", "154238.611000", "154239.911000", "154241.171000", "154242.413000", "154243.658000", "154244.940000", "154246.189000", "154247.415000", "154248.649000", "154249.915000", "154251.217000", "154252.412000", "154253.657000", "154254.917000", "154256.138000", "154257.471000", "154258.633000", "154259.934000", "154301.156000", "154302.408000", "154303.638000", "154304.907000", "154306.202000", "154307.418000", "154308.666000", "154309.910000", "154311.151000", "154312.414000", "154313.664000", "154314.969000", "154316.127000", "154317.426000", "154318.647000", "154319.917000", "154321.139000", "154322.397000", "154323.701000", "154324.910000", "154326.180000", "154327.422000", "154328.648000", "154329.923000", "154331.175000", "154332.390000", "154333.653000", "154334.925000", "154336.187000", "154337.449000", "154338.657000", "154339.952000", "154341.123000", "154342.419000", "154343.669000", "154344.922000", "154346.173000", "154347.456000", "154348.667000", "154349.921000", "154351.200000", "154352.413000", "154353.685000", "154354.911000", "154356.182000", "154357.416000", "154358.652000", "154359.904000", "154401.154000", "154402.398000", "154403.669000", "154404.925000", "154406.152000", "154407.404000", "154408.668000", "154409.935000", "154411.185000", "154412.437000", "154413.695000", "154414.936000", "154416.173000", "154417.413000", "154418.675000", "154419.948000", "154421.188000", "154422.403000", "154423.652000", "154424.882000", "154426.171000", "154427.415000", "154428.668000", "154429.914000", "154431.185000", "154432.412000", "154433.667000", "154434.947000", "154436.180000", "154437.511000", "154438.689000", "154439.960000", "154441.175000", "154442.426000", "154443.657000", "154444.896000", "154446.199000", "154447.449000", "154448.662000", "154449.921000", "154451.129000", "154452.414000", "154453.655000", "154454.942000", "154456.151000", "154457.434000", "154458.676000", "154459.951000", "154501.166000", "154502.442000", "154503.662000", "154504.890000", "154506.176000", "154507.420000", "154508.645000", "154509.926000", "154511.195000", "154512.444000", "154513.670000", "154514.930000", "154516.164000", "154517.421000", "154518.753000", "154519.934000", "154521.170000", "154522.395000", "154523.708000", "154524.915000", "154526.134000", "154527.437000", "154528.668000", "154529.916000", "154531.177000", "154532.428000", "154533.668000", "154534.935000", "154536.141000", "154537.483000", "154538.628000", "154539.909000", "154541.184000", "154542.395000", "154543.695000", "154544.923000", "154546.135000", "154547.440000", "154548.680000", "154549.948000", "154551.161000", "154552.417000", "154553.647000", "154554.988000", "154556.149000", "154557.439000", "154558.723000", "154559.925000", "154601.163000", "154602.429000", "154603.695000", "154604.931000", "154606.144000", "154607.442000", "154608.672000", "154609.895000", "154611.168000", "154612.416000", "154613.669000", "154614.934000", "154616.140000", "154617.396000", "154618.702000", "154619.922000", "154621.167000", "154622.458000", "154623.687000", "154624.914000", "154626.191000", "154627.422000", "154628.663000", "154629.914000", "154631.173000", "154632.422000", "154633.678000", "154634.904000", "154636.160000", "154637.431000", "154638.681000", "154639.970000", "154641.169000", "154642.409000", "154643.718000", "154644.907000", "154646.177000", "154647.390000", "154648.655000", "154649.884000", "154651.207000", "154652.423000", "154653.656000", "154654.948000", "154656.147000", "154657.387000", "154658.734000", "154659.929000", "154701.189000", "154702.437000", "154703.685000", "154704.975000", "154706.164000", "154707.502000", "154708.676000", "154709.912000", "154711.172000", "154712.400000", "154713.639000", "154714.947000", "154716.176000", "154717.447000", "154718.681000", "154719.927000", "154721.179000", "154722.423000", "154723.644000", "154724.936000", "154726.158000", "154727.431000", "154728.657000", "154729.932000", "154731.168000", "154732.402000", "154733.724000", "154734.902000", "154736.177000", "154737.401000", "154738.665000", "154739.891000", "154741.150000", "154742.423000", "154743.685000", "154744.958000", "154746.126000", "154747.415000", "154748.687000", "154749.909000", "154751.227000", "154752.476000"],
      "InstanceCreationTime": ["154203.915000", "154204.891000", "154206.159000", "154207.415000", "154208.655000", "154209.948000", "154211.162000", "154212.431000", "154213.664000", "154214.944000", "154216.179000", "154217.448000", "154218.689000", "154219.915000", "154221.192000", "154222.423000", "154223.663000", "154224.888000", "154226.187000", "154227.400000", "154228.695000", "154229.915000", "154231.158000", "154232.415000", "154233.677000", "154234.919000", "154236.161000", "154237.399000", "154238.611000", "154239.911000", "154241.171000", "154242.413000", "154243.658000", "154244.940000", "154246.189000", "154247.415000", "154248.649000", "154249.915000", "154251.217000", "154252.412000", "154253.657000", "154254.917000", "154256.138000", "154257.471000", "154258.633000", "154259.934000", "154301.156000", "154302.408000", "154303.638000", "154304.907000", "154306.202000", "154307.418000", "154308.666000", "154309.910000", "154311.151000", "154312.414000", "154313.664000", "154314.969000", "154316.127000", "154317.426000", "154318.647000", "154319.917000", "154321.139000", "154322.397000", "154323.701000", "154324.910000", "154326.180000", "154327.422000", "154328.648000", "154329.923000", "154331.175000", "154332.390000", "154333.653000", "154334.925000", "154336.187000", "154337.449000", "154338.657000", "154339.952000", "154341.123000", "154342.419000", "154343.669000", "154344.922000", "154346.173000", "154347.456000", "154348.667000", "154349.921000", "154351.200000", "154352.413000", "154353.685000", "154354.911000", "154356.182000", "154357.416000", "154358.652000", "154359.904000", "154401.154000", "154402.398000", "154403.669000", "154404.925000", "154406.152000", "154407.404000", "154408.668000", "154409.935000", "154411.185000", "154412.437000", "154413.695000", "154414.936000", "154416.173000", "154417.413000", "154418.675000", "154419.948000", "154421.188000", "154422.403000", "154423.652000", "154424.882000", "154426.171000", "154427.415000", "154428.668000", "154429.914000", "154431.185000", "154432.412000", "154433.667000", "154434.947000", "154436.180000", "154437.511000", "154438.689000", "154439.960000", "154441.175000", "154442.426000", "154443.657000", "154444.896000", "154446.199000", "154447.449000", "154448.662000", "154449.921000", "154451.129000", "154452.414000", "154453.655000", "154454.942000", "154456.151000", "154457.434000", "154458.676000", "154459.951000", "154501.166000", "154502.442000", "154503.662000", "154504.890000", "154506.176000", "154507.420000", "154508.645000", "154509.926000", "154511.195000", "154512.444000", "154513.670000", "154514.930000", "154516.164000", "154517.421000", "154518.753000", "154519.934000", "154521.170000", "154522.395000", "154523.708000", "154524.915000", "154526.134000", "154527.437000", "154528.668000", "154529.916000", "154531.177000", "154532.428000", "154533.668000", "154534.935000", "154536.141000", "154537.483000", "154538.628000", "154539.909000", "154541.184000", "154542.395000", "154543.695000", "154544.923000", "154546.135000", "154547.440000", "154548.680000", "154549.948000", "154551.161000", "154552.417000", "154553.647000", "154554.988000", "154556.149000", "154557.439000", "154558.723000", "154559.925000", "154601.163000", "154602.429000", "154603.695000", "154604.931000", "154606.144000", "154607.442000", "154608.672000", "154609.895000", "154611.168000", "154612.416000", "154613.669000", "154614.934000", "154616.140000", "154617.396000", "154618.702000", "154619.922000", "154621.167000", "154622.458000", "154623.687000", "154624.914000", "154626.191000", "154627.422000", "154628.663000", "154629.914000", "154631.173000", "154632.422000", "154633.678000", "154634.904000", "154636.160000", "154637.431000", "154638.681000", "154639.970000", "154641.169000", "154642.409000", "154643.718000", "154644.907000", "154646.177000", "154647.390000", "154648.655000", "154649.884000", "154651.207000", "154652.423000", "154653.656000", "154654.948000", "154656.147000", "154657.387000", "154658.734000", "154659.929000", "154701.189000", "154702.437000", "154703.685000", "154704.975000", "154706.164000", "154707.502000", "154708.676000", "154709.912000", "154711.172000", "154712.400000", "154713.639000", "154714.947000", "154716.176000", "154717.447000", "154718.681000", "154719.927000", "154721.179000", "154722.423000", "154723.644000", "154724.936000", "154726.158000", "154727.431000", "154728.657000", "154729.932000", "154731.168000", "154732.402000", "154733.724000", "154734.902000", "154736.177000", "154737.401000", "154738.665000", "154739.891000", "154741.150000", "154742.423000", "154743.685000", "154744.958000", "154746.126000", "154747.415000", "154748.687000", "154749.909000", "154751.227000", "154752.476000"],
      "InstanceNumber": [1, 2, 3, 4, 5, 6, 7, 8, 9, 10, 11, 12, 13, 14, 15, 16, 17, 18, 19, 20, 21, 22, 23, 24, 25, 26, 27, 28, 29, 30, 31, 32, 33, 34, 35, 36, 37, 38, 39, 40, 41, 42, 43, 44, 45, 46, 47, 48, 49, 50, 51, 52, 53, 54, 55, 56, 57, 58, 59, 60, 61, 62, 63, 64, 65, 66, 67, 68, 69, 70, 71, 72, 73, 74, 75, 76, 77, 78, 79, 80, 81, 82, 83, 84, 85, 86, 87, 88, 89, 90, 91, 92, 93, 94, 95, 96, 97, 98, 99, 100, 101, 102, 103, 104, 105, 106, 107, 108, 109, 110, 111, 112, 113, 114, 115, 116, 117, 118, 119, 120, 121, 122, 123, 124, 125, 126, 127, 128, 129, 130, 131, 132, 133, 134, 135, 136, 137, 138, 139, 140, 141, 142, 143, 144, 145, 146, 147, 148, 149, 150, 151, 152, 153, 154, 155, 156, 157, 158, 159, 160, 161, 162, 163, 164, 165, 166, 167, 168, 169, 170, 171, 172, 173, 174, 175, 176, 177, 178, 179, 180, 181, 182, 183, 184, 185, 186, 187, 188, 189, 190, 191, 192, 193, 194, 195, 196, 197, 198, 199, 200, 201, 202, 203, 204, 205, 206, 207, 208, 209, 210, 211, 212, 213, 214, 215, 216, 217, 218, 219, 220, 221, 222, 223, 224, 225, 226, 227, 228, 229, 230, 231, 232, 233, 234, 235, 236, 237, 238, 239, 240, 241, 242, 243, 244, 245, 246, 247, 248, 249, 250, 251, 252, 253, 254, 255, 256, 257, 258, 259, 260, 261, 262, 263, 264, 265, 266, 267, 268, 269, 270, 271, 272, 273, 274, 275, 276, 277, 278, 279, 280],
      "LargestImagePixelValue": [964, 975, 813, 962, 1014, 1220, 1032, 801, 948, 824, 894, 781, 778, 873, 1033, 817, 947, 751, 777, 756, 1109, 824, 1088, 902, 1102, 935, 941, 1168, 863, 906, 750, 970, 1035, 944, 1208, 868, 845, 814, 1136, 880, 1106, 960, 958, 832, 849, 773, 874, 1199, 855, 878, 795, 805, 777, 796, 1149, 950, 1156, 767, 769, 737, 861, 756, 916, 921, 887, 1191, 755, 904, 721, 1322, 904, 970, 811, 953, 758, 916, 881, 1100, 1010, 893, 1087, 899, 947, 812, 989, 860, 1071, 890, 772, 986, 791, 1125, 827, 1016, 799, 777, 782, 814, 909, 1033, 878, 1073, 840, 803, 768, 1126, 920, 1431, 938, 1118, 839, 1082, 812, 903, 992, 892, 1198, 1147, 1100, 887, 1015, 944, 976, 887, 989, 892, 835, 910, 909, 790, 781, 877, 1117, 1117, 905, 1135, 853, 828, 895, 870, 1097, 786, 1325, 905, 882, 939, 1009, 833, 1076, 982, 1149, 785, 995, 795, 1020, 814, 816, 966, 843, 950, 1012, 941, 966, 827, 1021, 801, 1031, 820, 1104, 727, 984, 874, 1011, 951, 799, 1084, 732, 897, 742, 1103, 855, 1129, 935, 781, 1132, 846, 868, 799, 1181, 1030, 1030, 833, 822, 1202, 869, 1123, 836, 1197, 898, 815, 877, 1066, 1176, 1023, 1148, 945, 990, 1105, 845, 1094, 917, 942, 919, 983, 803, 984, 963, 840, 850, 818, 826, 1001, 1177, 1106, 1013, 1070, 912, 872, 979, 803, 1016, 796, 1208, 806, 943, 745, 1070, 844, 1136, 792, 1081, 808, 1237, 966, 1268, 1078, 943, 981, 825, 786, 1222, 985, 1254, 998, 1250, 850, 1016, 872, 1205, 988, 1282, 939, 1186, 861, 881, 871, 1061, 787, 1068, 1043, 1021, 799, 782, 787, 1052, 806, 1278, 925, 1088, 931],
      "WindowCenter": [376.0, 375.0, 373.0, 374.0, 374.0, 375.0, 374.0, 372.0, 374.0, 372.0, 373.0, 371.0, 371.0, 373.0, 375.0, 372.0, 373.0, 372.0, 372.0, 373.0, 377.0, 374.0, 376.0, 374.0, 375.0, 373.0, 373.0, 376.0, 372.0, 373.0, 371.0, 374.0, 374.0, 373.0, 375.0, 372.0, 372.0, 373.0, 376.0, 374.0, 375.0, 373.0, 373.0, 372.0, 372.0, 372.0, 373.0, 376.0, 372.0, 371.0, 371.0, 372.0, 372.0, 373.0, 376.0, 373.0, 375.0, 370.0, 371.0, 371.0, 373.0, 372.0, 374.0, 373.0, 372.0, 375.0, 370.0, 373.0, 370.0, 377.0, 373.0, 373.0, 372.0, 374.0, 372.0, 375.0, 374.0, 377.0, 373.0, 372.0, 374.0, 372.0, 373.0, 372.0, 373.0, 372.0, 376.0, 372.0, 371.0, 373.0, 372.0, 375.0, 373.0, 374.0, 371.0, 371.0, 372.0, 373.0, 373.0, 375.0, 372.0, 374.0, 373.0, 372.0, 373.0, 376.0, 374.0, 378.0, 373.0, 375.0, 373.0, 376.0, 372.0, 372.0, 373.0, 374.0, 377.0, 375.0, 375.0, 373.0, 373.0, 373.0, 374.0, 373.0, 375.0, 373.0, 371.0, 373.0, 372.0, 372.0, 372.0, 374.0, 376.0, 375.0, 373.0, 375.0, 372.0, 371.0, 372.0, 372.0, 374.0, 371.0, 377.0, 373.0, 373.0, 375.0, 376.0, 372.0, 374.0, 374.0, 375.0, 371.0, 375.0, 372.0, 375.0, 373.0, 374.0, 375.0, 373.0, 375.0, 373.0, 373.0, 373.0, 371.0, 374.0, 371.0, 373.0, 371.0, 373.0, 370.0, 374.0, 373.0, 374.0, 374.0, 372.0, 375.0, 372.0, 374.0, 372.0, 376.0, 372.0, 375.0, 373.0, 371.0, 375.0, 373.0, 373.0, 373.0, 376.0, 376.0, 375.0, 372.0, 372.0, 375.0, 372.0, 376.0, 372.0, 376.0, 372.0, 372.0, 373.0, 375.0, 376.0, 374.0, 374.0, 373.0, 373.0, 374.0, 372.0, 374.0, 372.0, 373.0, 373.0, 373.0, 372.0, 374.0, 373.0, 373.0, 373.0, 373.0, 373.0, 376.0, 377.0, 374.0, 373.0, 374.0, 373.0, 372.0, 373.0, 371.0, 374.0, 371.0, 375.0, 371.0, 373.0, 371.0, 374.0, 372.0, 374.0, 371.0, 375.0, 373.0, 376.0, 373.0, 376.0, 374.0, 373.0, 374.0, 373.0, 373.0, 378.0, 373.0, 375.0, 373.0, 375.0, 373.0, 375.0, 373.0, 376.0, 373.0, 376.0, 373.0, 374.0, 371.0, 371.0, 372.0, 374.0, 371.0, 375.0, 375.0, 373.0, 371.0, 373.0, 373.0, 376.0, 372.0, 375.0, 372.0, 374.0, 373.0],
      "WindowWidth": [803.0, 800.0, 796.0, 797.0, 797.0, 799.0, 796.0, 794.0, 797.0, 794.0, 795.0, 794.0, 793.0, 796.0, 798.0, 795.0, 796.0, 794.0, 795.0, 796.0, 802.0, 798.0, 801.0, 797.0, 799.0, 795.0, 795.0, 800.0, 794.0, 796.0, 793.0, 797.0, 797.0, 796.0, 798.0, 794.0, 795.0, 796.0, 801.0, 797.0, 799.0, 795.0, 795.0, 793.0, 795.0, 794.0, 796.0, 799.0, 793.0, 793.0, 793.0, 794.0, 795.0, 796.0, 800.0, 796.0, 798.0, 792.0, 793.0, 793.0, 796.0, 795.0, 797.0, 796.0, 795.0, 798.0, 792.0, 795.0, 792.0, 801.0, 795.0, 796.0, 794.0, 797.0, 795.0, 800.0, 797.0, 802.0, 796.0, 794.0, 797.0, 794.0, 795.0, 794.0, 796.0, 795.0, 800.0, 795.0, 793.0, 796.0, 794.0, 798.0, 796.0, 796.0, 792.0, 793.0, 794.0, 796.0, 797.0, 798.0, 795.0, 796.0, 797.0, 795.0, 796.0, 800.0, 798.0, 802.0, 794.0, 799.0, 796.0, 801.0, 794.0, 794.0, 796.0, 798.0, 802.0, 798.0, 798.0, 796.0, 796.0, 796.0, 797.0, 797.0, 799.0, 797.0, 793.0, 797.0, 795.0, 795.0, 795.0, 798.0, 800.0, 798.0, 795.0, 798.0, 795.0, 793.0, 795.0, 794.0, 798.0, 793.0, 802.0, 797.0, 795.0, 800.0, 800.0, 795.0, 798.0, 798.0, 798.0, 793.0, 799.0, 795.0, 799.0, 797.0, 798.0, 800.0, 797.0, 799.0, 796.0, 796.0, 796.0, 794.0, 797.0, 794.0, 796.0, 794.0, 795.0, 792.0, 798.0, 796.0, 798.0, 797.0, 795.0, 798.0, 794.0, 798.0, 795.0, 801.0, 795.0, 799.0, 795.0, 793.0, 798.0, 797.0, 797.0, 797.0, 801.0, 800.0, 798.0, 795.0, 795.0, 799.0, 795.0, 799.0, 795.0, 800.0, 794.0, 794.0, 796.0, 799.0, 800.0, 797.0, 797.0, 795.0, 796.0, 797.0, 794.0, 796.0, 794.0, 795.0, 795.0, 796.0, 795.0, 798.0, 795.0, 795.0, 796.0, 798.0, 796.0, 801.0, 802.0, 797.0, 795.0, 797.0, 796.0, 794.0, 795.0, 792.0, 798.0, 793.0, 799.0, 794.0, 796.0, 793.0, 797.0, 794.0, 797.0, 793.0, 799.0, 796.0, 800.0, 796.0, 800.0, 797.0, 795.0, 797.0, 796.0, 796.0, 804.0, 796.0, 799.0, 796.0, 799.0, 796.0, 799.0, 797.0, 799.0, 796.0, 801.0, 796.0, 797.0, 792.0, 793.0, 794.0, 797.0, 794.0, 798.0, 799.0, 796.0, 793.0, 796.0, 797.0, 800.0, 795.0, 798.0, 794.0, 797.0, 795.0]
    },
    "slices": {}
  }
}