{
  "AcquisitionMatrixPE": 96,
  "AcquisitionNumber": 1,
  "AcquisitionTime": "15:21:16.165000",
  "BandwidthPerPixelPhaseEncode": 18.939,
  "BaseResolution": 96,
  "BodyPartExamined": "BRAIN",
  "ConsistencyInfo": "N4_VE11C_LATEST_20160120",
  "ConversionSoftware": "dcm2niix",
  "ConversionSoftwareVersion": "v1.0.20170923 (OpenJPEG build) GCC6.3.0",
  "DerivedVendorReportedEchoSpacing": 0.000550011,
  "DeviceSerialNumber": "66112",
  "DwellTime": 2.3e-06,
  "EchoTime": 0.033,
  "EchoTrainLength": 96,
  "EffectiveEchoSpacing": 0.000550011,
  "FlipAngle": 64,
  "ImageType": [
    "ORIGINAL",
    "PRIMARY",
    "FMRI",
    "NONE",
    "ND",
    "NORM",
    "MOSAIC"
],
  "InstitutionAddress": "Maynard_3_Hanover_NH_US_03755",
  "InstitutionName": "Dartmouth_College_-_PBS",
  "MagneticFieldStrength": 3,
  "Manufacturer": "Siemens",
  "ManufacturersModelName": "Prisma",
  "Modality": "MR",
  "MultibandAccelerationFactor": 4,
  "PartialFourier": 1,
  "PercentPhaseFOV": 100,
  "PhaseEncodingDirection": "j-",
  "PhaseEncodingSteps": 96,
  "PhaseResolution": 1,
  "ProcedureStepDescription": "Gobbini_Matteo_1017_famface-angles",
  "ProtocolName": "func_run-05_task-fam1back",
  "PulseSequenceDetails": "%SiemensSeq%_ep2d_bold",
  "ReceiveCoilActiveElements": "HEA;HEP",
  "ReceiveCoilName": "Head_32",
  "ReconMatrixPE": 96,
  "RepetitionTime": 1.25,
  "ScanOptions": "FS",
  "ScanningSequence": "EP",
  "SequenceName": "_epfid2d1_96",
  "SequenceVariant": "SK",
  "SeriesDescription": "func_run-05_task-fam1back",
  "SliceTiming": [0.8775, 0, 0.615, 0.0875, 0.7025, 0.175, 0.79, 0.3525, 0.9675, 0.44, 1.055, 0.5275, 1.1425, 0.2625, 0.8775, 0, 0.615, 0.0875, 0.7025, 0.175, 0.79, 0.3525, 0.9675, 0.44, 1.055, 0.5275, 1.1425, 0.2625, 0.8775, 0, 0.615, 0.0875, 0.7025, 0.175, 0.79, 0.3525, 0.9675, 0.44, 1.055, 0.5275, 1.1425, 0.2625, 0.8775, 0, 0.615, 0.0875, 0.7025, 0.175, 0.79, 0.3525, 0.9675, 0.44, 1.055, 0.5275, 1.1425, 0.2625],
  "SoftwareVersions": "syngo_MR_E11",
  "StationName": "AWP66112",
  "TaskName": "fam1back",
  "TotalReadoutTime": 0.0522511,
  "dcmmeta_affine": [
    [-2.4974052906036377, -0.07324890047311783, 0.08718433976173401, 125.31900787353516],
    [-0.07097452878952026, 2.498126983642578, 0.06575585901737213, -98.83976745605469],
    [0.08904563635587692, -0.06321246922016144, 2.4976139068603516, -99.29717254638672],
    [0.0, 0.0, 0.0, 1.0]
],
  "dcmmeta_reorient_transform": [
    [0.0, -1.0, 0.0, 95.0],
    [1.0, 0.0, 0.0, 0.0],
    [0.0, 0.0, 1.0, 0.0],
    [0.0, 0.0, 0.0, 1.0]
],
  "dcmmeta_shape": [96, 96, 56, 280],
  "dcmmeta_slice_dim": 2,
  "dcmmeta_version": 0.6,
  "global": {
    "const": {
      "AccessionNumber": "A000622",
      "AcquisitionMatrix": [96, 0, 0, 96],
      "AngioFlag": "N",
      "BitsAllocated": 16,
      "BitsStored": 12,
      "BodyPartExamined": "BRAIN",
      "Columns": 768,
      "EchoNumbers": 1,
      "EchoTime": 33.0,
      "EchoTrainLength": 96,
      "FlipAngle": 64.0,
      "HighBit": 11,
      "ImageOrientationPatient": [0.9989621406208, 0.02838981249847, 0.03561825588958, -0.0292995594538, 0.99925082197658, 0.02528498754087],
      "ImagePositionPatient": [-932.87693312773, -1001.7004382113, -156.46107884215],
      "ImageType": [
        "ORIGINAL",
        "PRIMARY",
        "FMRI",
        "NONE",
        "ND",
        "NORM",
        "MOSAIC"
],
      "ImagedNucleus": "1H",
      "ImagingFrequency": 123.252408,
      "InPlanePhaseEncodingDirection": "COL",
      "MRAcquisitionType": "2D",
      "MagneticFieldStrength": 3.0,
      "Manufacturer": "SIEMENS",
      "ManufacturerModelName": "Prisma",
      "Modality": "MR",
      "NumberOfAverages": 1.0,
      "NumberOfPhaseEncodingSteps": 96,
      "PercentPhaseFieldOfView": 100.0,
      "PercentSampling": 100.0,
      "PerformedProcedureStepStartTime": "143042.567000",
      "PhotometricInterpretation": "MONOCHROME2",
      "PixelBandwidth": 2265.0,
      "PixelRepresentation": 0,
      "PixelSpacing": [2.5, 2.5],
      "PositionReferenceIndicator": "",
      "ProtocolName": "func_run-05_task-fam1back",
      "RepetitionTime": 1250.0,
      "Rows": 768,
      "SAR": 0.05694067184066,
      "SamplesPerPixel": 1,
      "ScanOptions": "FS",
      "ScanningSequence": "EP",
      "SequenceName": "*epfid2d1_96",
      "SequenceVariant": "SK",
      "SeriesDescription": "func_run-05_task-fam1back",
      "SeriesNumber": 39,
      "SeriesTime": "152117.890000",
      "SliceLocation": -97.43177108844,
      "SliceThickness": 2.5,
      "SmallestImagePixelValue": 0,
      "SoftwareVersions": "syngo MR E11",
      "SpacingBetweenSlices": 2.4999999993289,
      "SpecificCharacterSet": "ISO_IR 100",
      "StudyID": "1",
      "StudyTime": "143042.498000",
      "TransmitCoilName": "Body",
      "VariableFlipAngleFlag": "N",
      "WindowCenterWidthExplanation": "Algo1",
      "dBdt": 0.0},
    "slices": {}
  },
  "time": {
    "samples": {
      "AcquisitionNumber": [1, 2, 3, 4, 5, 6, 7, 8, 9, 10, 11, 12, 13, 14, 15, 16, 17, 18, 19, 20, 21, 22, 23, 24, 25, 26, 27, 28, 29, 30, 31, 32, 33, 34, 35, 36, 37, 38, 39, 40, 41, 42, 43, 44, 45, 46, 47, 48, 49, 50, 51, 52, 53, 54, 55, 56, 57, 58, 59, 60, 61, 62, 63, 64, 65, 66, 67, 68, 69, 70, 71, 72, 73, 74, 75, 76, 77, 78, 79, 80, 81, 82, 83, 84, 85, 86, 87, 88, 89, 90, 91, 92, 93, 94, 95, 96, 97, 98, 99, 100, 101, 102, 103, 104, 105, 106, 107, 108, 109, 110, 111, 112, 113, 114, 115, 116, 117, 118, 119, 120, 121, 122, 123, 124, 125, 126, 127, 128, 129, 130, 131, 132, 133, 134, 135, 136, 137, 138, 139, 140, 141, 142, 143, 144, 145, 146, 147, 148, 149, 150, 151, 152, 153, 154, 155, 156, 157, 158, 159, 160, 161, 162, 163, 164, 165, 166, 167, 168, 169, 170, 171, 172, 173, 174, 175, 176, 177, 178, 179, 180, 181, 182, 183, 184, 185, 186, 187, 188, 189, 190, 191, 192, 193, 194, 195, 196, 197, 198, 199, 200, 201, 202, 203, 204, 205, 206, 207, 208, 209, 210, 211, 212, 213, 214, 215, 216, 217, 218, 219, 220, 221, 222, 223, 224, 225, 226, 227, 228, 229, 230, 231, 232, 233, 234, 235, 236, 237, 238, 239, 240, 241, 242, 243, 244, 245, 246, 247, 248, 249, 250, 251, 252, 253, 254, 255, 256, 257, 258, 259, 260, 261, 262, 263, 264, 265, 266, 267, 268, 269, 270, 271, 272, 273, 274, 275, 276, 277, 278, 279, 280],
      "AcquisitionTime": ["152116.165000", "152117.415000", "152118.665000", "152119.915000", "152121.165000", "152122.415000", "152123.665000", "152124.915000", "152126.165000", "152127.415000", "152128.665000", "152129.915000", "152131.165000", "152132.415000", "152133.665000", "152134.915000", "152136.165000", "152137.415000", "152138.665000", "152139.915000", "152141.165000", "152142.415000", "152143.665000", "152144.915000", "152146.165000", "152147.415000", "152148.665000", "152149.915000", "152151.165000", "152152.415000", "152153.665000", "152154.915000", "152156.165000", "152157.415000", "152158.665000", "152159.915000", "152201.165000", "152202.415000", "152203.665000", "152204.915000", "152206.165000", "152207.415000", "152208.665000", "152209.915000", "152211.165000", "152212.415000", "152213.665000", "152214.915000", "152216.165000", "152217.415000", "152218.665000", "152219.915000", "152221.165000", "152222.415000", "152223.665000", "152224.915000", "152226.165000", "152227.415000", "152228.665000", "152229.915000", "152231.165000", "152232.415000", "152233.665000", "152234.915000", "152236.165000", "152237.415000", "152238.665000", "152239.915000", "152241.165000", "152242.415000", "152243.665000", "152244.915000", "152246.165000", "152247.415000", "152248.665000", "152249.915000", "152251.165000", "152252.415000", "152253.665000", "152254.915000", "152256.165000", "152257.415000", "152258.665000", "152259.915000", "152301.165000", "152302.415000", "152303.665000", "152304.915000", "152306.165000", "152307.415000", "152308.665000", "152309.915000", "152311.165000", "152312.415000", "152313.665000", "152314.915000", "152316.165000", "152317.415000", "152318.665000", "152319.915000", "152321.165000", "152322.415000", "152323.665000", "152324.915000", "152326.165000", "152327.415000", "152328.665000", "152329.915000", "152331.165000", "152332.415000", "152333.665000", "152334.915000", "152336.165000", "152337.415000", "152338.665000", "152339.915000", "152341.165000", "152342.415000", "152343.665000", "152344.915000", "152346.165000", "152347.415000", "152348.665000", "152349.915000", "152351.165000", "152352.415000", "152353.665000", "152354.915000", "152356.165000", "152357.415000", "152358.665000", "152359.915000", "152401.165000", "152402.415000", "152403.665000", "152404.915000", "152406.165000", "152407.415000", "152408.665000", "152409.915000", "152411.165000", "152412.415000", "152413.665000", "152414.915000", "152416.165000", "152417.415000", "152418.665000", "152419.915000", "152421.165000", "152422.415000", "152423.665000", "152424.915000", "152426.165000", "152427.415000", "152428.665000", "152429.915000", "152431.165000", "152432.415000", "152433.665000", "152434.915000", "152436.165000", "152437.415000", "152438.665000", "152439.915000", "152441.165000", "152442.415000", "152443.665000", "152444.915000", "152446.165000", "152447.415000", "152448.665000", "152449.915000", "152451.165000", "152452.415000", "152453.665000", "152454.915000", "152456.165000", "152457.415000", "152458.665000", "152459.915000", "152501.165000", "152502.415000", "152503.665000", "152504.915000", "152506.165000", "152507.415000", "152508.665000", "152509.915000", "152511.165000", "152512.415000", "152513.665000", "152514.915000", "152516.165000", "152517.415000", "152518.665000", "152519.915000", "152521.165000", "152522.415000", "152523.665000", "152524.915000", "152526.165000", "152527.415000", "152528.665000", "152529.915000", "152531.165000", "152532.415000", "152533.665000", "152534.915000", "152536.165000", "152537.415000", "152538.665000", "152539.915000", "152541.165000", "152542.415000", "152543.665000", "152544.915000", "152546.165000", "152547.415000", "152548.665000", "152549.915000", "152551.165000", "152552.415000", "152553.665000", "152554.915000", "152556.165000", "152557.415000", "152558.665000", "152559.915000", "152601.165000", "152602.415000", "152603.665000", "152604.915000", "152606.165000", "152607.415000", "152608.665000", "152609.915000", "152611.165000", "152612.415000", "152613.665000", "152614.915000", "152616.165000", "152617.415000", "152618.665000", "152619.915000", "152621.165000", "152622.415000", "152623.665000", "152624.915000", "152626.165000", "152627.415000", "152628.665000", "152629.915000", "152631.165000", "152632.415000", "152633.665000", "152634.915000", "152636.165000", "152637.415000", "152638.665000", "152639.915000", "152641.165000", "152642.415000", "152643.665000", "152644.915000", "152646.165000", "152647.415000", "152648.665000", "152649.915000", "152651.165000", "152652.415000", "152653.665000", "152654.915000", "152656.165000", "152657.415000", "152658.665000", "152659.915000", "152701.165000", "152702.415000", "152703.665000", "152704.915000"],
      "ContentTime": ["152117.894000", "152118.837000", "152120.072000", "152121.354000", "152122.540000", "152123.857000", "152125.088000", "152126.332000", "152127.574000", "152128.806000", "152130.078000", "152131.324000", "152132.615000", "152133.852000", "152135.068000", "152136.329000", "152137.585000", "152138.817000", "152140.075000", "152141.331000", "152142.575000", "152143.830000", "152145.081000", "152146.323000", "152147.597000", "152148.832000", "152150.053000", "152151.311000", "152152.567000", "152153.820000", "152155.062000", "152156.334000", "152157.613000", "152158.809000", "152200.087000", "152201.342000", "152202.594000", "152203.836000", "152205.106000", "152206.311000", "152207.580000", "152208.810000", "152210.087000", "152211.337000", "152212.596000", "152213.838000", "152215.090000", "152216.383000", "152217.572000", "152218.831000", "152220.054000", "152221.320000", "152222.585000", "152223.838000", "152225.062000", "152226.323000", "152227.567000", "152228.831000", "152230.061000", "152231.337000", "152232.585000", "152233.812000", "152235.066000", "152236.349000", "152237.576000", "152238.803000", "152240.084000", "152241.299000", "152242.570000", "152243.826000", "152245.087000", "152246.311000", "152247.576000", "152248.794000", "152250.079000", "152251.329000", "152252.570000", "152253.865000", "152255.075000", "152256.344000", "152257.564000", "152258.799000", "152300.132000", "152301.336000", "152302.559000", "152303.830000", "152305.123000", "152306.309000", "152307.608000", "152308.821000", "152310.049000", "152311.309000", "152312.562000", "152313.791000", "152315.080000", "152316.295000", "152317.528000", "152318.810000", "152320.073000", "152321.316000", "152322.602000", "152323.851000", "152325.107000", "152326.333000", "152327.592000", "152328.836000", "152330.117000", "152331.323000", "152332.539000", "152333.838000", "152335.083000", "152336.345000", "152337.606000", "152338.880000", "152340.102000", "152341.352000", "152342.588000", "152343.833000", "152345.073000", "152346.338000", "152347.580000", "152348.828000", "152350.091000", "152351.318000", "152352.559000", "152353.836000", "152355.092000", "152356.360000", "152357.585000", "152358.820000", "152400.088000", "152401.348000", "152402.593000", "152403.829000", "152405.087000", "152406.368000", "152407.571000", "152408.813000", "152410.085000", "152411.333000", "152412.589000", "152413.827000", "152415.087000", "152416.315000", "152417.585000", "152418.829000", "152420.061000", "152421.345000", "152422.630000", "152423.844000", "152425.065000", "152426.342000", "152427.573000", "152428.853000", "152430.090000", "152431.329000", "152432.592000", "152433.853000", "152435.104000", "152436.328000", "152437.584000", "152438.887000", "152440.081000", "152441.365000", "152442.585000", "152443.840000", "152445.095000", "152446.383000", "152447.600000", "152448.864000", "152450.110000", "152451.332000", "152452.580000", "152453.838000", "152455.085000", "152456.330000", "152457.618000", "152458.859000", "152500.098000", "152501.334000", "152502.562000", "152503.827000", "152505.080000", "152506.342000", "152507.622000", "152508.854000", "152510.094000", "152511.381000", "152512.577000", "152513.820000", "152515.095000", "152516.333000", "152517.585000", "152518.867000", "152520.111000", "152521.305000", "152522.568000", "152523.849000", "152525.081000", "152526.306000", "152527.571000", "152528.836000", "152530.075000", "152531.323000", "152532.576000", "152533.911000", "152535.080000", "152536.351000", "152537.576000", "152538.903000", "152540.086000", "152541.322000", "152542.594000", "152543.836000", "152545.106000", "152546.329000", "152547.590000", "152548.854000", "152550.090000", "152551.295000", "152552.570000", "152553.887000", "152555.100000", "152556.322000", "152557.554000", "152558.835000", "152600.080000", "152601.308000", "152602.590000", "152603.849000", "152605.082000", "152606.350000", "152607.593000", "152608.840000", "152610.095000", "152611.270000", "152612.565000", "152613.790000", "152615.122000", "152616.348000", "152617.571000", "152618.858000", "152620.035000", "152621.357000", "152622.578000", "152623.827000", "152625.070000", "152626.341000", "152627.582000", "152628.836000", "152630.080000", "152631.360000", "152632.593000", "152633.823000", "152635.064000", "152636.306000", "152637.580000", "152638.836000", "152640.088000", "152641.319000", "152642.633000", "152643.849000", "152645.078000", "152646.300000", "152647.597000", "152648.850000", "152650.073000", "152651.365000", "152652.604000", "152653.820000", "152655.110000", "152656.346000", "152657.585000", "152658.865000", "152700.062000", "152701.335000", "152702.576000", "152703.856000", "152705.096000", "152706.368000"],
      "InstanceCreationTime": ["152117.894000", "152118.837000", "152120.072000", "152121.354000", "152122.540000", "152123.857000", "152125.088000", "152126.332000", "152127.574000", "152128.806000", "152130.078000", "152131.324000", "152132.615000", "152133.852000", "152135.068000", "152136.329000", "152137.585000", "152138.817000", "152140.075000", "152141.331000", "152142.575000", "152143.830000", "152145.081000", "152146.323000", "152147.597000", "152148.832000", "152150.053000", "152151.311000", "152152.567000", "152153.820000", "152155.062000", "152156.334000", "152157.613000", "152158.809000", "152200.087000", "152201.342000", "152202.594000", "152203.836000", "152205.106000", "152206.311000", "152207.580000", "152208.810000", "152210.087000", "152211.337000", "152212.596000", "152213.838000", "152215.090000", "152216.383000", "152217.572000", "152218.831000", "152220.054000", "152221.320000", "152222.585000", "152223.838000", "152225.062000", "152226.323000", "152227.567000", "152228.831000", "152230.061000", "152231.337000", "152232.585000", "152233.812000", "152235.066000", "152236.349000", "152237.576000", "152238.803000", "152240.084000", "152241.299000", "152242.570000", "152243.826000", "152245.087000", "152246.311000", "152247.576000", "152248.794000", "152250.079000", "152251.329000", "152252.570000", "152253.865000", "152255.075000", "152256.344000", "152257.564000", "152258.799000", "152300.132000", "152301.336000", "152302.559000", "152303.830000", "152305.123000", "152306.309000", "152307.608000", "152308.821000", "152310.049000", "152311.309000", "152312.562000", "152313.791000", "152315.080000", "152316.295000", "152317.528000", "152318.810000", "152320.073000", "152321.316000", "152322.602000", "152323.851000", "152325.107000", "152326.333000", "152327.592000", "152328.836000", "152330.117000", "152331.323000", "152332.539000", "152333.838000", "152335.083000", "152336.345000", "152337.606000", "152338.880000", "152340.102000", "152341.352000", "152342.588000", "152343.833000", "152345.073000", "152346.338000", "152347.580000", "152348.828000", "152350.091000", "152351.318000", "152352.559000", "152353.836000", "152355.092000", "152356.360000", "152357.585000", "152358.820000", "152400.088000", "152401.348000", "152402.593000", "152403.829000", "152405.087000", "152406.368000", "152407.571000", "152408.813000", "152410.085000", "152411.333000", "152412.589000", "152413.827000", "152415.087000", "152416.315000", "152417.585000", "152418.829000", "152420.061000", "152421.345000", "152422.630000", "152423.844000", "152425.065000", "152426.342000", "152427.573000", "152428.853000", "152430.090000", "152431.329000", "152432.592000", "152433.853000", "152435.104000", "152436.328000", "152437.584000", "152438.887000", "152440.081000", "152441.365000", "152442.585000", "152443.840000", "152445.095000", "152446.383000", "152447.600000", "152448.864000", "152450.110000", "152451.332000", "152452.580000", "152453.838000", "152455.085000", "152456.330000", "152457.618000", "152458.859000", "152500.098000", "152501.334000", "152502.562000", "152503.827000", "152505.080000", "152506.342000", "152507.622000", "152508.854000", "152510.094000", "152511.381000", "152512.577000", "152513.820000", "152515.095000", "152516.333000", "152517.585000", "152518.867000", "152520.111000", "152521.305000", "152522.568000", "152523.849000", "152525.081000", "152526.306000", "152527.571000", "152528.836000", "152530.075000", "152531.323000", "152532.576000", "152533.911000", "152535.080000", "152536.351000", "152537.576000", "152538.903000", "152540.086000", "152541.322000", "152542.594000", "152543.836000", "152545.106000", "152546.329000", "152547.590000", "152548.854000", "152550.090000", "152551.295000", "152552.570000", "152553.887000", "152555.100000", "152556.322000", "152557.554000", "152558.835000", "152600.080000", "152601.308000", "152602.590000", "152603.849000", "152605.082000", "152606.350000", "152607.593000", "152608.840000", "152610.095000", "152611.270000", "152612.565000", "152613.790000", "152615.122000", "152616.348000", "152617.571000", "152618.858000", "152620.035000", "152621.357000", "152622.578000", "152623.827000", "152625.070000", "152626.341000", "152627.582000", "152628.836000", "152630.080000", "152631.360000", "152632.593000", "152633.823000", "152635.064000", "152636.306000", "152637.580000", "152638.836000", "152640.088000", "152641.319000", "152642.633000", "152643.849000", "152645.078000", "152646.300000", "152647.597000", "152648.850000", "152650.073000", "152651.365000", "152652.604000", "152653.820000", "152655.110000", "152656.346000", "152657.585000", "152658.865000", "152700.062000", "152701.335000", "152702.576000", "152703.856000", "152705.096000", "152706.368000"],
      "InstanceNumber": [1, 2, 3, 4, 5, 6, 7, 8, 9, 10, 11, 12, 13, 14, 15, 16, 17, 18, 19, 20, 21, 22, 23, 24, 25, 26, 27, 28, 29, 30, 31, 32, 33, 34, 35, 36, 37, 38, 39, 40, 41, 42, 43, 44, 45, 46, 47, 48, 49, 50, 51, 52, 53, 54, 55, 56, 57, 58, 59, 60, 61, 62, 63, 64, 65, 66, 67, 68, 69, 70, 71, 72, 73, 74, 75, 76, 77, 78, 79, 80, 81, 82, 83, 84, 85, 86, 87, 88, 89, 90, 91, 92, 93, 94, 95, 96, 97, 98, 99, 100, 101, 102, 103, 104, 105, 106, 107, 108, 109, 110, 111, 112, 113, 114, 115, 116, 117, 118, 119, 120, 121, 122, 123, 124, 125, 126, 127, 128, 129, 130, 131, 132, 133, 134, 135, 136, 137, 138, 139, 140, 141, 142, 143, 144, 145, 146, 147, 148, 149, 150, 151, 152, 153, 154, 155, 156, 157, 158, 159, 160, 161, 162, 163, 164, 165, 166, 167, 168, 169, 170, 171, 172, 173, 174, 175, 176, 177, 178, 179, 180, 181, 182, 183, 184, 185, 186, 187, 188, 189, 190, 191, 192, 193, 194, 195, 196, 197, 198, 199, 200, 201, 202, 203, 204, 205, 206, 207, 208, 209, 210, 211, 212, 213, 214, 215, 216, 217, 218, 219, 220, 221, 222, 223, 224, 225, 226, 227, 228, 229, 230, 231, 232, 233, 234, 235, 236, 237, 238, 239, 240, 241, 242, 243, 244, 245, 246, 247, 248, 249, 250, 251, 252, 253, 254, 255, 256, 257, 258, 259, 260, 261, 262, 263, 264, 265, 266, 267, 268, 269, 270, 271, 272, 273, 274, 275, 276, 277, 278, 279, 280],
      "LargestImagePixelValue": [781, 1033, 1141, 918, 893, 938, 862, 760, 834, 1135, 931, 1171, 1044, 760, 804, 776, 1040, 833, 1125, 774, 1066, 786, 1096, 784, 1200, 947, 881, 812, 860, 1125, 795, 898, 761, 1201, 762, 971, 839, 919, 783, 1003, 873, 1136, 876, 879, 784, 742, 894, 845, 1021, 891, 922, 1084, 763, 903, 793, 865, 765, 1128, 787, 1015, 761, 1147, 780, 1134, 997, 1008, 1009, 757, 1127, 831, 805, 766, 855, 1044, 750, 762, 913, 964, 1045, 1219, 963, 887, 922, 1041, 760, 944, 765, 900, 890, 793, 1192, 905, 1037, 781, 898, 783, 858, 914, 888, 909, 888, 832, 1113, 820, 970, 810, 762, 817, 773, 1145, 784, 1187, 801, 1109, 819, 889, 1044, 762, 982, 864, 1112, 768, 784, 1086, 840, 1169, 769, 1023, 756, 1086, 760, 933, 764, 1110, 757, 1025, 796, 847, 890, 832, 993, 991, 794, 846, 748, 779, 741, 891, 959, 943, 1269, 1034, 1027, 904, 890, 1053, 786, 964, 811, 782, 772, 776, 982, 907, 1093, 992, 1175, 782, 769, 764, 882, 930, 1107, 1025, 794, 773, 798, 1027, 776, 964, 794, 784, 793, 826, 790, 803, 1003, 791, 1215, 916, 1058, 797, 1022, 807, 1066, 813, 1152, 823, 1020, 798, 1159, 854, 852, 847, 787, 890, 745, 874, 932, 764, 886, 1115, 848, 1213, 937, 994, 876, 880, 814, 902, 995, 891, 964, 823, 839, 874, 834, 783, 866, 857, 903, 761, 799, 825, 1084, 885, 1078, 782, 1132, 755, 866, 906, 1035, 792, 1255, 920, 852, 814, 838, 868, 805, 781, 785, 803, 1041, 889, 1091, 889, 851, 1027, 813, 779, 793, 1081, 908, 784, 734, 843, 725, 896, 1048, 901, 791, 840, 773, 861, 762, 748, 811, 1080],
      "WindowCenter": [375.0, 377.0, 378.0, 375.0, 375.0, 375.0, 374.0, 373.0, 375.0, 377.0, 375.0, 376.0, 375.0, 372.0, 373.0, 373.0, 376.0, 374.0, 377.0, 373.0, 376.0, 374.0, 377.0, 373.0, 378.0, 375.0, 374.0, 374.0, 374.0, 377.0, 373.0, 374.0, 373.0, 376.0, 372.0, 375.0, 374.0, 375.0, 373.0, 375.0, 374.0, 376.0, 374.0, 374.0, 374.0, 373.0, 375.0, 374.0, 376.0, 374.0, 375.0, 376.0, 373.0, 375.0, 374.0, 375.0, 373.0, 377.0, 373.0, 375.0, 373.0, 378.0, 374.0, 378.0, 376.0, 376.0, 375.0, 372.0, 376.0, 374.0, 374.0, 373.0, 374.0, 376.0, 373.0, 373.0, 375.0, 376.0, 376.0, 378.0, 375.0, 374.0, 375.0, 376.0, 373.0, 375.0, 373.0, 375.0, 375.0, 373.0, 378.0, 375.0, 377.0, 373.0, 375.0, 373.0, 374.0, 375.0, 375.0, 375.0, 376.0, 375.0, 377.0, 374.0, 375.0, 373.0, 373.0, 374.0, 374.0, 377.0, 373.0, 376.0, 373.0, 376.0, 374.0, 375.0, 376.0, 373.0, 375.0, 374.0, 377.0, 373.0, 375.0, 378.0, 375.0, 377.0, 373.0, 375.0, 372.0, 376.0, 373.0, 375.0, 373.0, 377.0, 373.0, 376.0, 373.0, 374.0, 375.0, 374.0, 376.0, 376.0, 373.0, 374.0, 373.0, 373.0, 373.0, 376.0, 376.0, 375.0, 378.0, 376.0, 376.0, 375.0, 375.0, 377.0, 372.0, 375.0, 373.0, 373.0, 374.0, 375.0, 377.0, 376.0, 377.0, 376.0, 377.0, 373.0, 373.0, 373.0, 375.0, 376.0, 377.0, 375.0, 373.0, 373.0, 373.0, 376.0, 373.0, 375.0, 373.0, 373.0, 374.0, 375.0, 375.0, 375.0, 376.0, 374.0, 378.0, 375.0, 376.0, 373.0, 377.0, 374.0, 377.0, 374.0, 378.0, 374.0, 376.0, 374.0, 377.0, 374.0, 374.0, 374.0, 373.0, 374.0, 373.0, 375.0, 376.0, 374.0, 375.0, 377.0, 374.0, 377.0, 375.0, 375.0, 374.0, 374.0, 374.0, 376.0, 376.0, 375.0, 375.0, 373.0, 373.0, 374.0, 375.0, 373.0, 375.0, 374.0, 374.0, 373.0, 373.0, 374.0, 377.0, 375.0, 376.0, 373.0, 376.0, 372.0, 374.0, 375.0, 377.0, 374.0, 378.0, 375.0, 374.0, 374.0, 374.0, 374.0, 373.0, 372.0, 374.0, 375.0, 376.0, 375.0, 377.0, 374.0, 373.0, 375.0, 374.0, 373.0, 374.0, 376.0, 374.0, 373.0, 372.0, 375.0, 373.0, 374.0, 375.0, 375.0, 372.0, 374.0, 373.0, 373.0, 374.0, 374.0, 376.0, 377.0],
      "WindowWidth": [801.0, 803.0, 805.0, 799.0, 800.0, 800.0, 799.0, 797.0, 799.0, 802.0, 800.0, 801.0, 799.0, 795.0, 797.0, 798.0, 801.0, 799.0, 803.0, 797.0, 802.0, 798.0, 802.0, 798.0, 803.0, 800.0, 798.0, 798.0, 798.0, 802.0, 797.0, 799.0, 796.0, 801.0, 795.0, 800.0, 798.0, 799.0, 796.0, 800.0, 799.0, 801.0, 798.0, 799.0, 799.0, 797.0, 801.0, 799.0, 802.0, 799.0, 799.0, 801.0, 797.0, 799.0, 798.0, 799.0, 798.0, 802.0, 797.0, 800.0, 796.0, 804.0, 799.0, 804.0, 802.0, 800.0, 799.0, 795.0, 800.0, 798.0, 798.0, 798.0, 799.0, 801.0, 796.0, 798.0, 801.0, 801.0, 801.0, 803.0, 799.0, 798.0, 799.0, 801.0, 796.0, 799.0, 796.0, 800.0, 800.0, 798.0, 803.0, 800.0, 802.0, 798.0, 800.0, 798.0, 799.0, 800.0, 800.0, 801.0, 802.0, 801.0, 803.0, 798.0, 800.0, 797.0, 797.0, 799.0, 798.0, 802.0, 797.0, 801.0, 796.0, 802.0, 799.0, 800.0, 801.0, 796.0, 800.0, 799.0, 802.0, 798.0, 800.0, 805.0, 801.0, 803.0, 797.0, 800.0, 795.0, 800.0, 796.0, 799.0, 796.0, 802.0, 796.0, 801.0, 797.0, 798.0, 799.0, 799.0, 801.0, 802.0, 797.0, 799.0, 797.0, 797.0, 798.0, 802.0, 802.0, 800.0, 803.0, 801.0, 801.0, 800.0, 800.0, 802.0, 796.0, 799.0, 797.0, 798.0, 799.0, 800.0, 803.0, 801.0, 803.0, 802.0, 802.0, 797.0, 797.0, 798.0, 800.0, 802.0, 802.0, 800.0, 796.0, 796.0, 797.0, 801.0, 797.0, 800.0, 798.0, 798.0, 799.0, 800.0, 800.0, 800.0, 802.0, 798.0, 803.0, 800.0, 801.0, 796.0, 802.0, 798.0, 802.0, 799.0, 804.0, 799.0, 801.0, 799.0, 803.0, 798.0, 797.0, 797.0, 796.0, 799.0, 797.0, 800.0, 801.0, 798.0, 800.0, 803.0, 799.0, 803.0, 799.0, 800.0, 799.0, 799.0, 799.0, 801.0, 801.0, 799.0, 800.0, 796.0, 796.0, 799.0, 799.0, 798.0, 799.0, 798.0, 799.0, 797.0, 798.0, 798.0, 802.0, 799.0, 801.0, 796.0, 800.0, 796.0, 799.0, 800.0, 802.0, 799.0, 803.0, 799.0, 798.0, 799.0, 799.0, 799.0, 797.0, 795.0, 799.0, 800.0, 801.0, 800.0, 802.0, 798.0, 797.0, 800.0, 798.0, 798.0, 798.0, 801.0, 798.0, 797.0, 794.0, 799.0, 797.0, 798.0, 799.0, 800.0, 795.0, 799.0, 797.0, 797.0, 800.0, 799.0, 802.0, 803.0]
    },
    "slices": {}
  }
}