{
  "AcquisitionMatrixPE": 96,
  "AcquisitionNumber": 1,
  "AcquisitionTime": "12:39:12.505000",
  "BandwidthPerPixelPhaseEncode": 18.939,
  "BaseResolution": 96,
  "BodyPartExamined": "BRAIN",
  "ConsistencyInfo": "N4_VE11C_LATEST_20160120",
  "ConversionSoftware": "dcm2niix",
  "ConversionSoftwareVersion": "v1.0.20170923 (OpenJPEG build) GCC6.3.0",
  "DerivedVendorReportedEchoSpacing": 0.000550011,
  "DeviceSerialNumber": "66112",
  "DwellTime": 2.3e-06,
  "EchoTime": 0.033,
  "EchoTrainLength": 96,
  "EffectiveEchoSpacing": 0.000550011,
  "FlipAngle": 64,
  "ImageType": [
    "ORIGINAL",
    "PRIMARY",
    "FMRI",
    "NONE",
    "ND",
    "NORM",
    "MOSAIC"
],
  "InstitutionAddress": "Maynard_3_Hanover_NH_US_03755",
  "InstitutionName": "Dartmouth_College_-_PBS",
  "MagneticFieldStrength": 3,
  "Manufacturer": "Siemens",
  "ManufacturersModelName": "Prisma",
  "Modality": "MR",
  "MultibandAccelerationFactor": 4,
  "PartialFourier": 1,
  "PercentPhaseFOV": 100,
  "PhaseEncodingDirection": "j-",
  "PhaseEncodingSteps": 96,
  "PhaseResolution": 1,
  "ProcedureStepDescription": "Gobbini_Matteo_1017_famface-angles",
  "ProtocolName": "func_run-06_task-localizer",
  "PulseSequenceDetails": "%SiemensSeq%_ep2d_bold",
  "ReceiveCoilActiveElements": "HEA;HEP",
  "ReceiveCoilName": "Head_32",
  "ReconMatrixPE": 96,
  "RepetitionTime": 1.25,
  "ScanOptions": "FS",
  "ScanningSequence": "EP",
  "SequenceName": "_epfid2d1_96",
  "SequenceVariant": "SK",
  "SeriesDescription": "func_run-06_task-localizer",
  "SliceTiming": [0.88, 0, 0.615, 0.0875, 0.7025, 0.175, 0.79, 0.3525, 0.9675, 0.44, 1.055, 0.5275, 1.1425, 0.265, 0.88, 0, 0.615, 0.0875, 0.7025, 0.175, 0.79, 0.3525, 0.9675, 0.44, 1.055, 0.5275, 1.1425, 0.265, 0.88, 0, 0.615, 0.0875, 0.7025, 0.175, 0.79, 0.3525, 0.9675, 0.44, 1.055, 0.5275, 1.1425, 0.265, 0.88, 0, 0.615, 0.0875, 0.7025, 0.175, 0.79, 0.3525, 0.9675, 0.44, 1.055, 0.5275, 1.1425, 0.265],
  "SoftwareVersions": "syngo_MR_E11",
  "StationName": "AWP66112",
  "TaskName": "localizer",
  "TotalReadoutTime": 0.0522511,
  "dcmmeta_affine": [
    [-2.498403787612915, 0.08157113939523697, 0.03640395775437355, 116.79878234863281],
    [0.08137824386358261, 2.4986371994018555, -0.013761538080871105, -107.37017822265625],
    [0.036833133548498154, 0.01256775576621294, 2.499696969985962, -92.32444763183594],
    [0.0, 0.0, 0.0, 1.0]
],
  "dcmmeta_reorient_transform": [
    [0.0, -1.0, 0.0, 95.0],
    [1.0, 0.0, 0.0, 0.0],
    [0.0, 0.0, 1.0, 0.0],
    [0.0, 0.0, 0.0, 1.0]
],
  "dcmmeta_shape": [96, 96, 56, 325],
  "dcmmeta_slice_dim": 2,
  "dcmmeta_version": 0.6,
  "global": {
    "const": {
      "AccessionNumber": "A000626",
      "AcquisitionMatrix": [96, 0, 0, 96],
      "AngioFlag": "N",
      "BitsAllocated": 16,
      "BitsStored": 12,
      "BodyPartExamined": "BRAIN",
      "Columns": 768,
      "EchoNumbers": 1,
      "EchoTime": 33.0,
      "EchoTrainLength": 96,
      "FlipAngle": 64.0,
      "HighBit": 11,
      "ImageOrientationPatient": [0.99936146825591, -0.0325512979924, 0.01473325369347, 0.03262845440208, 0.99945490754021, -0.0050271022581],
      "ImagePositionPatient": [-991.41957769192, -942.19939280876, -99.283679914101],
      "ImageType": [
        "ORIGINAL",
        "PRIMARY",
        "FMRI",
        "NONE",
        "ND",
        "NORM",
        "MOSAIC"
],
      "ImagedNucleus": "1H",
      "ImagingFrequency": 123.252372,
      "InPlanePhaseEncodingDirection": "COL",
      "MRAcquisitionType": "2D",
      "MagneticFieldStrength": 3.0,
      "Manufacturer": "SIEMENS",
      "ManufacturerModelName": "Prisma",
      "Modality": "MR",
      "NumberOfAverages": 1.0,
      "NumberOfPhaseEncodingSteps": 96,
      "PercentPhaseFieldOfView": 100.0,
      "PercentSampling": 100.0,
      "PerformedProcedureStepStartTime": "115639.421000",
      "PhotometricInterpretation": "MONOCHROME2",
      "PixelBandwidth": 2265.0,
      "PixelRepresentation": 0,
      "PixelSpacing": [2.5, 2.5],
      "PositionReferenceIndicator": "",
      "ProtocolName": "func_run-06_task-localizer",
      "RepetitionTime": 1250.0,
      "Rows": 768,
      "SAR": 0.05773376300875,
      "SamplesPerPixel": 1,
      "ScanOptions": "FS",
      "ScanningSequence": "EP",
      "SequenceName": "*epfid2d1_96",
      "SequenceVariant": "SK",
      "SeriesDescription": "func_run-06_task-localizer",
      "SeriesNumber": 43,
      "SeriesTime": "123914.265000",
      "SliceLocation": -90.021454958262,
      "SliceThickness": 2.5,
      "SmallestImagePixelValue": 0,
      "SoftwareVersions": "syngo MR E11",
      "SpacingBetweenSlices": 2.4999999183068,
      "SpecificCharacterSet": "ISO_IR 100",
      "StudyID": "1",
      "StudyTime": "115639.361000",
      "TransmitCoilName": "Body",
      "VariableFlipAngleFlag": "N",
      "WindowCenterWidthExplanation": "Algo1",
      "dBdt": 0.0},
    "slices": {}
  },
  "time": {
    "samples": {
      "AcquisitionNumber": [1, 2, 3, 4, 5, 6, 7, 8, 9, 10, 11, 12, 13, 14, 15, 16, 17, 18, 19, 20, 21, 22, 23, 24, 25, 26, 27, 28, 29, 30, 31, 32, 33, 34, 35, 36, 37, 38, 39, 40, 41, 42, 43, 44, 45, 46, 47, 48, 49, 50, 51, 52, 53, 54, 55, 56, 57, 58, 59, 60, 61, 62, 63, 64, 65, 66, 67, 68, 69, 70, 71, 72, 73, 74, 75, 76, 77, 78, 79, 80, 81, 82, 83, 84, 85, 86, 87, 88, 89, 90, 91, 92, 93, 94, 95, 96, 97, 98, 99, 100, 101, 102, 103, 104, 105, 106, 107, 108, 109, 110, 111, 112, 113, 114, 115, 116, 117, 118, 119, 120, 121, 122, 123, 124, 125, 126, 127, 128, 129, 130, 131, 132, 133, 134, 135, 136, 137, 138, 139, 140, 141, 142, 143, 144, 145, 146, 147, 148, 149, 150, 151, 152, 153, 154, 155, 156, 157, 158, 159, 160, 161, 162, 163, 164, 165, 166, 167, 168, 169, 170, 171, 172, 173, 174, 175, 176, 177, 178, 179, 180, 181, 182, 183, 184, 185, 186, 187, 188, 189, 190, 191, 192, 193, 194, 195, 196, 197, 198, 199, 200, 201, 202, 203, 204, 205, 206, 207, 208, 209, 210, 211, 212, 213, 214, 215, 216, 217, 218, 219, 220, 221, 222, 223, 224, 225, 226, 227, 228, 229, 230, 231, 232, 233, 234, 235, 236, 237, 238, 239, 240, 241, 242, 243, 244, 245, 246, 247, 248, 249, 250, 251, 252, 253, 254, 255, 256, 257, 258, 259, 260, 261, 262, 263, 264, 265, 266, 267, 268, 269, 270, 271, 272, 273, 274, 275, 276, 277, 278, 279, 280, 281, 282, 283, 284, 285, 286, 287, 288, 289, 290, 291, 292, 293, 294, 295, 296, 297, 298, 299, 300, 301, 302, 303, 304, 305, 306, 307, 308, 309, 310, 311, 312, 313, 314, 315, 316, 317, 318, 319, 320, 321, 322, 323, 324, 325],
      "AcquisitionTime": ["123912.505000", "123913.755000", "123915.005000", "123916.255000", "123917.505000", "123918.755000", "123920.005000", "123921.255000", "123922.505000", "123923.755000", "123925.005000", "123926.255000", "123927.505000", "123928.755000", "123930.005000", "123931.255000", "123932.505000", "123933.755000", "123935.005000", "123936.255000", "123937.505000", "123938.755000", "123940.005000", "123941.255000", "123942.505000", "123943.755000", "123945.005000", "123946.255000", "123947.505000", "123948.755000", "123950.005000", "123951.255000", "123952.505000", "123953.755000", "123955.005000", "123956.255000", "123957.505000", "123958.755000", "124000.005000", "124001.255000", "124002.505000", "124003.755000", "124005.005000", "124006.255000", "124007.505000", "124008.755000", "124010.005000", "124011.255000", "124012.505000", "124013.755000", "124015.005000", "124016.255000", "124017.505000", "124018.755000", "124020.005000", "124021.255000", "124022.505000", "124023.755000", "124025.005000", "124026.255000", "124027.505000", "124028.755000", "124030.005000", "124031.255000", "124032.505000", "124033.755000", "124035.005000", "124036.255000", "124037.505000", "124038.755000", "124040.005000", "124041.255000", "124042.505000", "124043.755000", "124045.005000", "124046.255000", "124047.505000", "124048.755000", "124050.005000", "124051.255000", "124052.505000", "124053.755000", "124055.005000", "124056.255000", "124057.505000", "124058.755000", "124100.005000", "124101.255000", "124102.505000", "124103.755000", "124105.005000", "124106.255000", "124107.505000", "124108.755000", "124110.005000", "124111.255000", "124112.505000", "124113.755000", "124115.005000", "124116.255000", "124117.505000", "124118.755000", "124120.005000", "124121.255000", "124122.505000", "124123.755000", "124125.005000", "124126.255000", "124127.505000", "124128.755000", "124130.005000", "124131.255000", "124132.505000", "124133.755000", "124135.005000", "124136.255000", "124137.505000", "124138.755000", "124140.005000", "124141.255000", "124142.505000", "124143.755000", "124145.005000", "124146.255000", "124147.505000", "124148.755000", "124150.005000", "124151.255000", "124152.505000", "124153.755000", "124155.005000", "124156.255000", "124157.505000", "124158.755000", "124200.005000", "124201.255000", "124202.505000", "124203.755000", "124205.005000", "124206.255000", "124207.505000", "124208.755000", "124210.005000", "124211.255000", "124212.505000", "124213.755000", "124215.005000", "124216.255000", "124217.505000", "124218.755000", "124220.005000", "124221.255000", "124222.505000", "124223.755000", "124225.005000", "124226.255000", "124227.505000", "124228.755000", "124230.005000", "124231.255000", "124232.505000", "124233.755000", "124235.005000", "124236.255000", "124237.505000", "124238.755000", "124240.005000", "124241.255000", "124242.505000", "124243.755000", "124245.005000", "124246.255000", "124247.505000", "124248.755000", "124250.005000", "124251.255000", "124252.505000", "124253.755000", "124255.005000", "124256.255000", "124257.505000", "124258.755000", "124300.005000", "124301.255000", "124302.505000", "124303.755000", "124305.005000", "124306.255000", "124307.505000", "124308.755000", "124310.005000", "124311.255000", "124312.505000", "124313.755000", "124315.005000", "124316.255000", "124317.505000", "124318.755000", "124320.005000", "124321.255000", "124322.505000", "124323.755000", "124325.005000", "124326.255000", "124327.505000", "124328.755000", "124330.005000", "124331.255000", "124332.505000", "124333.755000", "124335.005000", "124336.255000", "124337.505000", "124338.755000", "124340.005000", "124341.255000", "124342.505000", "124343.755000", "124345.005000", "124346.255000", "124347.505000", "124348.755000", "124350.005000", "124351.255000", "124352.505000", "124353.755000", "124355.005000", "124356.255000", "124357.505000", "124358.755000", "124400.005000", "124401.255000", "124402.505000", "124403.755000", "124405.005000", "124406.255000", "124407.505000", "124408.755000", "124410.005000", "124411.255000", "124412.505000", "124413.755000", "124415.005000", "124416.255000", "124417.505000", "124418.755000", "124420.005000", "124421.255000", "124422.505000", "124423.755000", "124425.005000", "124426.255000", "124427.505000", "124428.755000", "124430.005000", "124431.255000", "124432.505000", "124433.755000", "124435.005000", "124436.255000", "124437.505000", "124438.755000", "124440.005000", "124441.255000", "124442.505000", "124443.755000", "124445.005000", "124446.255000", "124447.505000", "124448.755000", "124450.005000", "124451.255000", "124452.505000", "124453.755000", "124455.005000", "124456.255000", "124457.505000", "124458.755000", "124500.005000", "124501.255000", "124502.505000", "124503.755000", "124505.005000", "124506.255000", "124507.505000", "124508.755000", "124510.005000", "124511.255000", "124512.505000", "124513.755000", "124515.005000", "124516.255000", "124517.505000", "124518.755000", "124520.005000", "124521.255000", "124522.505000", "124523.755000", "124525.005000", "124526.255000", "124527.505000", "124528.755000", "124530.005000", "124531.255000", "124532.505000", "124533.755000", "124535.005000", "124536.255000", "124537.505000", "124538.755000", "124540.005000", "124541.255000", "124542.505000", "124543.755000", "124545.005000", "124546.255000", "124547.505000", "124548.755000", "124550.005000", "124551.255000", "124552.505000", "124553.755000", "124555.005000", "124556.255000", "124557.505000"],
      "ContentTime": ["123914.268000", "123915.298000", "123916.554000", "123917.796000", "123919.061000", "123920.310000", "123921.540000", "123922.833000", "123924.051000", "123925.298000", "123926.517000", "123927.793000", "123929.085000", "123930.324000", "123931.516000", "123932.813000", "123934.049000", "123935.340000", "123936.537000", "123937.829000", "123939.028000", "123940.291000", "123941.536000", "123942.805000", "123944.040000", "123945.312000", "123946.586000", "123947.785000", "123949.054000", "123950.293000", "123951.542000", "123952.793000", "123954.002000", "123955.277000", "123956.544000", "123957.770000", "123959.038000", "124000.241000", "124001.584000", "124002.790000", "124004.130000", "124005.317000", "124006.565000", "124007.824000", "124009.049000", "124010.328000", "124011.528000", "124012.772000", "124014.033000", "124015.286000", "124016.521000", "124017.790000", "124019.115000", "124020.297000", "124021.525000", "124022.842000", "124024.035000", "124025.306000", "124026.545000", "124027.807000", "124029.056000", "124030.298000", "124031.575000", "124032.804000", "124034.045000", "124035.290000", "124036.540000", "124037.810000", "124039.041000", "124040.312000", "124041.540000", "124042.796000", "124044.043000", "124045.300000", "124046.513000", "124047.836000", "124049.034000", "124050.313000", "124051.555000", "124052.786000", "124054.031000", "124055.275000", "124056.550000", "124057.780000", "124059.042000", "124100.331000", "124101.547000", "124102.773000", "124104.048000", "124105.318000", "124106.543000", "124107.814000", "124109.066000", "124110.283000", "124111.542000", "124112.810000", "124114.117000", "124115.301000", "124116.551000", "124117.801000", "124119.021000", "124120.318000", "124121.589000", "124122.824000", "124124.089000", "124125.327000", "124126.567000", "124127.791000", "124129.068000", "124130.279000", "124131.575000", "124132.865000", "124134.033000", "124135.296000", "124136.544000", "124137.812000", "124139.027000", "124140.288000", "124141.556000", "124142.802000", "124144.042000", "124145.305000", "124146.583000", "124147.800000", "124149.065000", "124150.284000", "124151.569000", "124152.802000", "124154.050000", "124155.324000", "124156.545000", "124157.805000", "124159.064000", "124200.326000", "124201.566000", "124202.794000", "124204.070000", "124205.333000", "124206.590000", "124207.854000", "124209.053000", "124210.308000", "124211.583000", "124212.876000", "124214.155000", "124215.356000", "124216.563000", "124217.785000", "124219.045000", "124220.288000", "124221.534000", "124222.798000", "124224.032000", "124225.294000", "124226.541000", "124227.815000", "124229.072000", "124230.318000", "124231.556000", "124232.788000", "124234.053000", "124235.318000", "124236.546000", "124237.845000", "124239.062000", "124240.305000", "124241.526000", "124242.844000", "124244.059000", "124245.295000", "124246.542000", "124247.797000", "124249.059000", "124250.294000", "124251.567000", "124252.824000", "124254.036000", "124255.304000", "124256.553000", "124257.811000", "124259.121000", "124300.289000", "124301.558000", "124302.785000", "124304.061000", "124305.334000", "124306.561000", "124307.825000", "124309.056000", "124310.288000", "124311.549000", "124312.817000", "124314.044000", "124315.312000", "124316.565000", "124317.859000", "124319.089000", "124320.293000", "124321.567000", "124322.780000", "124324.046000", "124325.322000", "124326.550000", "124327.806000", "124329.042000", "124330.305000", "124331.566000", "124332.786000", "124334.085000", "124335.272000", "124336.570000", "124337.794000", "124339.044000", "124340.336000", "124341.547000", "124342.823000", "124344.052000", "124345.305000", "124346.585000", "124347.813000", "124349.065000", "124350.303000", "124351.587000", "124352.807000", "124354.116000", "124355.296000", "124356.588000", "124357.789000", "124359.035000", "124400.312000", "124401.560000", "124402.769000", "124404.050000", "124405.310000", "124406.565000", "124407.796000", "124409.068000", "124410.308000", "124411.555000", "124412.833000", "124414.022000", "124415.319000", "124416.589000", "124417.803000", "124419.062000", "124420.338000", "124421.572000", "124422.822000", "124424.068000", "124425.309000", "124426.646000", "124427.775000", "124429.051000", "124430.298000", "124431.554000", "124432.814000", "124434.022000", "124435.300000", "124436.529000", "124437.840000", "124439.071000", "124440.296000", "124441.524000", "124442.818000", "124444.077000", "124445.314000", "124446.612000", "124447.783000", "124449.073000", "124450.307000", "124451.547000", "124452.824000", "124454.048000", "124455.320000", "124456.573000", "124457.815000", "124459.045000", "124500.301000", "124501.544000", "124502.806000", "124504.050000", "124505.283000", "124506.534000", "124507.804000", "124509.058000", "124510.311000", "124511.557000", "124512.822000", "124514.033000", "124515.297000", "124516.528000", "124517.816000", "124519.065000", "124520.307000", "124521.552000", "124522.809000", "124524.060000", "124525.299000", "124526.619000", "124527.952000", "124529.088000", "124530.292000", "124531.568000", "124532.789000", "124534.077000", "124535.294000", "124536.571000", "124537.788000", "124539.028000", "124540.297000", "124541.544000", "124542.778000", "124544.062000", "124545.257000", "124546.537000", "124547.773000", "124549.121000", "124550.350000", "124551.545000", "124552.799000", "124554.053000", "124555.328000", "124556.553000", "124557.820000", "124559.100000"],
      "InstanceCreationTime": ["123914.268000", "123915.298000", "123916.554000", "123917.796000", "123919.061000", "123920.310000", "123921.540000", "123922.833000", "123924.051000", "123925.298000", "123926.517000", "123927.793000", "123929.085000", "123930.324000", "123931.516000", "123932.813000", "123934.049000", "123935.340000", "123936.537000", "123937.829000", "123939.028000", "123940.291000", "123941.536000", "123942.805000", "123944.040000", "123945.312000", "123946.586000", "123947.785000", "123949.054000", "123950.293000", "123951.542000", "123952.793000", "123954.002000", "123955.277000", "123956.544000", "123957.770000", "123959.038000", "124000.241000", "124001.584000", "124002.790000", "124004.130000", "124005.317000", "124006.565000", "124007.824000", "124009.049000", "124010.328000", "124011.528000", "124012.772000", "124014.033000", "124015.286000", "124016.521000", "124017.790000", "124019.115000", "124020.297000", "124021.525000", "124022.842000", "124024.035000", "124025.306000", "124026.545000", "124027.807000", "124029.056000", "124030.298000", "124031.575000", "124032.804000", "124034.045000", "124035.290000", "124036.540000", "124037.810000", "124039.041000", "124040.312000", "124041.540000", "124042.796000", "124044.043000", "124045.300000", "124046.513000", "124047.836000", "124049.034000", "124050.313000", "124051.555000", "124052.786000", "124054.031000", "124055.275000", "124056.550000", "124057.780000", "124059.042000", "124100.331000", "124101.547000", "124102.773000", "124104.048000", "124105.318000", "124106.543000", "124107.814000", "124109.066000", "124110.283000", "124111.542000", "124112.810000", "124114.117000", "124115.301000", "124116.551000", "124117.801000", "124119.021000", "124120.318000", "124121.589000", "124122.824000", "124124.089000", "124125.327000", "124126.567000", "124127.791000", "124129.068000", "124130.279000", "124131.575000", "124132.865000", "124134.033000", "124135.296000", "124136.544000", "124137.812000", "124139.027000", "124140.288000", "124141.556000", "124142.802000", "124144.042000", "124145.305000", "124146.583000", "124147.800000", "124149.065000", "124150.284000", "124151.569000", "124152.802000", "124154.050000", "124155.324000", "124156.545000", "124157.805000", "124159.064000", "124200.326000", "124201.566000", "124202.794000", "124204.070000", "124205.333000", "124206.590000", "124207.854000", "124209.053000", "124210.308000", "124211.583000", "124212.876000", "124214.155000", "124215.356000", "124216.563000", "124217.785000", "124219.045000", "124220.288000", "124221.534000", "124222.798000", "124224.032000", "124225.294000", "124226.541000", "124227.815000", "124229.072000", "124230.318000", "124231.556000", "124232.788000", "124234.053000", "124235.318000", "124236.546000", "124237.845000", "124239.062000", "124240.305000", "124241.526000", "124242.844000", "124244.059000", "124245.295000", "124246.542000", "124247.797000", "124249.059000", "124250.294000", "124251.567000", "124252.824000", "124254.036000", "124255.304000", "124256.553000", "124257.811000", "124259.121000", "124300.289000", "124301.558000", "124302.785000", "124304.061000", "124305.334000", "124306.561000", "124307.825000", "124309.056000", "124310.288000", "124311.549000", "124312.817000", "124314.044000", "124315.312000", "124316.565000", "124317.859000", "124319.089000", "124320.293000", "124321.567000", "124322.780000", "124324.046000", "124325.322000", "124326.550000", "124327.806000", "124329.042000", "124330.305000", "124331.566000", "124332.786000", "124334.085000", "124335.272000", "124336.570000", "124337.794000", "124339.044000", "124340.336000", "124341.547000", "124342.823000", "124344.052000", "124345.305000", "124346.585000", "124347.813000", "124349.065000", "124350.303000", "124351.587000", "124352.807000", "124354.116000", "124355.296000", "124356.588000", "124357.789000", "124359.035000", "124400.312000", "124401.560000", "124402.769000", "124404.050000", "124405.310000", "124406.565000", "124407.796000", "124409.068000", "124410.308000", "124411.555000", "124412.833000", "124414.022000", "124415.319000", "124416.589000", "124417.803000", "124419.062000", "124420.338000", "124421.572000", "124422.822000", "124424.068000", "124425.309000", "124426.646000", "124427.775000", "124429.051000", "124430.298000", "124431.554000", "124432.814000", "124434.022000", "124435.300000", "124436.529000", "124437.840000", "124439.071000", "124440.296000", "124441.524000", "124442.818000", "124444.077000", "124445.314000", "124446.612000", "124447.783000", "124449.073000", "124450.307000", "124451.547000", "124452.824000", "124454.048000", "124455.320000", "124456.573000", "124457.815000", "124459.045000", "124500.301000", "124501.544000", "124502.806000", "124504.050000", "124505.283000", "124506.534000", "124507.804000", "124509.058000", "124510.311000", "124511.557000", "124512.822000", "124514.033000", "124515.297000", "124516.528000", "124517.816000", "124519.065000", "124520.307000", "124521.552000", "124522.809000", "124524.060000", "124525.299000", "124526.619000", "124527.952000", "124529.088000", "124530.292000", "124531.568000", "124532.789000", "124534.077000", "124535.294000", "124536.571000", "124537.788000", "124539.028000", "124540.297000", "124541.544000", "124542.778000", "124544.062000", "124545.257000", "124546.537000", "124547.773000", "124549.121000", "124550.350000", "124551.545000", "124552.799000", "124554.053000", "124555.328000", "124556.553000", "124557.820000", "124559.100000"],
      "InstanceNumber": [1, 2, 3, 4, 5, 6, 7, 8, 9, 10, 11, 12, 13, 14, 15, 16, 17, 18, 19, 20, 21, 22, 23, 24, 25, 26, 27, 28, 29, 30, 31, 32, 33, 34, 35, 36, 37, 38, 39, 40, 41, 42, 43, 44, 45, 46, 47, 48, 49, 50, 51, 52, 53, 54, 55, 56, 57, 58, 59, 60, 61, 62, 63, 64, 65, 66, 67, 68, 69, 70, 71, 72, 73, 74, 75, 76, 77, 78, 79, 80, 81, 82, 83, 84, 85, 86, 87, 88, 89, 90, 91, 92, 93, 94, 95, 96, 97, 98, 99, 100, 101, 102, 103, 104, 105, 106, 107, 108, 109, 110, 111, 112, 113, 114, 115, 116, 117, 118, 119, 120, 121, 122, 123, 124, 125, 126, 127, 128, 129, 130, 131, 132, 133, 134, 135, 136, 137, 138, 139, 140, 141, 142, 143, 144, 145, 146, 147, 148, 149, 150, 151, 152, 153, 154, 155, 156, 157, 158, 159, 160, 161, 162, 163, 164, 165, 166, 167, 168, 169, 170, 171, 172, 173, 174, 175, 176, 177, 178, 179, 180, 181, 182, 183, 184, 185, 186, 187, 188, 189, 190, 191, 192, 193, 194, 195, 196, 197, 198, 199, 200, 201, 202, 203, 204, 205, 206, 207, 208, 209, 210, 211, 212, 213, 214, 215, 216, 217, 218, 219, 220, 221, 222, 223, 224, 225, 226, 227, 228, 229, 230, 231, 232, 233, 234, 235, 236, 237, 238, 239, 240, 241, 242, 243, 244, 245, 246, 247, 248, 249, 250, 251, 252, 253, 254, 255, 256, 257, 258, 259, 260, 261, 262, 263, 264, 265, 266, 267, 268, 269, 270, 271, 272, 273, 274, 275, 276, 277, 278, 279, 280, 281, 282, 283, 284, 285, 286, 287, 288, 289, 290, 291, 292, 293, 294, 295, 296, 297, 298, 299, 300, 301, 302, 303, 304, 305, 306, 307, 308, 309, 310, 311, 312, 313, 314, 315, 316, 317, 318, 319, 320, 321, 322, 323, 324, 325],
      "LargestImagePixelValue": [974, 1131, 773, 918, 1196, 903, 798, 861, 992, 1166, 832, 901, 912, 910, 978, 838, 794, 940, 987, 999, 817, 892, 996, 960, 1283, 879, 869, 982, 920, 1085, 853, 857, 905, 950, 938, 808, 824, 820, 884, 951, 810, 815, 976, 930, 781, 898, 1081, 969, 846, 849, 924, 1054, 834, 797, 893, 995, 1159, 916, 789, 865, 1013, 1218, 910, 831, 795, 940, 1065, 857, 843, 905, 947, 1064, 793, 791, 884, 984, 943, 810, 809, 903, 1077, 847, 891, 814, 908, 960, 1312, 831, 864, 859, 901, 936, 965, 939, 864, 815, 917, 904, 1209, 797, 879, 1045, 1192, 916, 784, 921, 986, 927, 833, 870, 886, 1025, 1019, 889, 800, 899, 942, 1107, 842, 870, 947, 956, 861, 917, 909, 876, 925, 921, 952, 1083, 908, 782, 814, 882, 925, 1216, 879, 793, 898, 1156, 1222, 902, 856, 869, 994, 972, 864, 799, 841, 895, 922, 817, 784, 890, 878, 990, 1235, 889, 887, 948, 1197, 933, 830, 875, 948, 879, 767, 898, 954, 934, 973, 769, 812, 964, 860, 829, 842, 1003, 1006, 1190, 912, 812, 895, 944, 842, 794, 929, 888, 932, 1056, 979, 1046, 958, 808, 846, 931, 881, 861, 938, 1065, 1350, 1087, 926, 827, 890, 991, 890, 860, 782, 830, 879, 913, 1136, 755, 882, 910, 1111, 933, 888, 797, 905, 956, 1029, 947, 955, 791, 828, 942, 1017, 1078, 955, 794, 858, 947, 1276, 826, 790, 890, 905, 1102, 1160, 903, 800, 866, 1010, 1108, 916, 826, 858, 957, 1273, 878, 821, 930, 1014, 833, 930, 885, 877, 951, 824, 884, 1208, 1362, 981, 843, 884, 973, 1072, 1014, 821, 892, 780, 883, 898, 1052, 1264, 790, 880, 1027, 1102, 956, 850, 973, 852, 843, 906, 971, 942, 841, 1028, 925, 832, 1188, 1303, 1005, 836, 890, 1143, 950, 795, 849, 939, 1053, 1024, 840, 845, 936, 904, 788, 1022, 926, 921, 982, 1100, 991, 810, 914, 966, 866, 790, 892, 938, 1017, 781],
      "WindowCenter": [364.0, 364.0, 360.0, 361.0, 364.0, 361.0, 360.0, 361.0, 362.0, 362.0, 360.0, 361.0, 361.0, 361.0, 362.0, 361.0, 360.0, 362.0, 363.0, 362.0, 361.0, 361.0, 362.0, 362.0, 364.0, 361.0, 360.0, 361.0, 361.0, 362.0, 361.0, 361.0, 361.0, 361.0, 361.0, 360.0, 360.0, 360.0, 361.0, 362.0, 361.0, 361.0, 363.0, 362.0, 360.0, 361.0, 362.0, 362.0, 360.0, 361.0, 361.0, 363.0, 361.0, 360.0, 361.0, 363.0, 364.0, 362.0, 361.0, 362.0, 363.0, 364.0, 362.0, 360.0, 360.0, 362.0, 362.0, 361.0, 361.0, 361.0, 361.0, 362.0, 360.0, 360.0, 361.0, 362.0, 362.0, 360.0, 361.0, 361.0, 363.0, 361.0, 361.0, 360.0, 361.0, 361.0, 364.0, 360.0, 361.0, 361.0, 361.0, 361.0, 362.0, 361.0, 361.0, 361.0, 362.0, 362.0, 364.0, 360.0, 361.0, 362.0, 364.0, 361.0, 360.0, 362.0, 362.0, 361.0, 361.0, 361.0, 361.0, 362.0, 362.0, 361.0, 361.0, 362.0, 362.0, 363.0, 361.0, 361.0, 362.0, 362.0, 361.0, 361.0, 361.0, 361.0, 361.0, 361.0, 362.0, 362.0, 361.0, 359.0, 360.0, 361.0, 361.0, 364.0, 361.0, 361.0, 362.0, 364.0, 364.0, 361.0, 361.0, 361.0, 362.0, 361.0, 360.0, 359.0, 360.0, 361.0, 361.0, 361.0, 360.0, 361.0, 361.0, 362.0, 364.0, 361.0, 361.0, 361.0, 363.0, 361.0, 360.0, 361.0, 361.0, 361.0, 360.0, 361.0, 362.0, 362.0, 362.0, 360.0, 361.0, 363.0, 361.0, 361.0, 361.0, 362.0, 362.0, 363.0, 361.0, 360.0, 361.0, 361.0, 360.0, 360.0, 361.0, 361.0, 361.0, 362.0, 362.0, 362.0, 361.0, 360.0, 361.0, 362.0, 361.0, 362.0, 361.0, 362.0, 364.0, 362.0, 360.0, 359.0, 361.0, 361.0, 361.0, 361.0, 360.0, 360.0, 361.0, 361.0, 363.0, 360.0, 361.0, 361.0, 362.0, 361.0, 361.0, 360.0, 361.0, 361.0, 362.0, 361.0, 361.0, 360.0, 360.0, 362.0, 362.0, 362.0, 361.0, 360.0, 361.0, 362.0, 365.0, 360.0, 360.0, 361.0, 361.0, 363.0, 363.0, 361.0, 360.0, 361.0, 363.0, 363.0, 361.0, 361.0, 361.0, 362.0, 364.0, 361.0, 360.0, 362.0, 362.0, 360.0, 361.0, 360.0, 361.0, 362.0, 361.0, 361.0, 364.0, 364.0, 361.0, 360.0, 361.0, 361.0, 362.0, 362.0, 360.0, 361.0, 360.0, 361.0, 361.0, 362.0, 363.0, 360.0, 361.0, 362.0, 362.0, 361.0, 361.0, 362.0, 361.0, 361.0, 361.0, 362.0, 362.0, 361.0, 363.0, 362.0, 361.0, 364.0, 364.0, 362.0, 360.0, 361.0, 362.0, 361.0, 359.0, 360.0, 361.0, 362.0, 362.0, 360.0, 361.0, 361.0, 361.0, 360.0, 363.0, 361.0, 361.0, 362.0, 363.0, 362.0, 360.0, 361.0, 361.0, 361.0, 360.0, 361.0, 362.0, 363.0, 360.0],
