{
  "AcquisitionMatrixPE": 96,
  "AcquisitionNumber": 1,
  "AcquisitionTime": "12:06:24.005000",
  "BandwidthPerPixelPhaseEncode": 18.939,
  "BaseResolution": 96,
  "BodyPartExamined": "BRAIN",
  "ConsistencyInfo": "N4_VE11C_LATEST_20160120",
  "ConversionSoftware": "dcm2niix",
  "ConversionSoftwareVersion": "v1.0.20170923 (OpenJPEG build) GCC6.3.0",
  "DerivedVendorReportedEchoSpacing": 0.000550011,
  "DeviceSerialNumber": "66112",
  "DwellTime": 2.3e-06,
  "EchoTime": 0.033,
  "EchoTrainLength": 96,
  "EffectiveEchoSpacing": 0.000550011,
  "FlipAngle": 64,
  "ImageType": [
    "ORIGINAL",
    "PRIMARY",
    "FMRI",
    "NONE",
    "ND",
    "NORM",
    "MOSAIC"
],
  "InstitutionAddress": "Maynard_3_Hanover_NH_US_03755",
  "InstitutionName": "Dartmouth_College_-_PBS",
  "MagneticFieldStrength": 3,
  "Manufacturer": "Siemens",
  "ManufacturersModelName": "Prisma",
  "Modality": "MR",
  "MultibandAccelerationFactor": 4,
  "PartialFourier": 1,
  "PercentPhaseFOV": 100,
  "PhaseEncodingDirection": "j-",
  "PhaseEncodingSteps": 96,
  "PhaseResolution": 1,
  "ProcedureStepDescription": "Gobbini_Matteo_1017_famface-angles",
  "ProtocolName": "func_run-01_task-fam1back",
  "PulseSequenceDetails": "%SiemensSeq%_ep2d_bold",
  "ReceiveCoilActiveElements": "HEA;HEP",
  "ReceiveCoilName": "Head_32",
  "ReconMatrixPE": 96,
  "RepetitionTime": 1.25,
  "ScanOptions": "FS",
  "ScanningSequence": "EP",
  "SequenceName": "_epfid2d1_96",
  "SequenceVariant": "SK",
  "SeriesDescription": "func_run-01_task-fam1back",
  "SliceTiming": [0.8775, 0, 0.615, 0.0875, 0.7025, 0.175, 0.79, 0.35, 0.965, 0.44, 1.0525, 0.5275, 1.1425, 0.2625, 0.8775, 0, 0.615, 0.0875, 0.7025, 0.175, 0.79, 0.35, 0.965, 0.44, 1.0525, 0.5275, 1.1425, 0.2625, 0.8775, 0, 0.615, 0.0875, 0.7025, 0.175, 0.79, 0.35, 0.965, 0.44, 1.0525, 0.5275, 1.1425, 0.2625, 0.8775, 0, 0.615, 0.0875, 0.7025, 0.175, 0.79, 0.35, 0.965, 0.44, 1.0525, 0.5275, 1.1425, 0.2625],
  "SoftwareVersions": "syngo_MR_E11",
  "StationName": "AWP66112",
  "TaskName": "fam1back",
  "TotalReadoutTime": 0.0522511,
  "dcmmeta_affine": [
    [-2.498403787612915, 0.08157113939523697, 0.03640395775437355, 116.79878234863281],
    [0.08137824386358261, 2.4986371994018555, -0.013761538080871105, -107.37017822265625],
    [0.036833133548498154, 0.01256775576621294, 2.499696969985962, -92.32444763183594],
    [0.0, 0.0, 0.0, 1.0]
],
  "dcmmeta_reorient_transform": [
    [0.0, -1.0, 0.0, 95.0],
    [1.0, 0.0, 0.0, 0.0],
    [0.0, 0.0, 1.0, 0.0],
    [0.0, 0.0, 0.0, 1.0]
],
  "dcmmeta_shape": [96, 96, 56, 280],
  "dcmmeta_slice_dim": 2,
  "dcmmeta_version": 0.6,
  "global": {
    "const": {
      "AccessionNumber": "A000626",
      "AcquisitionMatrix": [96, 0, 0, 96],
      "AngioFlag": "N",
      "BitsAllocated": 16,
      "BitsStored": 12,
      "BodyPartExamined": "BRAIN",
      "Columns": 768,
      "EchoNumbers": 1,
      "EchoTime": 33.0,
      "EchoTrainLength": 96,
      "FlipAngle": 64.0,
      "HighBit": 11,
      "ImageOrientationPatient": [0.99936146825591, -0.0325512979924, 0.01473325369347, 0.03262845440208, 0.99945490754021, -0.0050271022581],
      "ImagePositionPatient": [-991.41957769192, -942.19939280876, -99.283679914101],
      "ImageType": [
        "ORIGINAL",
        "PRIMARY",
        "FMRI",
        "NONE",
        "ND",
        "NORM",
        "MOSAIC"
],
      "ImagedNucleus": "1H",
      "ImagingFrequency": 123.252365,
      "InPlanePhaseEncodingDirection": "COL",
      "MRAcquisitionType": "2D",
      "MagneticFieldStrength": 3.0,
      "Manufacturer": "SIEMENS",
      "ManufacturerModelName": "Prisma",
      "Modality": "MR",
      "NumberOfAverages": 1.0,
      "NumberOfPhaseEncodingSteps": 96,
      "PercentPhaseFieldOfView": 100.0,
      "PercentSampling": 100.0,
      "PerformedProcedureStepStartTime": "115639.421000",
      "PhotometricInterpretation": "MONOCHROME2",
      "PixelBandwidth": 2265.0,
      "PixelRepresentation": 0,
      "PixelSpacing": [2.5, 2.5],
      "PositionReferenceIndicator": "",
      "ProtocolName": "func_run-01_task-fam1back",
      "RepetitionTime": 1250.0,
      "Rows": 768,
      "SAR": 0.0576553510255,
      "SamplesPerPixel": 1,
      "ScanOptions": "FS",
      "ScanningSequence": "EP",
      "SequenceName": "*epfid2d1_96",
      "SequenceVariant": "SK",
      "SeriesDescription": "func_run-01_task-fam1back",
      "SeriesNumber": 8,
      "SeriesTime": "120625.744000",
      "SliceLocation": -90.021454958262,
      "SliceThickness": 2.5,
      "SmallestImagePixelValue": 0,
      "SoftwareVersions": "syngo MR E11",
      "SpacingBetweenSlices": 2.4999999183068,
      "SpecificCharacterSet": "ISO_IR 100",
      "StudyID": "1",
      "StudyTime": "115639.361000",
      "TransmitCoilName": "Body",
      "VariableFlipAngleFlag": "N",
      "WindowCenterWidthExplanation": "Algo1",
      "dBdt": 0.0},
    "slices": {}
  },
  "time": {
    "samples": {
      "AcquisitionNumber": [1, 2, 3, 4, 5, 6, 7, 8, 9, 10, 11, 12, 13, 14, 15, 16, 17, 18, 19, 20, 21, 22, 23, 24, 25, 26, 27, 28, 29, 30, 31, 32, 33, 34, 35, 36, 37, 38, 39, 40, 41, 42, 43, 44, 45, 46, 47, 48, 49, 50, 51, 52, 53, 54, 55, 56, 57, 58, 59, 60, 61, 62, 63, 64, 65, 66, 67, 68, 69, 70, 71, 72, 73, 74, 75, 76, 77, 78, 79, 80, 81, 82, 83, 84, 85, 86, 87, 88, 89, 90, 91, 92, 93, 94, 95, 96, 97, 98, 99, 100, 101, 102, 103, 104, 105, 106, 107, 108, 109, 110, 111, 112, 113, 114, 115, 116, 117, 118, 119, 120, 121, 122, 123, 124, 125, 126, 127, 128, 129, 130, 131, 132, 133, 134, 135, 136, 137, 138, 139, 140, 141, 142, 143, 144, 145, 146, 147, 148, 149, 150, 151, 152, 153, 154, 155, 156, 157, 158, 159, 160, 161, 162, 163, 164, 165, 166, 167, 168, 169, 170, 171, 172, 173, 174, 175, 176, 177, 178, 179, 180, 181, 182, 183, 184, 185, 186, 187, 188, 189, 190, 191, 192, 193, 194, 195, 196, 197, 198, 199, 200, 201, 202, 203, 204, 205, 206, 207, 208, 209, 210, 211, 212, 213, 214, 215, 216, 217, 218, 219, 220, 221, 222, 223, 224, 225, 226, 227, 228, 229, 230, 231, 232, 233, 234, 235, 236, 237, 238, 239, 240, 241, 242, 243, 244, 245, 246, 247, 248, 249, 250, 251, 252, 253, 254, 255, 256, 257, 258, 259, 260, 261, 262, 263, 264, 265, 266, 267, 268, 269, 270, 271, 272, 273, 274, 275, 276, 277, 278, 279, 280],
      "AcquisitionTime": ["120624.005000", "120625.255000", "120626.505000", "120627.755000", "120629.005000", "120630.255000", "120631.505000", "120632.755000", "120634.005000", "120635.255000", "120636.505000", "120637.755000", "120639.005000", "120640.255000", "120641.505000", "120642.755000", "120644.005000", "120645.255000", "120646.505000", "120647.755000", "120649.005000", "120650.255000", "120651.505000", "120652.755000", "120654.005000", "120655.255000", "120656.505000", "120657.755000", "120659.005000", "120700.255000", "120701.505000", "120702.755000", "120704.005000", "120705.255000", "120706.505000", "120707.755000", "120709.005000", "120710.255000", "120711.505000", "120712.755000", "120714.005000", "120715.255000", "120716.505000", "120717.755000", "120719.005000", "120720.255000", "120721.505000", "120722.755000", "120724.005000", "120725.255000", "120726.505000", "120727.755000", "120729.005000", "120730.255000", "120731.505000", "120732.755000", "120734.005000", "120735.255000", "120736.505000", "120737.755000", "120739.005000", "120740.255000", "120741.505000", "120742.755000", "120744.005000", "120745.255000", "120746.505000", "120747.755000", "120749.005000", "120750.255000", "120751.505000", "120752.755000", "120754.005000", "120755.255000", "120756.505000", "120757.755000", "120759.005000", "120800.255000", "120801.505000", "120802.755000", "120804.005000", "120805.255000", "120806.505000", "120807.755000", "120809.005000", "120810.255000", "120811.505000", "120812.755000", "120814.005000", "120815.255000", "120816.505000", "120817.755000", "120819.005000", "120820.255000", "120821.505000", "120822.755000", "120824.005000", "120825.255000", "120826.505000", "120827.755000", "120829.005000", "120830.255000", "120831.505000", "120832.755000", "120834.005000", "120835.255000", "120836.505000", "120837.755000", "120839.005000", "120840.255000", "120841.505000", "120842.755000", "120844.005000", "120845.255000", "120846.505000", "120847.755000", "120849.005000", "120850.255000", "120851.505000", "120852.755000", "120854.005000", "120855.255000", "120856.505000", "120857.755000", "120859.005000", "120900.255000", "120901.505000", "120902.755000", "120904.005000", "120905.255000", "120906.505000", "120907.755000", "120909.005000", "120910.255000", "120911.505000", "120912.755000", "120914.005000", "120915.255000", "120916.505000", "120917.755000", "120919.005000", "120920.255000", "120921.505000", "120922.755000", "120924.005000", "120925.255000", "120926.505000", "120927.755000", "120929.005000", "120930.255000", "120931.505000", "120932.755000", "120934.005000", "120935.255000", "120936.505000", "120937.755000", "120939.005000", "120940.255000", "120941.505000", "120942.755000", "120944.005000", "120945.255000", "120946.505000", "120947.755000", "120949.005000", "120950.255000", "120951.505000", "120952.755000", "120954.005000", "120955.255000", "120956.505000", "120957.755000", "120959.005000", "121000.255000", "121001.505000", "121002.755000", "121004.005000", "121005.255000", "121006.505000", "121007.755000", "121009.005000", "121010.255000", "121011.505000", "121012.755000", "121014.005000", "121015.255000", "121016.505000", "121017.755000", "121019.005000", "121020.255000", "121021.505000", "121022.755000", "121024.005000", "121025.255000", "121026.505000", "121027.755000", "121029.005000", "121030.255000", "121031.505000", "121032.755000", "121034.005000", "121035.255000", "121036.505000", "121037.755000", "121039.005000", "121040.255000", "121041.505000", "121042.755000", "121044.005000", "121045.255000", "121046.505000", "121047.755000", "121049.005000", "121050.255000", "121051.505000", "121052.755000", "121054.005000", "121055.255000", "121056.505000", "121057.755000", "121059.005000", "121100.255000", "121101.505000", "121102.755000", "121104.005000", "121105.255000", "121106.505000", "121107.755000", "121109.005000", "121110.255000", "121111.505000", "121112.755000", "121114.005000", "121115.255000", "121116.505000", "121117.755000", "121119.005000", "121120.255000", "121121.505000", "121122.755000", "121124.005000", "121125.255000", "121126.505000", "121127.755000", "121129.005000", "121130.255000", "121131.505000", "121132.755000", "121134.005000", "121135.255000", "121136.505000", "121137.755000", "121139.005000", "121140.255000", "121141.505000", "121142.755000", "121144.005000", "121145.255000", "121146.505000", "121147.755000", "121149.005000", "121150.255000", "121151.505000", "121152.755000", "121154.005000", "121155.255000", "121156.505000", "121157.755000", "121159.005000", "121200.255000", "121201.505000", "121202.755000", "121204.005000", "121205.255000", "121206.505000", "121207.755000", "121209.005000", "121210.255000", "121211.505000", "121212.755000"],
      "ContentTime": ["120625.747000", "120626.725000", "120627.963000", "120629.274000", "120630.497000", "120631.737000", "120632.989000", "120634.244000", "120635.477000", "120636.726000", "120637.980000", "120639.227000", "120640.475000", "120641.726000", "120642.972000", "120644.216000", "120645.457000", "120646.766000", "120647.970000", "120649.233000", "120650.511000", "120651.756000", "120652.964000", "120654.223000", "120655.487000", "120656.716000", "120657.962000", "120659.230000", "120700.465000", "120701.728000", "120702.959000", "120704.229000", "120705.467000", "120706.715000", "120708.001000", "120709.247000", "120710.482000", "120711.699000", "120713.011000", "120714.209000", "120715.482000", "120716.714000", "120717.964000", "120719.229000", "120720.466000", "120721.741000", "120722.987000", "120724.234000", "120725.474000", "120726.707000", "120727.983000", "120729.220000", "120730.476000", "120731.717000", "120732.980000", "120734.231000", "120735.470000", "120736.721000", "120737.970000", "120739.216000", "120740.517000", "120741.734000", "120742.972000", "120744.234000", "120745.510000", "120746.685000", "120747.965000", "120749.262000", "120750.471000", "120751.779000", "120753.005000", "120754.223000", "120755.447000", "120756.745000", "120757.969000", "120759.259000", "120800.488000", "120801.727000", "120802.986000", "120804.244000", "120805.494000", "120806.709000", "120808.047000", "120809.227000", "120810.480000", "120811.723000", "120812.987000", "120814.228000", "120815.488000", "120816.766000", "120818.005000", "120819.277000", "120820.470000", "120821.684000", "120822.991000", "120824.240000", "120825.490000", "120826.740000", "120827.947000", "120829.229000", "120830.496000", "120831.753000", "120832.985000", "120834.251000", "120835.521000", "120836.781000", "120837.988000", "120839.254000", "120840.563000", "120841.777000", "120842.992000", "120844.262000", "120845.496000", "120846.776000", "120847.965000", "120849.246000", "120850.482000", "120851.745000", "120852.984000", "120854.228000", "120855.483000", "120856.734000", "120858.007000", "120859.298000", "120900.501000", "120901.759000", "120902.974000", "120904.216000", "120905.498000", "120906.766000", "120908.008000", "120909.297000", "120910.482000", "120911.731000", "120913.018000", "120914.246000", "120915.491000", "120916.756000", "120918.029000", "120919.253000", "120920.490000", "120921.740000", "120922.996000", "120924.233000", "120925.496000", "120926.735000", "120927.986000", "120929.252000", "120930.512000", "120931.818000", "120932.982000", "120934.224000", "120935.506000", "120936.717000", "120937.993000", "120939.238000", "120940.509000", "120941.742000", "120942.981000", "120944.222000", "120945.458000", "120946.734000", "120948.023000", "120949.241000", "120950.497000", "120951.747000", "120952.984000", "120954.243000", "120955.472000", "120956.730000", "120958.020000", "120959.245000", "121000.485000", "121001.744000", "121003.013000", "121004.263000", "121005.493000", "121006.738000", "121007.993000", "121009.238000", "121010.479000", "121011.728000", "121012.983000", "121014.237000", "121015.507000", "121016.726000", "121018.017000", "121019.241000", "121020.485000", "121021.731000", "121023.002000", "121024.229000", "121025.485000", "121026.756000", "121027.976000", "121029.247000", "121030.476000", "121031.732000", "121032.959000", "121034.240000", "121035.497000", "121036.806000", "121037.998000", "121039.197000", "121040.484000", "121041.781000", "121042.982000", "121044.242000", "121045.542000", "121046.739000", "121048.002000", "121049.278000", "121050.519000", "121051.709000", "121052.976000", "121054.247000", "121055.503000", "121056.732000", "121057.997000", "121059.245000", "121100.493000", "121101.765000", "121102.986000", "121104.246000", "121105.491000", "121106.756000", "121107.972000", "121109.241000", "121110.520000", "121111.757000", "121112.972000", "121114.232000", "121115.491000", "121116.714000", "121118.009000", "121119.200000", "121120.486000", "121121.738000", "121122.992000", "121124.242000", "121125.475000", "121126.736000", "121128.002000", "121129.236000", "121130.485000", "121131.752000", "121132.984000", "121134.244000", "121135.476000", "121136.704000", "121138.011000", "121139.214000", "121140.492000", "121141.749000", "121143.004000", "121144.239000", "121145.438000", "121146.734000", "121148.007000", "121149.258000", "121150.521000", "121151.722000", "121152.989000", "121154.267000", "121155.478000", "121156.742000", "121157.985000", "121159.249000", "121200.498000", "121201.728000", "121203.008000", "121204.261000", "121205.478000", "121206.736000", "121207.978000", "121209.267000", "121210.607000", "121211.745000", "121213.009000", "121214.281000"],
      "InstanceCreationTime": ["120625.747000", "120626.725000", "120627.963000", "120629.274000", "120630.497000", "120631.737000", "120632.989000", "120634.244000", "120635.477000", "120636.726000", "120637.980000", "120639.227000", "120640.475000", "120641.726000", "120642.972000", "120644.216000", "120645.457000", "120646.766000", "120647.970000", "120649.233000", "120650.511000", "120651.756000", "120652.964000", "120654.223000", "120655.487000", "120656.716000", "120657.962000", "120659.230000", "120700.465000", "120701.728000", "120702.959000", "120704.229000", "120705.467000", "120706.715000", "120708.001000", "120709.247000", "120710.482000", "120711.699000", "120713.011000", "120714.209000", "120715.482000", "120716.714000", "120717.964000", "120719.229000", "120720.466000", "120721.741000", "120722.987000", "120724.234000", "120725.474000", "120726.707000", "120727.983000", "120729.220000", "120730.476000", "120731.717000", "120732.980000", "120734.231000", "120735.470000", "120736.721000", "120737.970000", "120739.216000", "120740.517000", "120741.734000", "120742.972000", "120744.234000", "120745.510000", "120746.685000", "120747.965000", "120749.262000", "120750.471000", "120751.779000", "120753.005000", "120754.223000", "120755.447000", "120756.745000", "120757.969000", "120759.259000", "120800.488000", "120801.727000", "120802.986000", "120804.244000", "120805.494000", "120806.709000", "120808.047000", "120809.227000", "120810.480000", "120811.723000", "120812.987000", "120814.228000", "120815.488000", "120816.766000", "120818.005000", "120819.277000", "120820.470000", "120821.684000", "120822.991000", "120824.240000", "120825.490000", "120826.740000", "120827.947000", "120829.229000", "120830.496000", "120831.753000", "120832.985000", "120834.251000", "120835.521000", "120836.781000", "120837.988000", "120839.254000", "120840.563000", "120841.777000", "120842.992000", "120844.262000", "120845.496000", "120846.776000", "120847.965000", "120849.246000", "120850.482000", "120851.745000", "120852.984000", "120854.228000", "120855.483000", "120856.734000", "120858.007000", "120859.298000", "120900.501000", "120901.759000", "120902.974000", "120904.216000", "120905.498000", "120906.766000", "120908.008000", "120909.297000", "120910.482000", "120911.731000", "120913.018000", "120914.246000", "120915.491000", "120916.756000", "120918.029000", "120919.253000", "120920.490000", "120921.740000", "120922.996000", "120924.233000", "120925.496000", "120926.735000", "120927.986000", "120929.252000", "120930.512000", "120931.818000", "120932.982000", "120934.224000", "120935.506000", "120936.717000", "120937.993000", "120939.238000", "120940.509000", "120941.742000", "120942.981000", "120944.222000", "120945.458000", "120946.734000", "120948.023000", "120949.241000", "120950.497000", "120951.747000", "120952.984000", "120954.243000", "120955.472000", "120956.730000", "120958.020000", "120959.245000", "121000.485000", "121001.744000", "121003.013000", "121004.263000", "121005.493000", "121006.738000", "121007.993000", "121009.238000", "121010.479000", "121011.728000", "121012.983000", "121014.237000", "121015.507000", "121016.726000", "121018.017000", "121019.241000", "121020.485000", "121021.731000", "121023.002000", "121024.229000", "121025.485000", "121026.756000", "121027.976000", "121029.247000", "121030.476000", "121031.732000", "121032.959000", "121034.240000", "121035.497000", "121036.806000", "121037.998000", "121039.197000", "121040.484000", "121041.781000", "121042.982000", "121044.242000", "121045.542000", "121046.739000", "121048.002000", "121049.278000", "121050.519000", "121051.709000", "121052.976000", "121054.247000", "121055.503000", "121056.732000", "121057.997000", "121059.245000", "121100.493000", "121101.765000", "121102.986000", "121104.246000", "121105.491000", "121106.756000", "121107.972000", "121109.241000", "121110.520000", "121111.757000", "121112.972000", "121114.232000", "121115.491000", "121116.714000", "121118.009000", "121119.200000", "121120.486000", "121121.738000", "121122.992000", "121124.242000", "121125.475000", "121126.736000", "121128.002000", "121129.236000", "121130.485000", "121131.752000", "121132.984000", "121134.244000", "121135.476000", "121136.704000", "121138.011000", "121139.214000", "121140.492000", "121141.749000", "121143.004000", "121144.239000", "121145.438000", "121146.734000", "121148.007000", "121149.258000", "121150.521000", "121151.722000", "121152.989000", "121154.267000", "121155.478000", "121156.742000", "121157.985000", "121159.249000", "121200.498000", "121201.728000", "121203.008000", "121204.261000", "121205.478000", "121206.736000", "121207.978000", "121209.267000", "121210.607000", "121211.745000", "121213.009000", "121214.281000"],
      "InstanceNumber": [1, 2, 3, 4, 5, 6, 7, 8, 9, 10, 11, 12, 13, 14, 15, 16, 17, 18, 19, 20, 21, 22, 23, 24, 25, 26, 27, 28, 29, 30, 31, 32, 33, 34, 35, 36, 37, 38, 39, 40, 41, 42, 43, 44, 45, 46, 47, 48, 49, 50, 51, 52, 53, 54, 55, 56, 57, 58, 59, 60, 61, 62, 63, 64, 65, 66, 67, 68, 69, 70, 71, 72, 73, 74, 75, 76, 77, 78, 79, 80, 81, 82, 83, 84, 85, 86, 87, 88, 89, 90, 91, 92, 93, 94, 95, 96, 97, 98, 99, 100, 101, 102, 103, 104, 105, 106, 107, 108, 109, 110, 111, 112, 113, 114, 115, 116, 117, 118, 119, 120, 121, 122, 123, 124, 125, 126, 127, 128, 129, 130, 131, 132, 133, 134, 135, 136, 137, 138, 139, 140, 141, 142, 143, 144, 145, 146, 147, 148, 149, 150, 151, 152, 153, 154, 155, 156, 157, 158, 159, 160, 161, 162, 163, 164, 165, 166, 167, 168, 169, 170, 171, 172, 173, 174, 175, 176, 177, 178, 179, 180, 181, 182, 183, 184, 185, 186, 187, 188, 189, 190, 191, 192, 193, 194, 195, 196, 197, 198, 199, 200, 201, 202, 203, 204, 205, 206, 207, 208, 209, 210, 211, 212, 213, 214, 215, 216, 217, 218, 219, 220, 221, 222, 223, 224, 225, 226, 227, 228, 229, 230, 231, 232, 233, 234, 235, 236, 237, 238, 239, 240, 241, 242, 243, 244, 245, 246, 247, 248, 249, 250, 251, 252, 253, 254, 255, 256, 257, 258, 259, 260, 261, 262, 263, 264, 265, 266, 267, 268, 269, 270, 271, 272, 273, 274, 275, 276, 277, 278, 279, 280],
      "LargestImagePixelValue": [1297, 954, 946, 1254, 871, 1045, 948, 869, 1105, 936, 889, 1199, 832, 1027, 765, 1036, 872, 909, 1188, 902, 932, 935, 1099, 1002, 1055, 915, 954, 1143, 751, 963, 1166, 938, 926, 1124, 1272, 871, 850, 1147, 935, 937, 1052, 1128, 814, 810, 1138, 930, 804, 1142, 965, 862, 1077, 926, 907, 877, 905, 1219, 1429, 985, 817, 948, 1126, 978, 846, 966, 1136, 988, 796, 1057, 1093, 937, 833, 1116, 1026, 812, 955, 1135, 965, 902, 1067, 936, 981, 1011, 795, 887, 908, 809, 1104, 817, 1503, 824, 878, 887, 1177, 1222, 977, 892, 980, 1088, 805, 784, 1075, 1054, 837, 788, 1166, 964, 831, 919, 1109, 933, 822, 1157, 964, 800, 885, 1138, 959, 833, 1115, 1001, 1029, 826, 1019, 939, 816, 1048, 1168, 814, 830, 984, 1115, 802, 1015, 916, 787, 957, 1028, 1075, 1181, 862, 1036, 1255, 990, 798, 1024, 858, 862, 1087, 927, 1132, 842, 957, 1049, 903, 823, 1099, 948, 813, 919, 1186, 884, 839, 1090, 758, 809, 1076, 917, 830, 1067, 1156, 869, 880, 1153, 789, 903, 1050, 785, 944, 934, 808, 1011, 858, 941, 1271, 946, 812, 849, 890, 932, 876, 814, 989, 895, 1036, 1132, 844, 879, 913, 952, 906, 828, 1079, 1235, 905, 805, 1054, 931, 761, 966, 1016, 1225, 827, 818, 1039, 1056, 957, 823, 976, 1061, 983, 820, 948, 972, 1079, 838, 912, 1107, 986, 814, 916, 1115, 848, 822, 1057, 1047, 872, 890, 1036, 838, 852, 1227, 756, 920, 1005, 1041, 835, 1063, 853, 825, 1152, 1016, 784, 1088, 1003, 818, 1047, 1173, 844, 945, 772, 890, 1162, 839, 991, 942, 867, 1010, 830, 1115, 818, 939, 981, 830, 906, 1380, 964, 811, 1014, 1198, 1012],
      "WindowCenter": [365.0, 362.0, 362.0, 364.0, 361.0, 362.0, 361.0, 360.0, 362.0, 361.0, 360.0, 363.0, 360.0, 362.0, 360.0, 362.0, 361.0, 361.0, 363.0, 361.0, 362.0, 362.0, 364.0, 363.0, 362.0, 360.0, 361.0, 362.0, 360.0, 362.0, 364.0, 362.0, 361.0, 363.0, 364.0, 361.0, 361.0, 362.0, 361.0, 361.0, 362.0, 363.0, 360.0, 360.0, 363.0, 361.0, 360.0, 363.0, 362.0, 361.0, 362.0, 361.0, 361.0, 361.0, 361.0, 364.0, 365.0, 361.0, 359.0, 360.0, 362.0, 361.0, 360.0, 361.0, 362.0, 361.0, 359.0, 362.0, 362.0, 361.0, 360.0, 363.0, 362.0, 359.0, 360.0, 362.0, 361.0, 360.0, 362.0, 361.0, 362.0, 362.0, 359.0, 361.0, 361.0, 360.0, 362.0, 360.0, 365.0, 360.0, 360.0, 361.0, 363.0, 363.0, 361.0, 360.0, 361.0, 362.0, 359.0, 359.0, 362.0, 362.0, 360.0, 360.0, 363.0, 361.0, 360.0, 361.0, 362.0, 361.0, 360.0, 362.0, 361.0, 359.0, 360.0, 362.0, 361.0, 360.0, 362.0, 362.0, 362.0, 359.0, 362.0, 361.0, 360.0, 362.0, 363.0, 360.0, 360.0, 361.0, 362.0, 360.0, 362.0, 361.0, 360.0, 362.0, 363.0, 362.0, 363.0, 361.0, 362.0, 363.0, 361.0, 359.0, 362.0, 360.0, 361.0, 362.0, 361.0, 363.0, 359.0, 361.0, 362.0, 361.0, 360.0, 362.0, 361.0, 360.0, 361.0, 363.0, 361.0, 360.0, 362.0, 359.0, 359.0, 362.0, 361.0, 360.0, 362.0, 362.0, 360.0, 361.0, 363.0, 359.0, 361.0, 362.0, 360.0, 361.0, 361.0, 360.0, 362.0, 361.0, 361.0, 363.0, 360.0, 359.0, 360.0, 361.0, 360.0, 360.0, 360.0, 362.0, 361.0, 362.0, 363.0, 361.0, 361.0, 362.0, 361.0, 361.0, 361.0, 363.0, 364.0, 361.0, 360.0, 362.0, 361.0, 360.0, 361.0, 362.0, 363.0, 360.0, 360.0, 362.0, 362.0, 361.0, 360.0, 362.0, 362.0, 361.0, 360.0, 361.0, 361.0, 362.0, 360.0, 361.0, 362.0, 361.0, 360.0, 361.0, 362.0, 360.0, 359.0, 361.0, 362.0, 361.0, 361.0, 362.0, 360.0, 360.0, 363.0, 359.0, 361.0, 361.0, 362.0, 360.0, 362.0, 361.0, 360.0, 362.0, 362.0, 359.0, 362.0, 362.0, 359.0, 362.0, 363.0, 360.0, 361.0, 360.0, 361.0, 363.0, 360.0, 362.0, 361.0, 361.0, 362.0, 361.0, 363.0, 360.0, 361.0, 361.0, 360.0, 361.0, 363.0, 360.0, 360.0, 362.0, 364.0, 362.0],
      "WindowWidth": [779.0, 773.0, 773.0, 775.0, 771.0, 773.0, 772.0, 770.0, 772.0, 771.0, 770.0, 774.0, 770.0, 772.0, 770.0, 774.0, 772.0, 772.0, 774.0, 772.0, 773.0, 773.0, 776.0, 774.0, 773.0, 770.0, 771.0, 773.0, 770.0, 773.0, 775.0, 773.0, 772.0, 774.0, 776.0, 771.0, 771.0, 773.0, 772.0, 772.0, 773.0, 774.0, 770.0, 770.0, 774.0, 772.0, 770.0, 774.0, 773.0, 771.0, 773.0, 772.0, 771.0, 771.0, 772.0, 775.0, 777.0, 771.0, 769.0, 770.0, 773.0, 771.0, 770.0, 771.0, 773.0, 771.0, 769.0, 773.0, 773.0, 772.0, 770.0, 774.0, 772.0, 769.0, 770.0, 773.0, 772.0, 771.0, 774.0, 772.0, 772.0, 773.0, 769.0, 771.0, 771.0, 769.0, 773.0, 770.0, 778.0, 769.0, 771.0, 771.0, 774.0, 774.0, 771.0, 770.0, 771.0, 772.0, 769.0, 768.0, 772.0, 772.0, 770.0, 770.0, 774.0, 772.0, 770.0, 771.0, 773.0, 771.0, 770.0, 773.0, 772.0, 769.0, 770.0, 773.0, 771.0, 770.0, 773.0, 772.0, 772.0, 769.0, 772.0, 772.0, 770.0, 772.0, 774.0, 770.0, 771.0, 771.0, 773.0, 770.0, 773.0, 772.0, 771.0, 773.0, 775.0, 774.0, 774.0, 771.0, 773.0, 775.0, 771.0, 769.0, 772.0, 770.0, 771.0, 773.0, 772.0, 774.0, 769.0, 771.0, 772.0, 771.0, 770.0, 773.0, 772.0, 770.0, 772.0, 774.0, 771.0, 770.0, 773.0, 769.0, 769.0, 773.0, 772.0, 770.0, 773.0, 773.0, 770.0, 771.0, 774.0, 769.0, 771.0, 773.0, 770.0, 772.0, 772.0, 770.0, 773.0, 771.0, 771.0, 774.0, 770.0, 769.0, 770.0, 771.0, 770.0, 769.0, 770.0, 773.0, 772.0, 773.0, 775.0, 771.0, 773.0, 773.0, 772.0, 771.0, 772.0, 775.0, 777.0, 771.0, 770.0, 773.0, 772.0, 769.0, 772.0, 773.0, 775.0, 770.0, 770.0, 772.0, 772.0, 772.0, 770.0, 773.0, 773.0, 772.0, 770.0, 771.0, 772.0, 773.0, 770.0, 771.0, 773.0, 771.0, 770.0, 772.0, 773.0, 770.0, 769.0, 771.0, 772.0, 771.0, 772.0, 772.0, 770.0, 770.0, 774.0, 768.0, 771.0, 771.0, 772.0, 770.0, 772.0, 771.0, 770.0, 773.0, 772.0, 769.0, 773.0, 772.0, 769.0, 773.0, 774.0, 770.0, 772.0, 770.0, 772.0, 774.0, 770.0, 773.0, 772.0, 771.0, 773.0, 772.0, 775.0, 771.0, 772.0, 772.0, 770.0, 771.0, 775.0, 770.0, 770.0, 774.0, 777.0, 772.0]
    },
    "slices": {}
  }
}