{
  "AcquisitionMatrixPE": 96,
  "AcquisitionNumber": 1,
  "AcquisitionTime": "18:17:3.257500",
  "BandwidthPerPixelPhaseEncode": 18.939,
  "BaseResolution": 96,
  "BodyPartExamined": "BRAIN",
  "ConsistencyInfo": "N4_VE11C_LATEST_20160120",
  "ConversionSoftware": "dcm2niix",
  "ConversionSoftwareVersion": "v1.0.20170923 (OpenJPEG build) GCC6.3.0",
  "DerivedVendorReportedEchoSpacing": 0.000550011,
  "DeviceSerialNumber": "66112",
  "DwellTime": 2.3e-06,
  "EchoTime": 0.033,
  "EchoTrainLength": 96,
  "EffectiveEchoSpacing": 0.000550011,
  "FlipAngle": 64,
  "ImageType": [
    "ORIGINAL",
    "PRIMARY",
    "FMRI",
    "NONE",
    "ND",
    "NORM",
    "MOSAIC"
],
  "InstitutionAddress": "Maynard_3_Hanover_NH_US_03755",
  "InstitutionName": "Dartmouth_College_-_PBS",
  "MagneticFieldStrength": 3,
  "Manufacturer": "Siemens",
  "ManufacturersModelName": "Prisma",
  "Modality": "MR",
  "MultibandAccelerationFactor": 4,
  "PartialFourier": 1,
  "PercentPhaseFOV": 100,
  "PhaseEncodingDirection": "j-",
  "PhaseEncodingSteps": 96,
  "PhaseResolution": 1,
  "ProcedureStepDescription": "Gobbini_Matteo_1017_famface-angles",
  "ProtocolName": "func_run-05_task-str1back",
  "PulseSequenceDetails": "%SiemensSeq%_ep2d_bold",
  "ReceiveCoilActiveElements": "HEA;HEP",
  "ReceiveCoilName": "Head_32",
  "ReconMatrixPE": 96,
  "RepetitionTime": 1.25,
  "ScanOptions": "FS",
  "ScanningSequence": "EP",
  "SequenceName": "_epfid2d1_96",
  "SequenceVariant": "SK",
  "SeriesDescription": "func_run-05_task-str1back",
  "SliceTiming": [0.88, 0, 0.615, 0.09, 0.705, 0.1775, 0.7925, 0.3525, 0.9675, 0.44, 1.055, 0.5275, 1.1425, 0.265, 0.88, 0, 0.615, 0.09, 0.705, 0.1775, 0.7925, 0.3525, 0.9675, 0.44, 1.055, 0.5275, 1.1425, 0.265, 0.88, 0, 0.615, 0.09, 0.705, 0.1775, 0.7925, 0.3525, 0.9675, 0.44, 1.055, 0.5275, 1.1425, 0.265, 0.88, 0, 0.615, 0.09, 0.705, 0.1775, 0.7925, 0.3525, 0.9675, 0.44, 1.055, 0.5275, 1.1425, 0.265],
  "SoftwareVersions": "syngo_MR_E11",
  "StationName": "AWP66112",
  "TaskName": "str1back",
  "TotalReadoutTime": 0.0522511,
  "dcmmeta_affine": [
    [-2.4971632957458496, -0.0091524887830019, 0.11870690435171127, 119.09539031982422],
    [0.000586063542868942, 2.4916269779205322, 0.2044370025396347, -100.85292053222656],
    [0.11905777454376221, -0.20423287153244019, 2.488797664642334, -62.45531463623047],
    [0.0, 0.0, 0.0, 1.0]
],
  "dcmmeta_reorient_transform": [
    [0.0, -1.0, 0.0, 95.0],
    [1.0, 0.0, 0.0, 0.0],
    [0.0, 0.0, 1.0, 0.0],
    [0.0, 0.0, 0.0, 1.0]
],
  "dcmmeta_shape": [96, 96, 56, 280],
  "dcmmeta_slice_dim": 2,
  "dcmmeta_version": 0.6,
  "global": {
    "const": {
      "AccessionNumber": "A000312",
      "AcquisitionMatrix": [96, 0, 0, 96],
      "AngioFlag": "N",
      "BitsAllocated": 16,
      "BitsStored": 12,
      "BodyPartExamined": "BRAIN",
      "Columns": 768,
      "EchoNumbers": 1,
      "EchoTime": 33.0,
      "EchoTrainLength": 96,
      "FlipAngle": 64.0,
      "HighBit": 11,
      "ImageOrientationPatient": [0.99886534848893, -0.0002344254137, 0.04762311028085, -0.0036609953967, 0.99665080491849, 0.08169314639571],
      "ImagePositionPatient": [-954.19756079492, -972.84140157072, -190.48309157795],
      "ImageType": [
        "ORIGINAL",
        "PRIMARY",
        "FMRI",
        "NONE",
        "ND",
        "NORM",
        "MOSAIC"
],
      "ImagedNucleus": "1H",
      "ImagingFrequency": 123.252365,
      "InPlanePhaseEncodingDirection": "COL",
      "MRAcquisitionType": "2D",
      "MagneticFieldStrength": 3.0,
      "Manufacturer": "SIEMENS",
      "ManufacturerModelName": "Prisma",
      "Modality": "MR",
      "NumberOfAverages": 1.0,
      "NumberOfPhaseEncodingSteps": 96,
      "PercentPhaseFieldOfView": 100.0,
      "PercentSampling": 100.0,
      "PerformedProcedureStepStartTime": "174326.131000",
      "PhotometricInterpretation": "MONOCHROME2",
      "PixelBandwidth": 2265.0,
      "PixelRepresentation": 0,
      "PixelSpacing": [2.5, 2.5],
      "PositionReferenceIndicator": "",
      "ProtocolName": "func_run-05_task-str1back",
      "RepetitionTime": 1250.0,
      "Rows": 768,
      "SAR": 0.05659369429771,
      "SamplesPerPixel": 1,
      "ScanOptions": "FS",
      "ScanningSequence": "EP",
      "SequenceName": "*epfid2d1_96",
      "SequenceVariant": "SK",
      "SeriesDescription": "func_run-05_task-str1back",
      "SeriesNumber": 36,
      "SeriesTime": "181704.825000",
      "SliceLocation": -64.767707043399,
      "SliceThickness": 2.5,
      "SmallestImagePixelValue": 0,
      "SoftwareVersions": "syngo MR E11",
      "SpacingBetweenSlices": 2.4999999530028,
      "SpecificCharacterSet": "ISO_IR 100",
      "StudyID": "2",
      "StudyTime": "174326.083000",
      "TransmitCoilName": "Body",
      "VariableFlipAngleFlag": "N",
      "WindowCenterWidthExplanation": "Algo1",
      "dBdt": 0.0},
    "slices": {}
  },
  "time": {
    "samples": {
      "AcquisitionNumber": [1, 2, 3, 4, 5, 6, 7, 8, 9, 10, 11, 12, 13, 14, 15, 16, 17, 18, 19, 20, 21, 22, 23, 24, 25, 26, 27, 28, 29, 30, 31, 32, 33, 34, 35, 36, 37, 38, 39, 40, 41, 42, 43, 44, 45, 46, 47, 48, 49, 50, 51, 52, 53, 54, 55, 56, 57, 58, 59, 60, 61, 62, 63, 64, 65, 66, 67, 68, 69, 70, 71, 72, 73, 74, 75, 76, 77, 78, 79, 80, 81, 82, 83, 84, 85, 86, 87, 88, 89, 90, 91, 92, 93, 94, 95, 96, 97, 98, 99, 100, 101, 102, 103, 104, 105, 106, 107, 108, 109, 110, 111, 112, 113, 114, 115, 116, 117, 118, 119, 120, 121, 122, 123, 124, 125, 126, 127, 128, 129, 130, 131, 132, 133, 134, 135, 136, 137, 138, 139, 140, 141, 142, 143, 144, 145, 146, 147, 148, 149, 150, 151, 152, 153, 154, 155, 156, 157, 158, 159, 160, 161, 162, 163, 164, 165, 166, 167, 168, 169, 170, 171, 172, 173, 174, 175, 176, 177, 178, 179, 180, 181, 182, 183, 184, 185, 186, 187, 188, 189, 190, 191, 192, 193, 194, 195, 196, 197, 198, 199, 200, 201, 202, 203, 204, 205, 206, 207, 208, 209, 210, 211, 212, 213, 214, 215, 216, 217, 218, 219, 220, 221, 222, 223, 224, 225, 226, 227, 228, 229, 230, 231, 232, 233, 234, 235, 236, 237, 238, 239, 240, 241, 242, 243, 244, 245, 246, 247, 248, 249, 250, 251, 252, 253, 254, 255, 256, 257, 258, 259, 260, 261, 262, 263, 264, 265, 266, 267, 268, 269, 270, 271, 272, 273, 274, 275, 276, 277, 278, 279, 280],
      "AcquisitionTime": ["181703.257500", "181704.507500", "181705.757500", "181707.007500", "181708.257500", "181709.507500", "181710.757500", "181712.007500", "181713.257500", "181714.507500", "181715.757500", "181717.007500", "181718.257500", "181719.507500", "181720.757500", "181722.007500", "181723.257500", "181724.507500", "181725.757500", "181727.007500", "181728.257500", "181729.507500", "181730.757500", "181732.007500", "181733.257500", "181734.507500", "181735.757500", "181737.007500", "181738.257500", "181739.507500", "181740.757500", "181742.007500", "181743.257500", "181744.507500", "181745.757500", "181747.007500", "181748.257500", "181749.507500", "181750.757500", "181752.007500", "181753.257500", "181754.507500", "181755.757500", "181757.007500", "181758.257500", "181759.507500", "181800.757500", "181802.007500", "181803.257500", "181804.507500", "181805.757500", "181807.007500", "181808.257500", "181809.507500", "181810.757500", "181812.007500", "181813.257500", "181814.507500", "181815.757500", "181817.007500", "181818.257500", "181819.507500", "181820.757500", "181822.007500", "181823.257500", "181824.507500", "181825.757500", "181827.007500", "181828.257500", "181829.507500", "181830.757500", "181832.007500", "181833.257500", "181834.507500", "181835.757500", "181837.007500", "181838.257500", "181839.507500", "181840.757500", "181842.007500", "181843.257500", "181844.507500", "181845.757500", "181847.007500", "181848.257500", "181849.507500", "181850.757500", "181852.007500", "181853.257500", "181854.507500", "181855.757500", "181857.007500", "181858.257500", "181859.507500", "181900.757500", "181902.007500", "181903.257500", "181904.507500", "181905.757500", "181907.007500", "181908.257500", "181909.507500", "181910.757500", "181912.007500", "181913.257500", "181914.507500", "181915.757500", "181917.007500", "181918.257500", "181919.507500", "181920.757500", "181922.007500", "181923.257500", "181924.507500", "181925.757500", "181927.007500", "181928.257500", "181929.507500", "181930.757500", "181932.007500", "181933.257500", "181934.507500", "181935.757500", "181937.007500", "181938.257500", "181939.507500", "181940.757500", "181942.007500", "181943.257500", "181944.507500", "181945.757500", "181947.007500", "181948.257500", "181949.507500", "181950.757500", "181952.007500", "181953.257500", "181954.507500", "181955.757500", "181957.007500", "181958.257500", "181959.507500", "182000.757500", "182002.007500", "182003.257500", "182004.507500", "182005.757500", "182007.007500", "182008.257500", "182009.507500", "182010.757500", "182012.007500", "182013.257500", "182014.507500", "182015.757500", "182017.007500", "182018.257500", "182019.507500", "182020.757500", "182022.007500", "182023.257500", "182024.507500", "182025.757500", "182027.007500", "182028.257500", "182029.507500", "182030.757500", "182032.007500", "182033.257500", "182034.507500", "182035.757500", "182037.007500", "182038.257500", "182039.507500", "182040.757500", "182042.007500", "182043.257500", "182044.507500", "182045.757500", "182047.007500", "182048.257500", "182049.507500", "182050.757500", "182052.007500", "182053.257500", "182054.507500", "182055.757500", "182057.007500", "182058.257500", "182059.507500", "182100.757500", "182102.007500", "182103.257500", "182104.507500", "182105.757500", "182107.007500", "182108.257500", "182109.507500", "182110.757500", "182112.007500", "182113.257500", "182114.507500", "182115.757500", "182117.007500", "182118.257500", "182119.507500", "182120.757500", "182122.007500", "182123.257500", "182124.507500", "182125.757500", "182127.007500", "182128.257500", "182129.507500", "182130.757500", "182132.007500", "182133.257500", "182134.507500", "182135.757500", "182137.007500", "182138.257500", "182139.507500", "182140.757500", "182142.007500", "182143.257500", "182144.507500", "182145.757500", "182147.007500", "182148.257500", "182149.507500", "182150.757500", "182152.007500", "182153.257500", "182154.507500", "182155.757500", "182157.007500", "182158.257500", "182159.507500", "182200.757500", "182202.007500", "182203.257500", "182204.507500", "182205.757500", "182207.007500", "182208.257500", "182209.507500", "182210.757500", "182212.007500", "182213.257500", "182214.507500", "182215.757500", "182217.007500", "182218.257500", "182219.507500", "182220.757500", "182222.007500", "182223.257500", "182224.507500", "182225.757500", "182227.007500", "182228.257500", "182229.507500", "182230.757500", "182232.007500", "182233.257500", "182234.507500", "182235.757500", "182237.007500", "182238.257500", "182239.507500", "182240.757500", "182242.007500", "182243.257500", "182244.507500", "182245.757500", "182247.007500", "182248.257500", "182249.507500", "182250.757500", "182252.007500"],
      "ContentTime": ["181704.829000", "181705.888000", "181707.138000", "181708.382000", "181709.639000", "181710.868000", "181712.133000", "181713.375000", "181714.637000", "181715.909000", "181717.146000", "181718.416000", "181719.599000", "181720.869000", "181722.139000", "181723.367000", "181724.643000", "181725.872000", "181727.135000", "181728.378000", "181729.628000", "181730.912000", "181732.137000", "181733.400000", "181734.653000", "181735.892000", "181737.137000", "181738.378000", "181739.654000", "181740.872000", "181742.120000", "181743.382000", "181744.626000", "181745.877000", "181747.130000", "181748.368000", "181749.655000", "181750.857000", "181752.119000", "181753.408000", "181754.628000", "181755.885000", "181757.116000", "181758.370000", "181759.639000", "181800.885000", "181802.114000", "181803.387000", "181804.647000", "181805.863000", "181807.133000", "181808.375000", "181809.624000", "181810.885000", "181812.146000", "181813.386000", "181814.619000", "181815.879000", "181817.107000", "181818.371000", "181819.621000", "181820.864000", "181822.122000", "181823.373000", "181824.639000", "181825.895000", "181827.185000", "181828.406000", "181829.631000", "181830.875000", "181832.148000", "181833.385000", "181834.631000", "181835.866000", "181837.133000", "181838.429000", "181839.643000", "181840.892000", "181842.137000", "181843.391000", "181844.629000", "181845.866000", "181847.122000", "181848.396000", "181849.650000", "181850.891000", "181852.093000", "181853.382000", "181854.635000", "181855.874000", "181857.128000", "181858.386000", "181859.636000", "181900.857000", "181902.125000", "181903.384000", "181904.618000", "181905.870000", "181907.148000", "181908.390000", "181909.633000", "181910.892000", "181912.147000", "181913.392000", "181914.635000", "181915.900000", "181917.203000", "181918.398000", "181919.634000", "181920.867000", "181922.148000", "181923.377000", "181924.672000", "181925.910000", "181927.155000", "181928.384000", "181929.669000", "181930.884000", "181932.155000", "181933.396000", "181934.640000", "181935.903000", "181937.152000", "181938.392000", "181939.630000", "181940.908000", "181942.144000", "181943.413000", "181944.634000", "181945.883000", "181947.139000", "181948.392000", "181949.630000", "181950.874000", "181952.128000", "181953.374000", "181954.637000", "181955.895000", "181957.138000", "181958.401000", "181959.655000", "182000.909000", "182002.161000", "182003.414000", "182004.635000", "182005.881000", "182007.139000", "182008.369000", "182009.667000", "182010.918000", "182012.154000", "182013.389000", "182014.626000", "182015.891000", "182017.149000", "182018.389000", "182019.639000", "182020.910000", "182022.143000", "182023.390000", "182024.649000", "182025.890000", "182027.145000", "182028.373000", "182029.638000", "182030.875000", "182032.144000", "182033.390000", "182034.633000", "182035.902000", "182037.218000", "182038.398000", "182039.687000", "182040.901000", "182042.192000", "182043.434000", "182044.671000", "182045.888000", "182047.145000", "182048.374000", "182049.617000", "182050.901000", "182052.163000", "182053.385000", "182054.635000", "182055.868000", "182057.156000", "182058.394000", "182059.667000", "182100.921000", "182102.150000", "182103.394000", "182104.636000", "182105.882000", "182107.137000", "182108.394000", "182109.640000", "182110.917000", "182112.134000", "182113.384000", "182114.651000", "182115.865000", "182117.142000", "182118.458000", "182119.674000", "182120.893000", "182122.181000", "182123.416000", "182124.628000", "182125.887000", "182127.139000", "182128.396000", "182129.650000", "182130.923000", "182132.142000", "182133.376000", "182134.658000", "182135.904000", "182137.142000", "182138.401000", "182139.650000", "182140.892000", "182142.152000", "182143.386000", "182144.633000", "182145.881000", "182147.141000", "182148.406000", "182149.640000", "182150.899000", "182152.136000", "182153.411000", "182154.622000", "182155.901000", "182157.155000", "182158.387000", "182159.659000", "182200.912000", "182202.161000", "182203.380000", "182204.646000", "182205.885000", "182207.136000", "182208.388000", "182209.638000", "182210.882000", "182212.140000", "182213.396000", "182214.689000", "182215.884000", "182217.155000", "182218.385000", "182219.654000", "182220.882000", "182222.140000", "182223.387000", "182224.651000", "182225.888000", "182227.121000", "182228.400000", "182229.638000", "182230.895000", "182232.138000", "182233.406000", "182234.632000", "182235.886000", "182237.145000", "182238.389000", "182239.636000", "182240.899000", "182242.130000", "182243.412000", "182244.652000", "182245.900000", "182247.150000", "182248.390000", "182249.621000", "182250.879000", "182252.156000", "182253.440000"],
      "InstanceCreationTime": ["181704.829000", "181705.888000", "181707.138000", "181708.382000", "181709.639000", "181710.868000", "181712.133000", "181713.375000", "181714.637000", "181715.909000", "181717.146000", "181718.416000", "181719.599000", "181720.869000", "181722.139000", "181723.367000", "181724.643000", "181725.872000", "181727.135000", "181728.378000", "181729.628000", "181730.912000", "181732.137000", "181733.400000", "181734.653000", "181735.892000", "181737.137000", "181738.378000", "181739.654000", "181740.872000", "181742.120000", "181743.382000", "181744.626000", "181745.877000", "181747.130000", "181748.368000", "181749.655000", "181750.857000", "181752.119000", "181753.408000", "181754.628000", "181755.885000", "181757.116000", "181758.370000", "181759.639000", "181800.885000", "181802.114000", "181803.387000", "181804.647000", "181805.863000", "181807.133000", "181808.375000", "181809.624000", "181810.885000", "181812.146000", "181813.386000", "181814.619000", "181815.879000", "181817.107000", "181818.371000", "181819.621000", "181820.864000", "181822.122000", "181823.373000", "181824.639000", "181825.895000", "181827.185000", "181828.406000", "181829.631000", "181830.875000", "181832.148000", "181833.385000", "181834.631000", "181835.866000", "181837.133000", "181838.429000", "181839.643000", "181840.892000", "181842.137000", "181843.391000", "181844.629000", "181845.866000", "181847.122000", "181848.396000", "181849.650000", "181850.891000", "181852.093000", "181853.382000", "181854.635000", "181855.874000", "181857.128000", "181858.386000", "181859.636000", "181900.857000", "181902.125000", "181903.384000", "181904.618000", "181905.870000", "181907.148000", "181908.390000", "181909.633000", "181910.892000", "181912.147000", "181913.392000", "181914.635000", "181915.900000", "181917.203000", "181918.398000", "181919.634000", "181920.867000", "181922.148000", "181923.377000", "181924.672000", "181925.910000", "181927.155000", "181928.384000", "181929.669000", "181930.884000", "181932.155000", "181933.396000", "181934.640000", "181935.903000", "181937.152000", "181938.392000", "181939.630000", "181940.908000", "181942.144000", "181943.413000", "181944.634000", "181945.883000", "181947.139000", "181948.392000", "181949.630000", "181950.874000", "181952.128000", "181953.374000", "181954.637000", "181955.895000", "181957.138000", "181958.401000", "181959.655000", "182000.909000", "182002.161000", "182003.414000", "182004.635000", "182005.881000", "182007.139000", "182008.369000", "182009.667000", "182010.918000", "182012.154000", "182013.389000", "182014.626000", "182015.891000", "182017.149000", "182018.389000", "182019.639000", "182020.910000", "182022.143000", "182023.390000", "182024.649000", "182025.890000", "182027.145000", "182028.373000", "182029.638000", "182030.875000", "182032.144000", "182033.390000", "182034.633000", "182035.902000", "182037.218000", "182038.398000", "182039.687000", "182040.901000", "182042.192000", "182043.434000", "182044.671000", "182045.888000", "182047.145000", "182048.374000", "182049.617000", "182050.901000", "182052.163000", "182053.385000", "182054.635000", "182055.868000", "182057.156000", "182058.394000", "182059.667000", "182100.921000", "182102.150000", "182103.394000", "182104.636000", "182105.882000", "182107.137000", "182108.394000", "182109.640000", "182110.917000", "182112.134000", "182113.384000", "182114.651000", "182115.865000", "182117.142000", "182118.458000", "182119.674000", "182120.893000", "182122.181000", "182123.416000", "182124.628000", "182125.887000", "182127.139000", "182128.396000", "182129.650000", "182130.923000", "182132.142000", "182133.376000", "182134.658000", "182135.904000", "182137.142000", "182138.401000", "182139.650000", "182140.892000", "182142.152000", "182143.386000", "182144.633000", "182145.881000", "182147.141000", "182148.406000", "182149.640000", "182150.899000", "182152.136000", "182153.411000", "182154.622000", "182155.901000", "182157.155000", "182158.387000", "182159.659000", "182200.912000", "182202.161000", "182203.380000", "182204.646000", "182205.885000", "182207.136000", "182208.388000", "182209.638000", "182210.882000", "182212.140000", "182213.396000", "182214.689000", "182215.884000", "182217.155000", "182218.385000", "182219.654000", "182220.882000", "182222.140000", "182223.387000", "182224.651000", "182225.888000", "182227.121000", "182228.400000", "182229.638000", "182230.895000", "182232.138000", "182233.406000", "182234.632000", "182235.886000", "182237.145000", "182238.389000", "182239.636000", "182240.899000", "182242.130000", "182243.412000", "182244.652000", "182245.900000", "182247.150000", "182248.390000", "182249.621000", "182250.879000", "182252.156000", "182253.440000"],
      "InstanceNumber": [1, 2, 3, 4, 5, 6, 7, 8, 9, 10, 11, 12, 13, 14, 15, 16, 17, 18, 19, 20, 21, 22, 23, 24, 25, 26, 27, 28, 29, 30, 31, 32, 33, 34, 35, 36, 37, 38, 39, 40, 41, 42, 43, 44, 45, 46, 47, 48, 49, 50, 51, 52, 53, 54, 55, 56, 57, 58, 59, 60, 61, 62, 63, 64, 65, 66, 67, 68, 69, 70, 71, 72, 73, 74, 75, 76, 77, 78, 79, 80, 81, 82, 83, 84, 85, 86, 87, 88, 89, 90, 91, 92, 93, 94, 95, 96, 97, 98, 99, 100, 101, 102, 103, 104, 105, 106, 107, 108, 109, 110, 111, 112, 113, 114, 115, 116, 117, 118, 119, 120, 121, 122, 123, 124, 125, 126, 127, 128, 129, 130, 131, 132, 133, 134, 135, 136, 137, 138, 139, 140, 141, 142, 143, 144, 145, 146, 147, 148, 149, 150, 151, 152, 153, 154, 155, 156, 157, 158, 159, 160, 161, 162, 163, 164, 165, 166, 167, 168, 169, 170, 171, 172, 173, 174, 175, 176, 177, 178, 179, 180, 181, 182, 183, 184, 185, 186, 187, 188, 189, 190, 191, 192, 193, 194, 195, 196, 197, 198, 199, 200, 201, 202, 203, 204, 205, 206, 207, 208, 209, 210, 211, 212, 213, 214, 215, 216, 217, 218, 219, 220, 221, 222, 223, 224, 225, 226, 227, 228, 229, 230, 231, 232, 233, 234, 235, 236, 237, 238, 239, 240, 241, 242, 243, 244, 245, 246, 247, 248, 249, 250, 251, 252, 253, 254, 255, 256, 257, 258, 259, 260, 261, 262, 263, 264, 265, 266, 267, 268, 269, 270, 271, 272, 273, 274, 275, 276, 277, 278, 279, 280],
      "LargestImagePixelValue": [847, 1019, 1215, 906, 1472, 1236, 970, 984, 1170, 1193, 914, 889, 1206, 952, 1065, 910, 940, 871, 1431, 1115, 1157, 1412, 1194, 916, 1242, 924, 1177, 996, 1167, 772, 1129, 810, 1124, 854, 1214, 851, 1375, 1116, 944, 1161, 893, 959, 1044, 1047, 846, 1092, 845, 1056, 904, 978, 803, 1029, 890, 819, 1190, 1093, 1224, 895, 1529, 985, 1162, 1147, 1034, 838, 808, 1251, 1053, 1074, 1448, 1258, 870, 1343, 852, 1022, 854, 1052, 843, 1119, 976, 1013, 1283, 1309, 905, 1171, 1533, 1154, 1063, 783, 1118, 1002, 1030, 807, 1117, 831, 883, 827, 952, 856, 861, 797, 1125, 863, 1034, 1038, 885, 963, 959, 832, 952, 1374, 1351, 1286, 932, 1287, 781, 920, 901, 854, 1045, 844, 836, 1213, 1284, 866, 1426, 1106, 985, 961, 782, 967, 1377, 944, 816, 1047, 827, 1060, 902, 1084, 802, 1164, 869, 1120, 868, 1001, 1018, 1202, 768, 1091, 929, 988, 1103, 926, 880, 1326, 1039, 837, 1199, 824, 1048, 879, 793, 982, 1309, 919, 1019, 1127, 1275, 1010, 1229, 1286, 824, 949, 886, 833, 1042, 878, 848, 944, 1163, 888, 1197, 1186, 876, 975, 1000, 1000, 1244, 938, 817, 878, 923, 867, 997, 848, 1110, 1223, 1110, 848, 1267, 1020, 1106, 993, 1010, 890, 1231, 830, 944, 802, 918, 1013, 834, 1128, 1257, 922, 1184, 927, 1105, 902, 860, 1048, 849, 798, 1193, 1048, 864, 1095, 891, 963, 835, 1251, 866, 1013, 1283, 851, 1082, 953, 1160, 789, 1129, 1231, 935, 831, 1429, 1083, 966, 855, 1168, 875, 1000, 801, 988, 928, 900, 912, 989, 1356, 827, 937, 1241, 1143, 827, 929, 1159, 973, 947, 1012, 1159, 913, 933, 1494, 941, 997, 819, 825, 766, 950, 1153, 961, 1101, 1084],
      "WindowCenter": [389.0, 392.0, 393.0, 391.0, 394.0, 391.0, 389.0, 389.0, 389.0, 390.0, 387.0, 387.0, 390.0, 388.0, 390.0, 389.0, 390.0, 389.0, 393.0, 391.0, 390.0, 391.0, 390.0, 387.0, 390.0, 387.0, 390.0, 388.0, 389.0, 385.0, 387.0, 385.0, 390.0, 388.0, 390.0, 388.0, 391.0, 388.0, 387.0, 388.0, 386.0, 387.0, 387.0, 387.0, 386.0, 389.0, 387.0, 389.0, 388.0, 388.0, 386.0, 389.0, 388.0, 387.0, 390.0, 389.0, 390.0, 388.0, 391.0, 387.0, 389.0, 388.0, 388.0, 386.0, 386.0, 390.0, 389.0, 389.0, 391.0, 390.0, 386.0, 390.0, 386.0, 388.0, 387.0, 389.0, 387.0, 389.0, 388.0, 389.0, 390.0, 390.0, 388.0, 391.0, 392.0, 388.0, 386.0, 383.0, 385.0, 384.0, 383.0, 381.0, 385.0, 382.0, 383.0, 383.0, 384.0, 384.0, 385.0, 386.0, 388.0, 387.0, 388.0, 388.0, 386.0, 388.0, 388.0, 387.0, 389.0, 391.0, 390.0, 390.0, 387.0, 389.0, 384.0, 386.0, 386.0, 386.0, 389.0, 387.0, 387.0, 390.0, 390.0, 386.0, 390.0, 388.0, 386.0, 386.0, 384.0, 387.0, 388.0, 385.0, 384.0, 387.0, 385.0, 387.0, 386.0, 388.0, 385.0, 388.0, 386.0, 389.0, 386.0, 388.0, 388.0, 389.0, 385.0, 387.0, 386.0, 387.0, 387.0, 386.0, 386.0, 389.0, 387.0, 385.0, 388.0, 386.0, 389.0, 387.0, 387.0, 388.0, 390.0, 386.0, 387.0, 388.0, 389.0, 387.0, 389.0, 389.0, 384.0, 386.0, 385.0, 385.0, 387.0, 386.0, 386.0, 388.0, 389.0, 386.0, 388.0, 388.0, 386.0, 387.0, 387.0, 387.0, 388.0, 386.0, 385.0, 385.0, 386.0, 386.0, 388.0, 387.0, 389.0, 389.0, 388.0, 386.0, 389.0, 387.0, 388.0, 387.0, 387.0, 386.0, 388.0, 385.0, 386.0, 385.0, 387.0, 388.0, 387.0, 389.0, 390.0, 386.0, 389.0, 386.0, 387.0, 385.0, 385.0, 387.0, 386.0, 386.0, 389.0, 388.0, 386.0, 388.0, 386.0, 388.0, 387.0, 390.0, 386.0, 388.0, 390.0, 386.0, 388.0, 388.0, 389.0, 385.0, 388.0, 388.0, 386.0, 385.0, 390.0, 387.0, 387.0, 387.0, 388.0, 386.0, 387.0, 385.0, 387.0, 386.0, 386.0, 386.0, 387.0, 390.0, 385.0, 386.0, 388.0, 388.0, 386.0, 387.0, 388.0, 386.0, 385.0, 387.0, 388.0, 386.0, 386.0, 389.0, 386.0, 386.0, 384.0, 384.0, 385.0, 388.0, 389.0, 387.0, 388.0, 387.0],
      "WindowWidth": [828.0, 834.0, 834.0, 830.0, 834.0, 830.0, 826.0, 826.0, 827.0, 827.0, 824.0, 824.0, 828.0, 825.0, 828.0, 827.0, 828.0, 827.0, 832.0, 829.0, 829.0, 830.0, 827.0, 824.0, 827.0, 824.0, 827.0, 825.0, 826.0, 820.0, 823.0, 820.0, 828.0, 825.0, 828.0, 825.0, 828.0, 825.0, 822.0, 824.0, 822.0, 823.0, 823.0, 823.0, 821.0, 826.0, 824.0, 826.0, 824.0, 825.0, 822.0, 826.0, 824.0, 824.0, 828.0, 827.0, 828.0, 825.0, 829.0, 824.0, 826.0, 825.0, 824.0, 823.0, 823.0, 828.0, 827.0, 827.0, 829.0, 827.0, 822.0, 827.0, 822.0, 824.0, 824.0, 826.0, 823.0, 826.0, 824.0, 826.0, 828.0, 828.0, 826.0, 829.0, 831.0, 825.0, 822.0, 816.0, 819.0, 816.0, 816.0, 813.0, 817.0, 814.0, 815.0, 816.0, 818.0, 818.0, 820.0, 821.0, 825.0, 823.0, 825.0, 825.0, 822.0, 824.0, 825.0, 824.0, 826.0, 829.0, 828.0, 827.0, 823.0, 825.0, 819.0, 822.0, 820.0, 821.0, 826.0, 824.0, 825.0, 828.0, 827.0, 822.0, 827.0, 824.0, 822.0, 821.0, 819.0, 822.0, 824.0, 820.0, 819.0, 823.0, 820.0, 823.0, 822.0, 824.0, 820.0, 823.0, 821.0, 825.0, 822.0, 825.0, 825.0, 825.0, 820.0, 823.0, 821.0, 822.0, 823.0, 821.0, 821.0, 825.0, 822.0, 820.0, 824.0, 821.0, 826.0, 824.0, 824.0, 825.0, 827.0, 822.0, 823.0, 824.0, 825.0, 823.0, 826.0, 825.0, 819.0, 820.0, 819.0, 819.0, 823.0, 822.0, 823.0, 825.0, 825.0, 821.0, 824.0, 824.0, 821.0, 823.0, 823.0, 823.0, 824.0, 821.0, 819.0, 820.0, 821.0, 822.0, 825.0, 823.0, 826.0, 825.0, 824.0, 821.0, 826.0, 823.0, 824.0, 822.0, 822.0, 822.0, 825.0, 820.0, 821.0, 820.0, 823.0, 825.0, 823.0, 826.0, 827.0, 822.0, 825.0, 821.0, 823.0, 820.0, 820.0, 823.0, 821.0, 822.0, 826.0, 824.0, 821.0, 824.0, 822.0, 824.0, 824.0, 827.0, 821.0, 824.0, 826.0, 821.0, 825.0, 824.0, 825.0, 820.0, 824.0, 824.0, 822.0, 820.0, 826.0, 823.0, 824.0, 823.0, 824.0, 821.0, 822.0, 819.0, 822.0, 822.0, 822.0, 822.0, 823.0, 827.0, 820.0, 821.0, 825.0, 825.0, 822.0, 823.0, 824.0, 820.0, 820.0, 822.0, 824.0, 820.0, 821.0, 826.0, 820.0, 821.0, 819.0, 819.0, 820.0, 824.0, 827.0, 823.0, 824.0, 823.0]
    },
    "slices": {}
  }
}