{
  "AcquisitionMatrixPE": 96,
  "AcquisitionNumber": 1,
  "AcquisitionTime": "12:36:23.947500",
  "BandwidthPerPixelPhaseEncode": 18.939,
  "BaseResolution": 96,
  "BodyPartExamined": "BRAIN",
  "ConsistencyInfo": "N4_VE11C_LATEST_20160120",
  "ConversionSoftware": "dcm2niix",
  "ConversionSoftwareVersion": "v1.0.20170923 (OpenJPEG build) GCC6.3.0",
  "DerivedVendorReportedEchoSpacing": 0.000550011,
  "DeviceSerialNumber": "66112",
  "DwellTime": 2.3e-06,
  "EchoTime": 0.033,
  "EchoTrainLength": 96,
  "EffectiveEchoSpacing": 0.000550011,
  "FlipAngle": 64,
  "ImageType": [
    "ORIGINAL",
    "PRIMARY",
    "FMRI",
    "NONE",
    "ND",
    "NORM",
    "MOSAIC"
],
  "InstitutionAddress": "Maynard_3_Hanover_NH_US_03755",
  "InstitutionName": "Dartmouth_College_-_PBS",
  "MagneticFieldStrength": 3,
  "Manufacturer": "Siemens",
  "ManufacturersModelName": "Prisma",
  "Modality": "MR",
  "MultibandAccelerationFactor": 4,
  "PartialFourier": 1,
  "PercentPhaseFOV": 100,
  "PhaseEncodingDirection": "j-",
  "PhaseEncodingSteps": 96,
  "PhaseResolution": 1,
  "ProcedureStepDescription": "Gobbini_Matteo_1017_famface-angles",
  "ProtocolName": "func_run-02_task-str1back",
  "PulseSequenceDetails": "%SiemensSeq%_ep2d_bold",
  "ReceiveCoilActiveElements": "HEA;HEP",
  "ReceiveCoilName": "Head_32",
  "ReconMatrixPE": 96,
  "RepetitionTime": 1.25,
  "ScanOptions": "FS",
  "ScanningSequence": "EP",
  "SequenceName": "_epfid2d1_96",
  "SequenceVariant": "SK",
  "SeriesDescription": "func_run-02_task-str1back",
  "SliceTiming": [0.8775, 0, 0.615, 0.0875, 0.7025, 0.175, 0.79, 0.3525, 0.9675, 0.44, 1.055, 0.5275, 1.1425, 0.265, 0.8775, 0, 0.615, 0.0875, 0.7025, 0.175, 0.79, 0.3525, 0.9675, 0.44, 1.055, 0.5275, 1.1425, 0.265, 0.8775, 0, 0.615, 0.0875, 0.7025, 0.175, 0.79, 0.3525, 0.9675, 0.44, 1.055, 0.5275, 1.1425, 0.265, 0.8775, 0, 0.615, 0.0875, 0.7025, 0.175, 0.79, 0.3525, 0.9675, 0.44, 1.055, 0.5275, 1.1425, 0.265],
  "SoftwareVersions": "syngo_MR_E11",
  "StationName": "AWP66112",
  "TaskName": "str1back",
  "TotalReadoutTime": 0.0522511,
  "dcmmeta_affine": [
    [-2.4997382164001465, 0.013961199671030045, 0.03338341787457466, 122.54183959960938],
    [0.020335182547569275, 2.449777126312256, 0.49817562103271484, -101.97747802734375],
    [0.0299307219684124, -0.4983949661254883, 2.449633836746216, -47.9638786315918],
    [0.0, 0.0, 0.0, 1.0]
],
  "dcmmeta_reorient_transform": [
    [0.0, -1.0, 0.0, 95.0],
    [1.0, 0.0, 0.0, 0.0],
    [0.0, 0.0, 1.0, 0.0],
    [0.0, 0.0, 0.0, 1.0]
],
  "dcmmeta_shape": [96, 96, 56, 280],
  "dcmmeta_slice_dim": 2,
  "dcmmeta_version": 0.6,
  "global": {
    "const": {
      "AccessionNumber": "A000285",
      "AcquisitionMatrix": [96, 0, 0, 96],
      "AngioFlag": "N",
      "BitsAllocated": 16,
      "BitsStored": 12,
      "BodyPartExamined": "BRAIN",
      "Columns": 768,
      "EchoNumbers": 1,
      "EchoTime": 33.0,
      "EchoTrainLength": 96,
      "FlipAngle": 64.0,
      "HighBit": 11,
      "ImageOrientationPatient": [0.99989524509127, -0.0081340732149, 0.01197228870331, 0.00558447988446, 0.979910814741, 0.19935799140756],
      "ImagePositionPatient": [-968.47112610083, -947.043802053, -272.82883587421],
      "ImageType": [
        "ORIGINAL",
        "PRIMARY",
        "FMRI",
        "NONE",
        "ND",
        "NORM",
        "MOSAIC"
],
      "ImagedNucleus": "1H",
      "ImagingFrequency": 123.252351,
      "InPlanePhaseEncodingDirection": "COL",
      "MRAcquisitionType": "2D",
      "MagneticFieldStrength": 3.0,
      "Manufacturer": "SIEMENS",
      "ManufacturerModelName": "Prisma",
      "Modality": "MR",
      "NumberOfAverages": 1.0,
      "NumberOfPhaseEncodingSteps": 96,
      "PercentPhaseFieldOfView": 100.0,
      "PercentSampling": 100.0,
      "PerformedProcedureStepStartTime": "120812.665000",
      "PhotometricInterpretation": "MONOCHROME2",
      "PixelBandwidth": 2265.0,
      "PixelRepresentation": 0,
      "PixelSpacing": [2.5, 2.5],
      "PositionReferenceIndicator": "",
      "ProtocolName": "func_run-02_task-str1back",
      "RepetitionTime": 1250.0,
      "Rows": 768,
      "SAR": 0.05808462306814,
      "SamplesPerPixel": 1,
      "ScanOptions": "FS",
      "ScanningSequence": "EP",
      "SequenceName": "*epfid2d1_96",
      "SequenceVariant": "SK",
      "SeriesDescription": "func_run-02_task-str1back",
      "SeriesNumber": 15,
      "SeriesTime": "123625.604000",
      "SliceLocation": -65.682309000434,
      "SliceThickness": 2.5,
      "SmallestImagePixelValue": 0,
      "SoftwareVersions": "syngo MR E11",
      "SpacingBetweenSlices": 2.4999999533031,
      "SpecificCharacterSet": "ISO_IR 100",
      "StudyID": "3",
      "StudyTime": "120812.577000",
      "TransmitCoilName": "Body",
      "VariableFlipAngleFlag": "N",
      "WindowCenterWidthExplanation": "Algo1",
      "dBdt": 0.0},
    "slices": {}
  },
  "time": {
    "samples": {
      "AcquisitionNumber": [1, 2, 3, 4, 5, 6, 7, 8, 9, 10, 11, 12, 13, 14, 15, 16, 17, 18, 19, 20, 21, 22, 23, 24, 25, 26, 27, 28, 29, 30, 31, 32, 33, 34, 35, 36, 37, 38, 39, 40, 41, 42, 43, 44, 45, 46, 47, 48, 49, 50, 51, 52, 53, 54, 55, 56, 57, 58, 59, 60, 61, 62, 63, 64, 65, 66, 67, 68, 69, 70, 71, 72, 73, 74, 75, 76, 77, 78, 79, 80, 81, 82, 83, 84, 85, 86, 87, 88, 89, 90, 91, 92, 93, 94, 95, 96, 97, 98, 99, 100, 101, 102, 103, 104, 105, 106, 107, 108, 109, 110, 111, 112, 113, 114, 115, 116, 117, 118, 119, 120, 121, 122, 123, 124, 125, 126, 127, 128, 129, 130, 131, 132, 133, 134, 135, 136, 137, 138, 139, 140, 141, 142, 143, 144, 145, 146, 147, 148, 149, 150, 151, 152, 153, 154, 155, 156, 157, 158, 159, 160, 161, 162, 163, 164, 165, 166, 167, 168, 169, 170, 171, 172, 173, 174, 175, 176, 177, 178, 179, 180, 181, 182, 183, 184, 185, 186, 187, 188, 189, 190, 191, 192, 193, 194, 195, 196, 197, 198, 199, 200, 201, 202, 203, 204, 205, 206, 207, 208, 209, 210, 211, 212, 213, 214, 215, 216, 217, 218, 219, 220, 221, 222, 223, 224, 225, 226, 227, 228, 229, 230, 231, 232, 233, 234, 235, 236, 237, 238, 239, 240, 241, 242, 243, 244, 245, 246, 247, 248, 249, 250, 251, 252, 253, 254, 255, 256, 257, 258, 259, 260, 261, 262, 263, 264, 265, 266, 267, 268, 269, 270, 271, 272, 273, 274, 275, 276, 277, 278, 279, 280],
      "AcquisitionTime": ["123623.947500", "123625.197500", "123626.447500", "123627.697500", "123628.947500", "123630.197500", "123631.447500", "123632.697500", "123633.947500", "123635.197500", "123636.447500", "123637.697500", "123638.947500", "123640.197500", "123641.447500", "123642.697500", "123643.947500", "123645.197500", "123646.447500", "123647.697500", "123648.947500", "123650.197500", "123651.447500", "123652.697500", "123653.947500", "123655.197500", "123656.447500", "123657.697500", "123658.947500", "123700.197500", "123701.447500", "123702.697500", "123703.947500", "123705.197500", "123706.447500", "123707.697500", "123708.947500", "123710.197500", "123711.447500", "123712.697500", "123713.947500", "123715.197500", "123716.447500", "123717.697500", "123718.947500", "123720.197500", "123721.447500", "123722.697500", "123723.947500", "123725.197500", "123726.447500", "123727.697500", "123728.947500", "123730.197500", "123731.447500", "123732.697500", "123733.947500", "123735.197500", "123736.447500", "123737.697500", "123738.947500", "123740.197500", "123741.447500", "123742.697500", "123743.947500", "123745.197500", "123746.447500", "123747.697500", "123748.947500", "123750.197500", "123751.447500", "123752.697500", "123753.947500", "123755.197500", "123756.447500", "123757.697500", "123758.947500", "123800.197500", "123801.447500", "123802.697500", "123803.947500", "123805.197500", "123806.447500", "123807.697500", "123808.947500", "123810.197500", "123811.447500", "123812.697500", "123813.947500", "123815.197500", "123816.447500", "123817.697500", "123818.947500", "123820.197500", "123821.447500", "123822.697500", "123823.947500", "123825.197500", "123826.447500", "123827.697500", "123828.947500", "123830.197500", "123831.447500", "123832.697500", "123833.947500", "123835.197500", "123836.447500", "123837.697500", "123838.947500", "123840.197500", "123841.447500", "123842.697500", "123843.947500", "123845.197500", "123846.447500", "123847.697500", "123848.947500", "123850.197500", "123851.447500", "123852.697500", "123853.947500", "123855.197500", "123856.447500", "123857.697500", "123858.947500", "123900.197500", "123901.447500", "123902.697500", "123903.947500", "123905.197500", "123906.447500", "123907.697500", "123908.947500", "123910.197500", "123911.447500", "123912.697500", "123913.947500", "123915.197500", "123916.447500", "123917.697500", "123918.947500", "123920.197500", "123921.447500", "123922.697500", "123923.947500", "123925.197500", "123926.447500", "123927.697500", "123928.947500", "123930.197500", "123931.447500", "123932.697500", "123933.947500", "123935.197500", "123936.447500", "123937.697500", "123938.947500", "123940.197500", "123941.447500", "123942.697500", "123943.947500", "123945.197500", "123946.447500", "123947.697500", "123948.947500", "123950.197500", "123951.447500", "123952.697500", "123953.947500", "123955.197500", "123956.447500", "123957.697500", "123958.947500", "124000.197500", "124001.447500", "124002.697500", "124003.947500", "124005.197500", "124006.447500", "124007.697500", "124008.947500", "124010.197500", "124011.447500", "124012.697500", "124013.947500", "124015.197500", "124016.447500", "124017.697500", "124018.947500", "124020.197500", "124021.447500", "124022.697500", "124023.947500", "124025.197500", "124026.447500", "124027.697500", "124028.947500", "124030.197500", "124031.447500", "124032.697500", "124033.947500", "124035.197500", "124036.447500", "124037.697500", "124038.947500", "124040.197500", "124041.447500", "124042.697500", "124043.947500", "124045.197500", "124046.447500", "124047.697500", "124048.947500", "124050.197500", "124051.447500", "124052.697500", "124053.947500", "124055.197500", "124056.447500", "124057.697500", "124058.947500", "124100.197500", "124101.447500", "124102.697500", "124103.947500", "124105.197500", "124106.447500", "124107.697500", "124108.947500", "124110.197500", "124111.447500", "124112.697500", "124113.947500", "124115.197500", "124116.447500", "124117.697500", "124118.947500", "124120.197500", "124121.447500", "124122.697500", "124123.947500", "124125.197500", "124126.447500", "124127.697500", "124128.947500", "124130.197500", "124131.447500", "124132.697500", "124133.947500", "124135.197500", "124136.447500", "124137.697500", "124138.947500", "124140.197500", "124141.447500", "124142.697500", "124143.947500", "124145.197500", "124146.447500", "124147.697500", "124148.947500", "124150.197500", "124151.447500", "124152.697500", "124153.947500", "124155.197500", "124156.447500", "124157.697500", "124158.947500", "124200.197500", "124201.447500", "124202.697500", "124203.947500", "124205.197500", "124206.447500", "124207.697500", "124208.947500", "124210.197500", "124211.447500", "124212.697500"],
      "ContentTime": ["123625.608000", "123626.571000", "123627.826000", "123629.058000", "123630.351000", "123631.569000", "123632.814000", "123634.075000", "123635.314000", "123636.565000", "123637.813000", "123639.084000", "123640.303000", "123641.578000", "123642.852000", "123644.084000", "123645.293000", "123646.579000", "123647.820000", "123649.070000", "123650.357000", "123651.568000", "123652.836000", "123654.056000", "123655.304000", "123656.606000", "123657.839000", "123659.049000", "123700.317000", "123701.604000", "123702.816000", "123704.063000", "123705.341000", "123706.585000", "123707.819000", "123709.081000", "123710.318000", "123711.556000", "123712.822000", "123714.042000", "123715.349000", "123716.574000", "123717.830000", "123719.074000", "123720.330000", "123721.558000", "123722.813000", "123724.068000", "123725.376000", "123726.549000", "123727.815000", "123729.092000", "123730.308000", "123731.559000", "123732.826000", "123734.070000", "123735.317000", "123736.569000", "123737.825000", "123739.067000", "123740.321000", "123741.558000", "123742.803000", "123744.071000", "123745.314000", "123746.637000", "123747.884000", "123749.072000", "123750.314000", "123751.568000", "123752.825000", "123754.054000", "123755.310000", "123756.611000", "123757.814000", "123759.076000", "123800.319000", "123801.590000", "123802.801000", "123804.126000", "123805.301000", "123806.599000", "123807.813000", "123809.071000", "123810.317000", "123811.612000", "123812.821000", "123814.075000", "123815.310000", "123816.561000", "123817.808000", "123819.084000", "123820.333000", "123821.573000", "123822.820000", "123824.072000", "123825.330000", "123826.613000", "123827.811000", "123829.089000", "123830.313000", "123831.574000", "123832.826000", "123834.087000", "123835.389000", "123836.569000", "123837.844000", "123839.095000", "123840.328000", "123841.574000", "123842.823000", "123844.056000", "123845.325000", "123846.616000", "123847.842000", "123849.099000", "123850.326000", "123851.569000", "123852.836000", "123854.086000", "123855.334000", "123856.588000", "123857.813000", "123859.066000", "123900.355000", "123901.553000", "123902.822000", "123904.055000", "123905.313000", "123906.603000", "123907.824000", "123909.074000", "123910.324000", "123911.555000", "123912.836000", "123914.077000", "123915.339000", "123916.577000", "123917.824000", "123919.095000", "123920.362000", "123921.577000", "123922.762000", "123924.087000", "123925.335000", "123926.571000", "123927.816000", "123929.069000", "123930.308000", "123931.605000", "123932.842000", "123934.075000", "123935.314000", "123936.601000", "123937.808000", "123939.097000", "123940.336000", "123941.609000", "123942.806000", "123944.162000", "123945.330000", "123946.588000", "123947.807000", "123949.073000", "123950.326000", "123951.574000", "123952.814000", "123954.090000", "123955.329000", "123956.584000", "123957.856000", "123959.089000", "124000.330000", "124001.566000", "124002.828000", "124004.097000", "124005.335000", "124006.566000", "124007.809000", "124009.057000", "124010.323000", "124011.623000", "124012.829000", "124014.081000", "124015.344000", "124016.595000", "124017.836000", "124019.134000", "124020.334000", "124021.593000", "124022.806000", "124024.061000", "124025.327000", "124026.574000", "124027.823000", "124029.113000", "124030.312000", "124031.613000", "124032.820000", "124034.058000", "124035.325000", "124036.570000", "124037.809000", "124039.075000", "124040.313000", "124041.571000", "124042.833000", "124044.066000", "124045.314000", "124046.575000", "124047.837000", "124049.112000", "124050.341000", "124051.581000", "124052.833000", "124054.077000", "124055.384000", "124056.580000", "124057.854000", "124059.090000", "124100.323000", "124101.569000", "124102.816000", "124104.078000", "124105.350000", "124106.589000", "124107.823000", "124109.124000", "124110.332000", "124111.574000", "124112.827000", "124114.068000", "124115.311000", "124116.581000", "124117.805000", "124119.166000", "124120.321000", "124121.580000", "124122.864000", "124124.080000", "124125.311000", "124126.566000", "124127.845000", "124129.054000", "124130.326000", "124131.555000", "124132.852000", "124134.103000", "124135.344000", "124136.572000", "124137.823000", "124139.068000", "124140.306000", "124141.588000", "124142.828000", "124144.109000", "124145.335000", "124146.569000", "124147.810000", "124149.059000", "124150.333000", "124151.566000", "124152.822000", "124154.048000", "124155.308000", "124156.559000", "124157.859000", "124159.082000", "124200.321000", "124201.603000", "124202.810000", "124204.082000", "124205.314000", "124206.578000", "124207.809000", "124209.072000", "124210.309000", "124211.566000", "124212.850000", "124214.117000"],
      "InstanceCreationTime": ["123625.608000", "123626.571000", "123627.826000", "123629.058000", "123630.351000", "123631.569000", "123632.814000", "123634.075000", "123635.314000", "123636.565000", "123637.813000", "123639.084000", "123640.303000", "123641.578000", "123642.852000", "123644.084000", "123645.293000", "123646.579000", "123647.820000", "123649.070000", "123650.357000", "123651.568000", "123652.836000", "123654.056000", "123655.304000", "123656.606000", "123657.839000", "123659.049000", "123700.317000", "123701.604000", "123702.816000", "123704.063000", "123705.341000", "123706.585000", "123707.819000", "123709.081000", "123710.318000", "123711.556000", "123712.822000", "123714.042000", "123715.349000", "123716.574000", "123717.830000", "123719.074000", "123720.330000", "123721.558000", "123722.813000", "123724.068000", "123725.376000", "123726.549000", "123727.815000", "123729.092000", "123730.308000", "123731.559000", "123732.826000", "123734.070000", "123735.317000", "123736.569000", "123737.825000", "123739.067000", "123740.321000", "123741.558000", "123742.803000", "123744.071000", "123745.314000", "123746.637000", "123747.884000", "123749.072000", "123750.314000", "123751.568000", "123752.825000", "123754.054000", "123755.310000", "123756.611000", "123757.814000", "123759.076000", "123800.319000", "123801.590000", "123802.801000", "123804.126000", "123805.301000", "123806.599000", "123807.813000", "123809.071000", "123810.317000", "123811.612000", "123812.821000", "123814.075000", "123815.310000", "123816.561000", "123817.808000", "123819.084000", "123820.333000", "123821.573000", "123822.820000", "123824.072000", "123825.330000", "123826.613000", "123827.811000", "123829.089000", "123830.313000", "123831.574000", "123832.826000", "123834.087000", "123835.389000", "123836.569000", "123837.844000", "123839.095000", "123840.328000", "123841.574000", "123842.823000", "123844.056000", "123845.325000", "123846.616000", "123847.842000", "123849.099000", "123850.326000", "123851.569000", "123852.836000", "123854.086000", "123855.334000", "123856.588000", "123857.813000", "123859.066000", "123900.355000", "123901.553000", "123902.822000", "123904.055000", "123905.313000", "123906.603000", "123907.824000", "123909.074000", "123910.324000", "123911.555000", "123912.836000", "123914.077000", "123915.339000", "123916.577000", "123917.824000", "123919.095000", "123920.362000", "123921.577000", "123922.762000", "123924.087000", "123925.335000", "123926.571000", "123927.816000", "123929.069000", "123930.308000", "123931.605000", "123932.842000", "123934.075000", "123935.314000", "123936.601000", "123937.808000", "123939.097000", "123940.336000", "123941.609000", "123942.806000", "123944.162000", "123945.330000", "123946.588000", "123947.807000", "123949.073000", "123950.326000", "123951.574000", "123952.814000", "123954.090000", "123955.329000", "123956.584000", "123957.856000", "123959.089000", "124000.330000", "124001.566000", "124002.828000", "124004.097000", "124005.335000", "124006.566000", "124007.809000", "124009.057000", "124010.323000", "124011.623000", "124012.829000", "124014.081000", "124015.344000", "124016.595000", "124017.836000", "124019.134000", "124020.334000", "124021.593000", "124022.806000", "124024.061000", "124025.327000", "124026.574000", "124027.823000", "124029.113000", "124030.312000", "124031.613000", "124032.820000", "124034.058000", "124035.325000", "124036.570000", "124037.809000", "124039.075000", "124040.313000", "124041.571000", "124042.833000", "124044.066000", "124045.314000", "124046.575000", "124047.837000", "124049.112000", "124050.341000", "124051.581000", "124052.833000", "124054.077000", "124055.384000", "124056.580000", "124057.854000", "124059.090000", "124100.323000", "124101.569000", "124102.816000", "124104.078000", "124105.350000", "124106.589000", "124107.823000", "124109.124000", "124110.332000", "124111.574000", "124112.827000", "124114.068000", "124115.311000", "124116.581000", "124117.805000", "124119.166000", "124120.321000", "124121.580000", "124122.864000", "124124.080000", "124125.311000", "124126.566000", "124127.845000", "124129.054000", "124130.326000", "124131.555000", "124132.852000", "124134.103000", "124135.344000", "124136.572000", "124137.823000", "124139.068000", "124140.306000", "124141.588000", "124142.828000", "124144.109000", "124145.335000", "124146.569000", "124147.810000", "124149.059000", "124150.333000", "124151.566000", "124152.822000", "124154.048000", "124155.308000", "124156.559000", "124157.859000", "124159.082000", "124200.321000", "124201.603000", "124202.810000", "124204.082000", "124205.314000", "124206.578000", "124207.809000", "124209.072000", "124210.309000", "124211.566000", "124212.850000", "124214.117000"],
      "InstanceNumber": [1, 2, 3, 4, 5, 6, 7, 8, 9, 10, 11, 12, 13, 14, 15, 16, 17, 18, 19, 20, 21, 22, 23, 24, 25, 26, 27, 28, 29, 30, 31, 32, 33, 34, 35, 36, 37, 38, 39, 40, 41, 42, 43, 44, 45, 46, 47, 48, 49, 50, 51, 52, 53, 54, 55, 56, 57, 58, 59, 60, 61, 62, 63, 64, 65, 66, 67, 68, 69, 70, 71, 72, 73, 74, 75, 76, 77, 78, 79, 80, 81, 82, 83, 84, 85, 86, 87, 88, 89, 90, 91, 92, 93, 94, 95, 96, 97, 98, 99, 100, 101, 102, 103, 104, 105, 106, 107, 108, 109, 110, 111, 112, 113, 114, 115, 116, 117, 118, 119, 120, 121, 122, 123, 124, 125, 126, 127, 128, 129, 130, 131, 132, 133, 134, 135, 136, 137, 138, 139, 140, 141, 142, 143, 144, 145, 146, 147, 148, 149, 150, 151, 152, 153, 154, 155, 156, 157, 158, 159, 160, 161, 162, 163, 164, 165, 166, 167, 168, 169, 170, 171, 172, 173, 174, 175, 176, 177, 178, 179, 180, 181, 182, 183, 184, 185, 186, 187, 188, 189, 190, 191, 192, 193, 194, 195, 196, 197, 198, 199, 200, 201, 202, 203, 204, 205, 206, 207, 208, 209, 210, 211, 212, 213, 214, 215, 216, 217, 218, 219, 220, 221, 222, 223, 224, 225, 226, 227, 228, 229, 230, 231, 232, 233, 234, 235, 236, 237, 238, 239, 240, 241, 242, 243, 244, 245, 246, 247, 248, 249, 250, 251, 252, 253, 254, 255, 256, 257, 258, 259, 260, 261, 262, 263, 264, 265, 266, 267, 268, 269, 270, 271, 272, 273, 274, 275, 276, 277, 278, 279, 280],
      "LargestImagePixelValue": [1326, 1241, 1059, 1330, 1083, 993, 985, 941, 1247, 1000, 1215, 1145, 1344, 1007, 862, 1004, 1155, 1028, 966, 1195, 1439, 939, 1054, 992, 1241, 1326, 945, 1077, 1072, 911, 1052, 1298, 1076, 939, 1279, 980, 936, 1204, 1241, 965, 1036, 1196, 989, 936, 1268, 1030, 936, 1138, 1194, 968, 870, 950, 991, 905, 1070, 1283, 1026, 1148, 1218, 902, 1046, 941, 1064, 983, 985, 1226, 1070, 1115, 1457, 1098, 1044, 1407, 982, 1092, 1229, 931, 1003, 1147, 1218, 931, 978, 1059, 971, 972, 1208, 951, 970, 1226, 959, 1024, 1290, 928, 1037, 1007, 962, 1299, 1399, 1259, 933, 926, 1157, 1306, 1253, 1119, 1126, 1265, 907, 908, 1019, 988, 897, 930, 943, 949, 1076, 922, 1131, 970, 1023, 1284, 972, 1041, 971, 928, 1120, 926, 1031, 1112, 965, 978, 1111, 1018, 984, 893, 943, 1168, 966, 1351, 1236, 1106, 1110, 1351, 1007, 1015, 1003, 999, 999, 978, 1002, 999, 910, 1085, 948, 934, 1239, 1024, 1176, 1071, 1321, 1143, 1010, 1323, 1214, 1128, 1080, 1189, 952, 941, 1179, 1004, 928, 1123, 948, 1089, 1280, 1065, 1056, 1264, 1021, 979, 1140, 1024, 1056, 923, 1052, 1296, 959, 1190, 1021, 928, 1285, 916, 1045, 1087, 957, 953, 918, 984, 955, 1215, 1155, 1130, 1153, 1182, 944, 968, 1082, 983, 924, 1101, 915, 947, 993, 1243, 962, 940, 1344, 1246, 1103, 1108, 1218, 1340, 1016, 1026, 1003, 963, 931, 1040, 968, 920, 1159, 1365, 958, 1148, 1017, 981, 928, 1186, 1235, 1338, 1226, 1004, 1128, 1321, 922, 993, 1126, 896, 909, 921, 989, 965, 855, 1129, 948, 976, 1232, 950, 970, 1126, 917, 1361, 1297, 948, 927, 1105, 1377, 1030, 1204, 1395, 1385, 953, 884, 1076, 941, 916, 1038, 918, 932, 896],
      "WindowCenter": [411.0, 408.0, 406.0, 407.0, 405.0, 404.0, 404.0, 405.0, 408.0, 405.0, 407.0, 406.0, 407.0, 404.0, 402.0, 405.0, 406.0, 405.0, 404.0, 406.0, 408.0, 403.0, 404.0, 403.0, 405.0, 406.0, 403.0, 405.0, 406.0, 404.0, 405.0, 407.0, 405.0, 403.0, 406.0, 404.0, 404.0, 406.0, 406.0, 403.0, 404.0, 405.0, 404.0, 404.0, 407.0, 405.0, 403.0, 405.0, 406.0, 404.0, 402.0, 404.0, 405.0, 404.0, 406.0, 408.0, 405.0, 405.0, 406.0, 403.0, 404.0, 404.0, 405.0, 405.0, 405.0, 407.0, 406.0, 407.0, 409.0, 406.0, 405.0, 407.0, 403.0, 404.0, 405.0, 402.0, 403.0, 404.0, 404.0, 402.0, 402.0, 403.0, 403.0, 403.0, 405.0, 404.0, 404.0, 407.0, 405.0, 405.0, 407.0, 403.0, 404.0, 404.0, 405.0, 409.0, 410.0, 409.0, 405.0, 404.0, 406.0, 406.0, 405.0, 403.0, 402.0, 403.0, 399.0, 399.0, 401.0, 401.0, 402.0, 402.0, 403.0, 404.0, 405.0, 404.0, 407.0, 405.0, 405.0, 407.0, 405.0, 406.0, 405.0, 405.0, 407.0, 405.0, 406.0, 407.0, 405.0, 406.0, 407.0, 406.0, 407.0, 407.0, 406.0, 409.0, 407.0, 409.0, 407.0, 406.0, 405.0, 406.0, 403.0, 403.0, 403.0, 403.0, 403.0, 404.0, 404.0, 404.0, 403.0, 405.0, 405.0, 406.0, 409.0, 407.0, 407.0, 406.0, 407.0, 405.0, 403.0, 406.0, 405.0, 404.0, 403.0, 404.0, 402.0, 402.0, 404.0, 403.0, 404.0, 406.0, 404.0, 405.0, 407.0, 405.0, 404.0, 406.0, 404.0, 404.0, 406.0, 405.0, 406.0, 405.0, 406.0, 408.0, 405.0, 407.0, 406.0, 405.0, 407.0, 404.0, 405.0, 405.0, 404.0, 406.0, 404.0, 405.0, 405.0, 407.0, 405.0, 404.0, 404.0, 404.0, 402.0, 403.0, 405.0, 405.0, 404.0, 406.0, 404.0, 405.0, 406.0, 408.0, 406.0, 405.0, 408.0, 407.0, 405.0, 405.0, 405.0, 406.0, 403.0, 402.0, 402.0, 402.0, 403.0, 404.0, 404.0, 403.0, 405.0, 406.0, 403.0, 405.0, 406.0, 406.0, 405.0, 406.0, 406.0, 406.0, 405.0, 402.0, 403.0, 404.0, 400.0, 401.0, 403.0, 401.0, 401.0, 403.0, 404.0, 403.0, 402.0, 405.0, 404.0, 404.0, 405.0, 403.0, 403.0, 406.0, 405.0, 409.0, 409.0, 405.0, 404.0, 405.0, 406.0, 404.0, 404.0, 404.0, 403.0, 399.0, 398.0, 400.0, 400.0, 400.0, 401.0, 400.0, 401.0, 402.0],
      "WindowWidth": [870.0, 863.0, 859.0, 861.0, 857.0, 857.0, 856.0, 858.0, 863.0, 859.0, 861.0, 859.0, 861.0, 856.0, 854.0, 857.0, 860.0, 858.0, 857.0, 859.0, 861.0, 855.0, 856.0, 855.0, 858.0, 859.0, 854.0, 858.0, 859.0, 857.0, 858.0, 861.0, 858.0, 856.0, 859.0, 857.0, 856.0, 859.0, 859.0, 855.0, 856.0, 858.0, 856.0, 856.0, 860.0, 857.0, 855.0, 857.0, 858.0, 856.0, 854.0, 856.0, 858.0, 857.0, 860.0, 862.0, 857.0, 858.0, 859.0, 854.0, 856.0, 856.0, 859.0, 858.0, 858.0, 861.0, 859.0, 860.0, 864.0, 860.0, 858.0, 861.0, 855.0, 855.0, 857.0, 853.0, 854.0, 856.0, 856.0, 852.0, 852.0, 854.0, 854.0, 854.0, 857.0, 855.0, 857.0, 861.0, 857.0, 858.0, 861.0, 855.0, 856.0, 857.0, 859.0, 864.0, 867.0, 864.0, 859.0, 857.0, 859.0, 860.0, 857.0, 854.0, 852.0, 853.0, 848.0, 848.0, 850.0, 851.0, 852.0, 853.0, 854.0, 855.0, 858.0, 856.0, 860.0, 858.0, 858.0, 861.0, 858.0, 859.0, 859.0, 858.0, 861.0, 858.0, 860.0, 861.0, 859.0, 859.0, 861.0, 861.0, 862.0, 862.0, 861.0, 865.0, 862.0, 865.0, 862.0, 859.0, 857.0, 859.0, 854.0, 854.0, 854.0, 854.0, 854.0, 855.0, 856.0, 857.0, 854.0, 858.0, 858.0, 860.0, 864.0, 861.0, 861.0, 859.0, 861.0, 857.0, 855.0, 858.0, 857.0, 855.0, 854.0, 856.0, 853.0, 853.0, 856.0, 854.0, 855.0, 859.0, 857.0, 858.0, 861.0, 858.0, 856.0, 858.0, 856.0, 856.0, 859.0, 858.0, 860.0, 858.0, 860.0, 863.0, 859.0, 861.0, 859.0, 858.0, 861.0, 856.0, 857.0, 857.0, 856.0, 861.0, 857.0, 858.0, 857.0, 861.0, 858.0, 856.0, 855.0, 855.0, 852.0, 854.0, 857.0, 857.0, 857.0, 859.0, 857.0, 857.0, 860.0, 863.0, 859.0, 858.0, 862.0, 860.0, 857.0, 857.0, 857.0, 858.0, 854.0, 853.0, 853.0, 853.0, 854.0, 856.0, 856.0, 854.0, 857.0, 858.0, 854.0, 858.0, 859.0, 860.0, 858.0, 859.0, 859.0, 859.0, 856.0, 852.0, 853.0, 855.0, 849.0, 851.0, 853.0, 851.0, 851.0, 853.0, 855.0, 855.0, 853.0, 857.0, 856.0, 856.0, 858.0, 854.0, 854.0, 859.0, 858.0, 865.0, 864.0, 858.0, 856.0, 857.0, 859.0, 855.0, 855.0, 855.0, 852.0, 846.0, 845.0, 849.0, 848.0, 848.0, 850.0, 849.0, 851.0, 852.0]
    },
    "slices": {}
  }
}