{
  "AcquisitionMatrixPE": 96,
  "AcquisitionNumber": 1,
  "AcquisitionTime": "13:09:48.502500",
  "BandwidthPerPixelPhaseEncode": 18.939,
  "BaseResolution": 96,
  "BodyPartExamined": "BRAIN",
  "ConsistencyInfo": "N4_VE11C_LATEST_20160120",
  "ConversionSoftware": "dcm2niix",
  "ConversionSoftwareVersion": "v1.0.20170923 (OpenJPEG build) GCC6.3.0",
  "DerivedVendorReportedEchoSpacing": 0.000550011,
  "DeviceSerialNumber": "66112",
  "DwellTime": 2.3e-06,
  "EchoTime": 0.033,
  "EchoTrainLength": 96,
  "EffectiveEchoSpacing": 0.000550011,
  "FlipAngle": 64,
  "ImageType": [
    "ORIGINAL",
    "PRIMARY",
    "FMRI",
    "NONE",
    "ND",
    "NORM",
    "MOSAIC"
],
  "InstitutionAddress": "Maynard_3_Hanover_NH_US_03755",
  "InstitutionName": "Dartmouth_College_-_PBS",
  "MagneticFieldStrength": 3,
  "Manufacturer": "Siemens",
  "ManufacturersModelName": "Prisma",
  "Modality": "MR",
  "MultibandAccelerationFactor": 4,
  "PartialFourier": 1,
  "PercentPhaseFOV": 100,
  "PhaseEncodingDirection": "j-",
  "PhaseEncodingSteps": 96,
  "PhaseResolution": 1,
  "ProcedureStepDescription": "Gobbini_Matteo_1017_famface-angles",
  "ProtocolName": "func_run-07_task-str1back",
  "PulseSequenceDetails": "%SiemensSeq%_ep2d_bold",
  "ReceiveCoilActiveElements": "HEA;HEP",
  "ReceiveCoilName": "Head_32",
  "ReconMatrixPE": 96,
  "RepetitionTime": 1.25,
  "ScanOptions": "FS",
  "ScanningSequence": "EP",
  "SequenceName": "_epfid2d1_96",
  "SequenceVariant": "SK",
  "SeriesDescription": "func_run-07_task-str1back",
  "SliceTiming": [0.8775, 0, 0.615, 0.0875, 0.7025, 0.175, 0.79, 0.3525, 0.9675, 0.44, 1.055, 0.5275, 1.1425, 0.2625, 0.8775, 0, 0.615, 0.0875, 0.7025, 0.175, 0.79, 0.3525, 0.9675, 0.44, 1.055, 0.5275, 1.1425, 0.2625, 0.8775, 0, 0.615, 0.0875, 0.7025, 0.175, 0.79, 0.3525, 0.9675, 0.44, 1.055, 0.5275, 1.1425, 0.2625, 0.8775, 0, 0.615, 0.0875, 0.7025, 0.175, 0.79, 0.3525, 0.9675, 0.44, 1.055, 0.5275, 1.1425, 0.2625],
  "SoftwareVersions": "syngo_MR_E11",
  "StationName": "AWP66112",
  "TaskName": "str1back",
  "TotalReadoutTime": 0.0522511,
  "dcmmeta_affine": [
    [-2.4997382164001465, 0.013961199671030045, 0.03338341787457466, 122.54183959960938],
    [0.020335182547569275, 2.449777126312256, 0.49817562103271484, -101.97747802734375],
    [0.0299307219684124, -0.4983949661254883, 2.449633836746216, -47.9638786315918],
    [0.0, 0.0, 0.0, 1.0]
],
  "dcmmeta_reorient_transform": [
    [0.0, -1.0, 0.0, 95.0],
    [1.0, 0.0, 0.0, 0.0],
    [0.0, 0.0, 1.0, 0.0],
    [0.0, 0.0, 0.0, 1.0]
],
  "dcmmeta_shape": [96, 96, 56, 280],
  "dcmmeta_slice_dim": 2,
  "dcmmeta_version": 0.6,
  "global": {
    "const": {
      "AccessionNumber": "A000285",
      "AcquisitionMatrix": [96, 0, 0, 96],
      "AngioFlag": "N",
      "BitsAllocated": 16,
      "BitsStored": 12,
      "BodyPartExamined": "BRAIN",
      "Columns": 768,
      "EchoNumbers": 1,
      "EchoTime": 33.0,
      "EchoTrainLength": 96,
      "FlipAngle": 64.0,
      "HighBit": 11,
      "ImageOrientationPatient": [0.99989524509127, -0.0081340732149, 0.01197228870331, 0.00558447988446, 0.979910814741, 0.19935799140756],
      "ImagePositionPatient": [-968.47112610083, -947.043802053, -272.82883587421],
      "ImageType": [
        "ORIGINAL",
        "PRIMARY",
        "FMRI",
        "NONE",
        "ND",
        "NORM",
        "MOSAIC"
],
      "ImagedNucleus": "1H",
      "ImagingFrequency": 123.252357,
      "InPlanePhaseEncodingDirection": "COL",
      "MRAcquisitionType": "2D",
      "MagneticFieldStrength": 3.0,
      "Manufacturer": "SIEMENS",
      "ManufacturerModelName": "Prisma",
      "Modality": "MR",
      "NumberOfAverages": 1.0,
      "NumberOfPhaseEncodingSteps": 96,
      "PercentPhaseFieldOfView": 100.0,
      "PercentSampling": 100.0,
      "PerformedProcedureStepStartTime": "120812.665000",
      "PhotometricInterpretation": "MONOCHROME2",
      "PixelBandwidth": 2265.0,
      "PixelRepresentation": 0,
      "PixelSpacing": [2.5, 2.5],
      "PositionReferenceIndicator": "",
      "ProtocolName": "func_run-07_task-str1back",
      "RepetitionTime": 1250.0,
      "Rows": 768,
      "SAR": 0.05808462306814,
      "SamplesPerPixel": 1,
      "ScanOptions": "FS",
      "ScanningSequence": "EP",
      "SequenceName": "*epfid2d1_96",
      "SequenceVariant": "SK",
      "SeriesDescription": "func_run-07_task-str1back",
      "SeriesNumber": 50,
      "SeriesTime": "130949.870000",
      "SliceLocation": -65.682309000434,
      "SliceThickness": 2.5,
      "SmallestImagePixelValue": 0,
      "SoftwareVersions": "syngo MR E11",
      "SpacingBetweenSlices": 2.4999999533031,
      "SpecificCharacterSet": "ISO_IR 100",
      "StudyID": "3",
      "StudyTime": "120812.577000",
      "TransmitCoilName": "Body",
      "VariableFlipAngleFlag": "N",
      "WindowCenterWidthExplanation": "Algo1",
      "dBdt": 0.0},
    "slices": {}
  },
  "time": {
    "samples": {
      "AcquisitionNumber": [1, 2, 3, 4, 5, 6, 7, 8, 9, 10, 11, 12, 13, 14, 15, 16, 17, 18, 19, 20, 21, 22, 23, 24, 25, 26, 27, 28, 29, 30, 31, 32, 33, 34, 35, 36, 37, 38, 39, 40, 41, 42, 43, 44, 45, 46, 47, 48, 49, 50, 51, 52, 53, 54, 55, 56, 57, 58, 59, 60, 61, 62, 63, 64, 65, 66, 67, 68, 69, 70, 71, 72, 73, 74, 75, 76, 77, 78, 79, 80, 81, 82, 83, 84, 85, 86, 87, 88, 89, 90, 91, 92, 93, 94, 95, 96, 97, 98, 99, 100, 101, 102, 103, 104, 105, 106, 107, 108, 109, 110, 111, 112, 113, 114, 115, 116, 117, 118, 119, 120, 121, 122, 123, 124, 125, 126, 127, 128, 129, 130, 131, 132, 133, 134, 135, 136, 137, 138, 139, 140, 141, 142, 143, 144, 145, 146, 147, 148, 149, 150, 151, 152, 153, 154, 155, 156, 157, 158, 159, 160, 161, 162, 163, 164, 165, 166, 167, 168, 169, 170, 171, 172, 173, 174, 175, 176, 177, 178, 179, 180, 181, 182, 183, 184, 185, 186, 187, 188, 189, 190, 191, 192, 193, 194, 195, 196, 197, 198, 199, 200, 201, 202, 203, 204, 205, 206, 207, 208, 209, 210, 211, 212, 213, 214, 215, 216, 217, 218, 219, 220, 221, 222, 223, 224, 225, 226, 227, 228, 229, 230, 231, 232, 233, 234, 235, 236, 237, 238, 239, 240, 241, 242, 243, 244, 245, 246, 247, 248, 249, 250, 251, 252, 253, 254, 255, 256, 257, 258, 259, 260, 261, 262, 263, 264, 265, 266, 267, 268, 269, 270, 271, 272, 273, 274, 275, 276, 277, 278, 279, 280],
      "AcquisitionTime": ["130948.502500", "130949.752500", "130951.002500", "130952.252500", "130953.502500", "130954.752500", "130956.002500", "130957.252500", "130958.502500", "130959.752500", "131001.002500", "131002.252500", "131003.502500", "131004.752500", "131006.002500", "131007.252500", "131008.502500", "131009.752500", "131011.002500", "131012.252500", "131013.502500", "131014.752500", "131016.002500", "131017.252500", "131018.502500", "131019.752500", "131021.002500", "131022.252500", "131023.502500", "131024.752500", "131026.002500", "131027.252500", "131028.502500", "131029.752500", "131031.002500", "131032.252500", "131033.502500", "131034.752500", "131036.002500", "131037.252500", "131038.502500", "131039.752500", "131041.002500", "131042.252500", "131043.502500", "131044.752500", "131046.002500", "131047.252500", "131048.502500", "131049.752500", "131051.002500", "131052.252500", "131053.502500", "131054.752500", "131056.002500", "131057.252500", "131058.502500", "131059.752500", "131101.002500", "131102.252500", "131103.502500", "131104.752500", "131106.002500", "131107.252500", "131108.502500", "131109.752500", "131111.002500", "131112.252500", "131113.502500", "131114.752500", "131116.002500", "131117.252500", "131118.502500", "131119.752500", "131121.002500", "131122.252500", "131123.502500", "131124.752500", "131126.002500", "131127.252500", "131128.502500", "131129.752500", "131131.002500", "131132.252500", "131133.502500", "131134.752500", "131136.002500", "131137.252500", "131138.502500", "131139.752500", "131141.002500", "131142.252500", "131143.502500", "131144.752500", "131146.002500", "131147.252500", "131148.502500", "131149.752500", "131151.002500", "131152.252500", "131153.502500", "131154.752500", "131156.002500", "131157.252500", "131158.502500", "131159.752500", "131201.002500", "131202.252500", "131203.502500", "131204.752500", "131206.002500", "131207.252500", "131208.502500", "131209.752500", "131211.002500", "131212.252500", "131213.502500", "131214.752500", "131216.002500", "131217.252500", "131218.502500", "131219.752500", "131221.002500", "131222.252500", "131223.502500", "131224.752500", "131226.002500", "131227.252500", "131228.502500", "131229.752500", "131231.002500", "131232.252500", "131233.502500", "131234.752500", "131236.002500", "131237.252500", "131238.502500", "131239.752500", "131241.002500", "131242.252500", "131243.502500", "131244.752500", "131246.002500", "131247.252500", "131248.502500", "131249.752500", "131251.002500", "131252.252500", "131253.502500", "131254.752500", "131256.002500", "131257.252500", "131258.502500", "131259.752500", "131301.002500", "131302.252500", "131303.502500", "131304.752500", "131306.002500", "131307.252500", "131308.502500", "131309.752500", "131311.002500", "131312.252500", "131313.502500", "131314.752500", "131316.002500", "131317.252500", "131318.502500", "131319.752500", "131321.002500", "131322.252500", "131323.502500", "131324.752500", "131326.002500", "131327.252500", "131328.502500", "131329.752500", "131331.002500", "131332.252500", "131333.502500", "131334.752500", "131336.002500", "131337.252500", "131338.502500", "131339.752500", "131341.002500", "131342.252500", "131343.502500", "131344.752500", "131346.002500", "131347.252500", "131348.502500", "131349.752500", "131351.002500", "131352.252500", "131353.502500", "131354.752500", "131356.002500", "131357.252500", "131358.502500", "131359.752500", "131401.002500", "131402.252500", "131403.502500", "131404.752500", "131406.002500", "131407.252500", "131408.502500", "131409.752500", "131411.002500", "131412.252500", "131413.502500", "131414.752500", "131416.002500", "131417.252500", "131418.502500", "131419.752500", "131421.002500", "131422.252500", "131423.502500", "131424.752500", "131426.002500", "131427.252500", "131428.502500", "131429.752500", "131431.002500", "131432.252500", "131433.502500", "131434.752500", "131436.002500", "131437.252500", "131438.502500", "131439.752500", "131441.002500", "131442.252500", "131443.502500", "131444.752500", "131446.002500", "131447.252500", "131448.502500", "131449.752500", "131451.002500", "131452.252500", "131453.502500", "131454.752500", "131456.002500", "131457.252500", "131458.502500", "131459.752500", "131501.002500", "131502.252500", "131503.502500", "131504.752500", "131506.002500", "131507.252500", "131508.502500", "131509.752500", "131511.002500", "131512.252500", "131513.502500", "131514.752500", "131516.002500", "131517.252500", "131518.502500", "131519.752500", "131521.002500", "131522.252500", "131523.502500", "131524.752500", "131526.002500", "131527.252500", "131528.502500", "131529.752500", "131531.002500", "131532.252500", "131533.502500", "131534.752500", "131536.002500", "131537.252500"],
      "ContentTime": ["130949.874000", "130950.879000", "130952.131000", "130953.351000", "130954.606000", "130955.869000", "130957.115000", "130958.369000", "130959.621000", "131000.878000", "131002.150000", "131003.372000", "131004.619000", "131005.851000", "131007.110000", "131008.368000", "131009.604000", "131010.872000", "131012.101000", "131013.369000", "131014.621000", "131015.855000", "131017.116000", "131018.349000", "131019.630000", "131020.907000", "131022.110000", "131023.384000", "131024.614000", "131025.864000", "131027.109000", "131028.366000", "131029.628000", "131030.887000", "131032.135000", "131033.376000", "131034.616000", "131035.883000", "131037.133000", "131038.366000", "131039.615000", "131040.860000", "131042.110000", "131043.376000", "131044.614000", "131045.857000", "131047.103000", "131048.383000", "131049.623000", "131050.887000", "131052.131000", "131053.358000", "131054.607000", "131055.862000", "131057.123000", "131058.353000", "131059.652000", "131100.871000", "131102.115000", "131103.352000", "131104.621000", "131105.885000", "131107.119000", "131108.366000", "131109.628000", "131110.856000", "131112.138000", "131113.369000", "131114.618000", "131115.872000", "131117.118000", "131118.388000", "131119.611000", "131120.950000", "131122.108000", "131123.373000", "131124.679000", "131125.871000", "131127.129000", "131128.371000", "131129.616000", "131130.871000", "131132.112000", "131133.375000", "131134.607000", "131135.865000", "131137.098000", "131138.357000", "131139.626000", "131140.875000", "131142.120000", "131143.353000", "131144.618000", "131145.873000", "131147.125000", "131148.374000", "131149.616000", "131150.893000", "131152.109000", "131153.364000", "131154.638000", "131155.873000", "131157.126000", "131158.360000", "131159.631000", "131200.872000", "131202.151000", "131203.397000", "131204.624000", "131205.870000", "131207.146000", "131208.426000", "131209.625000", "131210.886000", "131212.111000", "131213.399000", "131214.647000", "131215.889000", "131217.139000", "131218.388000", "131219.641000", "131220.907000", "131222.137000", "131223.390000", "131224.637000", "131225.858000", "131227.146000", "131228.367000", "131229.629000", "131230.898000", "131232.190000", "131233.390000", "131234.614000", "131235.876000", "131237.159000", "131238.411000", "131239.613000", "131240.876000", "131242.133000", "131243.377000", "131244.653000", "131245.914000", "131247.135000", "131248.375000", "131249.624000", "131250.879000", "131252.130000", "131253.366000", "131254.620000", "131255.902000", "131257.123000", "131258.355000", "131259.636000", "131300.870000", "131302.126000", "131303.387000", "131304.622000", "131305.878000", "131307.179000", "131308.380000", "131309.625000", "131310.873000", "131312.132000", "131313.383000", "131314.625000", "131315.876000", "131317.129000", "131318.381000", "131319.634000", "131320.877000", "131322.126000", "131323.359000", "131324.634000", "131325.854000", "131327.124000", "131328.372000", "131329.670000", "131330.886000", "131332.191000", "131333.385000", "131334.630000", "131335.900000", "131337.113000", "131338.450000", "131339.633000", "131340.882000", "131342.153000", "131343.370000", "131344.616000", "131345.881000", "131347.149000", "131348.363000", "131349.667000", "131350.880000", "131352.129000", "131353.390000", "131354.630000", "131355.854000", "131357.130000", "131358.360000", "131359.623000", "131400.883000", "131402.139000", "131403.376000", "131404.645000", "131405.879000", "131407.120000", "131408.395000", "131409.628000", "131410.877000", "131412.132000", "131413.369000", "131414.640000", "131415.927000", "131417.150000", "131418.366000", "131419.702000", "131420.882000", "131422.191000", "131423.389000", "131424.641000", "131425.886000", "131427.121000", "131428.371000", "131429.622000", "131430.866000", "131432.130000", "131433.372000", "131434.614000", "131435.874000", "131437.135000", "131438.378000", "131439.617000", "131440.878000", "131442.146000", "131443.360000", "131444.639000", "131445.862000", "131447.140000", "131448.432000", "131449.625000", "131450.875000", "131452.139000", "131453.384000", "131454.646000", "131455.889000", "131457.131000", "131458.366000", "131459.690000", "131500.899000", "131502.122000", "131503.428000", "131504.659000", "131505.883000", "131507.118000", "131508.380000", "131509.645000", "131510.877000", "131512.095000", "131513.380000", "131514.630000", "131515.841000", "131517.133000", "131518.372000", "131519.618000", "131520.892000", "131522.128000", "131523.387000", "131524.632000", "131525.873000", "131527.130000", "131528.377000", "131529.625000", "131530.887000", "131532.113000", "131533.377000", "131534.619000", "131535.884000", "131537.145000", "131538.417000"],
      "InstanceCreationTime": ["130949.874000", "130950.879000", "130952.131000", "130953.351000", "130954.606000", "130955.869000", "130957.115000", "130958.369000", "130959.621000", "131000.878000", "131002.150000", "131003.372000", "131004.619000", "131005.851000", "131007.110000", "131008.368000", "131009.604000", "131010.872000", "131012.101000", "131013.369000", "131014.621000", "131015.855000", "131017.116000", "131018.349000", "131019.630000", "131020.907000", "131022.110000", "131023.384000", "131024.614000", "131025.864000", "131027.109000", "131028.366000", "131029.628000", "131030.887000", "131032.135000", "131033.376000", "131034.616000", "131035.883000", "131037.133000", "131038.366000", "131039.615000", "131040.860000", "131042.110000", "131043.376000", "131044.614000", "131045.857000", "131047.103000", "131048.383000", "131049.623000", "131050.887000", "131052.131000", "131053.358000", "131054.607000", "131055.862000", "131057.123000", "131058.353000", "131059.652000", "131100.871000", "131102.115000", "131103.352000", "131104.621000", "131105.885000", "131107.119000", "131108.366000", "131109.628000", "131110.856000", "131112.138000", "131113.369000", "131114.618000", "131115.872000", "131117.118000", "131118.388000", "131119.611000", "131120.950000", "131122.108000", "131123.373000", "131124.679000", "131125.871000", "131127.129000", "131128.371000", "131129.616000", "131130.871000", "131132.112000", "131133.375000", "131134.607000", "131135.865000", "131137.098000", "131138.357000", "131139.626000", "131140.875000", "131142.120000", "131143.353000", "131144.618000", "131145.873000", "131147.125000", "131148.374000", "131149.616000", "131150.893000", "131152.109000", "131153.364000", "131154.638000", "131155.873000", "131157.126000", "131158.360000", "131159.631000", "131200.872000", "131202.151000", "131203.397000", "131204.624000", "131205.870000", "131207.146000", "131208.426000", "131209.625000", "131210.886000", "131212.111000", "131213.399000", "131214.647000", "131215.889000", "131217.139000", "131218.388000", "131219.641000", "131220.907000", "131222.137000", "131223.390000", "131224.637000", "131225.858000", "131227.146000", "131228.367000", "131229.629000", "131230.898000", "131232.190000", "131233.390000", "131234.614000", "131235.876000", "131237.159000", "131238.411000", "131239.613000", "131240.876000", "131242.133000", "131243.377000", "131244.653000", "131245.914000", "131247.135000", "131248.375000", "131249.624000", "131250.879000", "131252.130000", "131253.366000", "131254.620000", "131255.902000", "131257.123000", "131258.355000", "131259.636000", "131300.870000", "131302.126000", "131303.387000", "131304.622000", "131305.878000", "131307.179000", "131308.380000", "131309.625000", "131310.873000", "131312.132000", "131313.383000", "131314.625000", "131315.876000", "131317.129000", "131318.381000", "131319.634000", "131320.877000", "131322.126000", "131323.359000", "131324.634000", "131325.854000", "131327.124000", "131328.372000", "131329.670000", "131330.886000", "131332.191000", "131333.385000", "131334.630000", "131335.900000", "131337.113000", "131338.450000", "131339.633000", "131340.882000", "131342.153000", "131343.370000", "131344.616000", "131345.881000", "131347.149000", "131348.363000", "131349.667000", "131350.880000", "131352.129000", "131353.390000", "131354.630000", "131355.854000", "131357.130000", "131358.360000", "131359.623000", "131400.883000", "131402.139000", "131403.376000", "131404.645000", "131405.879000", "131407.120000", "131408.395000", "131409.628000", "131410.877000", "131412.132000", "131413.369000", "131414.640000", "131415.927000", "131417.150000", "131418.366000", "131419.702000", "131420.882000", "131422.191000", "131423.389000", "131424.641000", "131425.886000", "131427.121000", "131428.371000", "131429.622000", "131430.866000", "131432.130000", "131433.372000", "131434.614000", "131435.874000", "131437.135000", "131438.378000", "131439.617000", "131440.878000", "131442.146000", "131443.360000", "131444.639000", "131445.862000", "131447.140000", "131448.432000", "131449.625000", "131450.875000", "131452.139000", "131453.384000", "131454.646000", "131455.889000", "131457.131000", "131458.366000", "131459.690000", "131500.899000", "131502.122000", "131503.428000", "131504.659000", "131505.883000", "131507.118000", "131508.380000", "131509.645000", "131510.877000", "131512.095000", "131513.380000", "131514.630000", "131515.841000", "131517.133000", "131518.372000", "131519.618000", "131520.892000", "131522.128000", "131523.387000", "131524.632000", "131525.873000", "131527.130000", "131528.377000", "131529.625000", "131530.887000", "131532.113000", "131533.377000", "131534.619000", "131535.884000", "131537.145000", "131538.417000"],
      "InstanceNumber": [1, 2, 3, 4, 5, 6, 7, 8, 9, 10, 11, 12, 13, 14, 15, 16, 17, 18, 19, 20, 21, 22, 23, 24, 25, 26, 27, 28, 29, 30, 31, 32, 33, 34, 35, 36, 37, 38, 39, 40, 41, 42, 43, 44, 45, 46, 47, 48, 49, 50, 51, 52, 53, 54, 55, 56, 57, 58, 59, 60, 61, 62, 63, 64, 65, 66, 67, 68, 69, 70, 71, 72, 73, 74, 75, 76, 77, 78, 79, 80, 81, 82, 83, 84, 85, 86, 87, 88, 89, 90, 91, 92, 93, 94, 95, 96, 97, 98, 99, 100, 101, 102, 103, 104, 105, 106, 107, 108, 109, 110, 111, 112, 113, 114, 115, 116, 117, 118, 119, 120, 121, 122, 123, 124, 125, 126, 127, 128, 129, 130, 131, 132, 133, 134, 135, 136, 137, 138, 139, 140, 141, 142, 143, 144, 145, 146, 147, 148, 149, 150, 151, 152, 153, 154, 155, 156, 157, 158, 159, 160, 161, 162, 163, 164, 165, 166, 167, 168, 169, 170, 171, 172, 173, 174, 175, 176, 177, 178, 179, 180, 181, 182, 183, 184, 185, 186, 187, 188, 189, 190, 191, 192, 193, 194, 195, 196, 197, 198, 199, 200, 201, 202, 203, 204, 205, 206, 207, 208, 209, 210, 211, 212, 213, 214, 215, 216, 217, 218, 219, 220, 221, 222, 223, 224, 225, 226, 227, 228, 229, 230, 231, 232, 233, 234, 235, 236, 237, 238, 239, 240, 241, 242, 243, 244, 245, 246, 247, 248, 249, 250, 251, 252, 253, 254, 255, 256, 257, 258, 259, 260, 261, 262, 263, 264, 265, 266, 267, 268, 269, 270, 271, 272, 273, 274, 275, 276, 277, 278, 279, 280],
      "LargestImagePixelValue": [1296, 1486, 1060, 921, 1114, 1253, 946, 971, 1201, 1289, 1380, 977, 919, 1179, 1010, 1341, 988, 969, 949, 1000, 1470, 1035, 991, 1273, 1223, 1001, 993, 1039, 1373, 950, 1146, 1339, 956, 1021, 1168, 1191, 963, 994, 1338, 982, 951, 1289, 1129, 980, 1050, 1072, 901, 905, 1120, 1285, 909, 1244, 955, 914, 1231, 1302, 1055, 1301, 1024, 1185, 1393, 912, 954, 1312, 1009, 923, 1142, 1076, 1258, 902, 1093, 1450, 951, 966, 1147, 1270, 963, 933, 1201, 970, 927, 1138, 1105, 903, 1209, 1185, 949, 938, 1242, 1050, 895, 1492, 1162, 1114, 1257, 1104, 922, 1036, 1089, 952, 944, 995, 1187, 1040, 920, 1046, 1188, 1114, 963, 955, 950, 1191, 1168, 1216, 1205, 1027, 1352, 990, 905, 1309, 1184, 1310, 1237, 883, 976, 1021, 1081, 926, 985, 1162, 1338, 935, 990, 1303, 1273, 920, 896, 931, 1016, 937, 902, 951, 1228, 1310, 1064, 1217, 1000, 1117, 1476, 1106, 997, 1418, 1243, 906, 924, 1197, 1279, 939, 1040, 1035, 990, 1248, 1023, 868, 989, 1114, 965, 928, 1062, 1424, 1007, 906, 1199, 1278, 929, 1032, 1015, 1282, 949, 895, 1283, 1268, 993, 945, 946, 1094, 1285, 933, 940, 967, 1207, 1383, 909, 1096, 1249, 1198, 1034, 915, 985, 1342, 986, 1026, 1024, 1018, 1293, 1113, 920, 1232, 1240, 945, 890, 1009, 1276, 1261, 1016, 921, 990, 1153, 1187, 1088, 947, 1120, 1245, 1148, 1104, 1232, 1086, 1221, 1037, 1056, 1238, 1184, 1009, 981, 917, 1112, 959, 1085, 872, 1266, 1086, 970, 1079, 1299, 1034, 1108, 1382, 1225, 1066, 1328, 1152, 1015, 941, 1251, 983, 907, 1209, 1114, 974, 1278, 1068, 1087, 1024, 868, 1039, 917, 1155, 1347, 1098, 982, 1268, 1360, 994, 898, 953, 1134, 1149, 1026, 1003, 888],
      "WindowCenter": [410.0, 410.0, 406.0, 405.0, 407.0, 409.0, 406.0, 406.0, 408.0, 408.0, 408.0, 405.0, 405.0, 407.0, 406.0, 409.0, 406.0, 406.0, 406.0, 407.0, 411.0, 407.0, 406.0, 408.0, 408.0, 406.0, 405.0, 406.0, 409.0, 405.0, 407.0, 408.0, 405.0, 405.0, 407.0, 407.0, 405.0, 406.0, 408.0, 405.0, 405.0, 408.0, 407.0, 405.0, 406.0, 406.0, 404.0, 405.0, 407.0, 408.0, 405.0, 408.0, 406.0, 405.0, 409.0, 409.0, 407.0, 407.0, 405.0, 406.0, 408.0, 405.0, 405.0, 408.0, 406.0, 404.0, 406.0, 405.0, 407.0, 403.0, 406.0, 408.0, 404.0, 404.0, 405.0, 406.0, 404.0, 404.0, 406.0, 405.0, 404.0, 407.0, 406.0, 404.0, 407.0, 407.0, 405.0, 405.0, 409.0, 407.0, 406.0, 411.0, 408.0, 407.0, 407.0, 405.0, 404.0, 406.0, 406.0, 405.0, 404.0, 405.0, 407.0, 405.0, 404.0, 405.0, 405.0, 405.0, 404.0, 405.0, 406.0, 409.0, 407.0, 407.0, 406.0, 406.0, 409.0, 406.0, 404.0, 407.0, 407.0, 407.0, 406.0, 402.0, 403.0, 403.0, 404.0, 403.0, 404.0, 407.0, 408.0, 404.0, 404.0, 405.0, 405.0, 402.0, 401.0, 402.0, 403.0, 403.0, 405.0, 406.0, 408.0, 408.0, 405.0, 406.0, 403.0, 404.0, 407.0, 405.0, 404.0, 408.0, 406.0, 403.0, 403.0, 405.0, 405.0, 403.0, 403.0, 402.0, 402.0, 404.0, 402.0, 402.0, 404.0, 405.0, 404.0, 403.0, 405.0, 408.0, 404.0, 404.0, 407.0, 408.0, 404.0, 405.0, 406.0, 408.0, 405.0, 404.0, 408.0, 406.0, 405.0, 403.0, 404.0, 405.0, 406.0, 404.0, 405.0, 405.0, 407.0, 408.0, 403.0, 405.0, 406.0, 405.0, 403.0, 403.0, 403.0, 407.0, 405.0, 405.0, 406.0, 406.0, 407.0, 406.0, 402.0, 405.0, 405.0, 402.0, 402.0, 402.0, 404.0, 404.0, 401.0, 401.0, 402.0, 404.0, 404.0, 403.0, 401.0, 403.0, 405.0, 405.0, 406.0, 407.0, 405.0, 405.0, 403.0, 402.0, 403.0, 403.0, 401.0, 401.0, 401.0, 404.0, 402.0, 403.0, 402.0, 407.0, 406.0, 405.0, 407.0, 407.0, 404.0, 406.0, 407.0, 406.0, 404.0, 405.0, 403.0, 402.0, 402.0, 405.0, 402.0, 402.0, 405.0, 405.0, 403.0, 405.0, 402.0, 402.0, 402.0, 402.0, 406.0, 404.0, 406.0, 406.0, 404.0, 403.0, 405.0, 406.0, 402.0, 401.0, 402.0, 404.0, 403.0, 402.0, 402.0, 401.0],
      "WindowWidth": [868.0, 866.0, 861.0, 858.0, 862.0, 864.0, 860.0, 861.0, 863.0, 863.0, 863.0, 859.0, 858.0, 862.0, 859.0, 864.0, 860.0, 860.0, 860.0, 862.0, 868.0, 862.0, 861.0, 864.0, 863.0, 860.0, 859.0, 860.0, 864.0, 859.0, 862.0, 863.0, 859.0, 859.0, 861.0, 861.0, 858.0, 860.0, 863.0, 859.0, 858.0, 862.0, 861.0, 858.0, 860.0, 860.0, 858.0, 858.0, 862.0, 863.0, 858.0, 862.0, 860.0, 859.0, 865.0, 865.0, 861.0, 862.0, 857.0, 859.0, 862.0, 858.0, 859.0, 864.0, 860.0, 857.0, 860.0, 859.0, 861.0, 855.0, 860.0, 863.0, 856.0, 856.0, 858.0, 860.0, 856.0, 856.0, 860.0, 858.0, 857.0, 861.0, 860.0, 857.0, 862.0, 862.0, 859.0, 859.0, 864.0, 862.0, 861.0, 867.0, 863.0, 861.0, 862.0, 859.0, 857.0, 859.0, 859.0, 858.0, 857.0, 857.0, 860.0, 859.0, 857.0, 858.0, 858.0, 858.0, 857.0, 859.0, 861.0, 864.0, 862.0, 861.0, 860.0, 860.0, 864.0, 859.0, 856.0, 860.0, 861.0, 861.0, 859.0, 853.0, 854.0, 855.0, 855.0, 855.0, 857.0, 860.0, 862.0, 857.0, 856.0, 858.0, 857.0, 852.0, 851.0, 852.0, 853.0, 855.0, 859.0, 861.0, 863.0, 862.0, 857.0, 859.0, 855.0, 855.0, 861.0, 858.0, 856.0, 863.0, 859.0, 855.0, 854.0, 857.0, 858.0, 854.0, 854.0, 853.0, 852.0, 855.0, 852.0, 852.0, 856.0, 857.0, 856.0, 855.0, 858.0, 862.0, 856.0, 856.0, 862.0, 863.0, 857.0, 857.0, 859.0, 863.0, 859.0, 858.0, 862.0, 859.0, 857.0, 854.0, 857.0, 857.0, 859.0, 857.0, 858.0, 859.0, 860.0, 863.0, 855.0, 857.0, 859.0, 858.0, 855.0, 854.0, 855.0, 861.0, 858.0, 858.0, 859.0, 860.0, 861.0, 859.0, 854.0, 857.0, 857.0, 853.0, 852.0, 853.0, 856.0, 855.0, 851.0, 851.0, 853.0, 855.0, 855.0, 853.0, 850.0, 854.0, 857.0, 858.0, 859.0, 860.0, 857.0, 857.0, 854.0, 853.0, 854.0, 853.0, 850.0, 851.0, 851.0, 855.0, 852.0, 854.0, 852.0, 860.0, 859.0, 859.0, 860.0, 861.0, 857.0, 859.0, 860.0, 859.0, 855.0, 856.0, 854.0, 853.0, 852.0, 857.0, 853.0, 852.0, 857.0, 857.0, 853.0, 856.0, 852.0, 852.0, 852.0, 853.0, 859.0, 857.0, 859.0, 859.0, 856.0, 854.0, 857.0, 858.0, 852.0, 850.0, 852.0, 855.0, 854.0, 852.0, 852.0, 850.0]
    },
    "slices": {}
  }
}