{
  "AcquisitionMatrixPE": 96,
  "AcquisitionNumber": 1,
  "AcquisitionTime": "13:35:38.532500",
  "BandwidthPerPixelPhaseEncode": 18.939,
  "BaseResolution": 96,
  "BodyPartExamined": "BRAIN",
  "ConsistencyInfo": "N4_VE11C_LATEST_20160120",
  "ConversionSoftware": "dcm2niix",
  "ConversionSoftwareVersion": "v1.0.20170923 (OpenJPEG build) GCC6.3.0",
  "DerivedVendorReportedEchoSpacing": 0.000550011,
  "DeviceSerialNumber": "66112",
  "DwellTime": 2.3e-06,
  "EchoTime": 0.033,
  "EchoTrainLength": 96,
  "EffectiveEchoSpacing": 0.000550011,
  "FlipAngle": 64,
  "ImageType": [
    "ORIGINAL",
    "PRIMARY",
    "FMRI",
    "NONE",
    "ND",
    "NORM",
    "MOSAIC"
],
  "InstitutionAddress": "Maynard_3_Hanover_NH_US_03755",
  "InstitutionName": "Dartmouth_College_-_PBS",
  "MagneticFieldStrength": 3,
  "Manufacturer": "Siemens",
  "ManufacturersModelName": "Prisma",
  "Modality": "MR",
  "MultibandAccelerationFactor": 4,
  "PartialFourier": 1,
  "PercentPhaseFOV": 100,
  "PhaseEncodingDirection": "j-",
  "PhaseEncodingSteps": 96,
  "PhaseResolution": 1,
  "ProcedureStepDescription": "Gobbini_Matteo_1017_famface-angles",
  "ProtocolName": "func_run-11_task-fam1back",
  "PulseSequenceDetails": "%SiemensSeq%_ep2d_bold",
  "ReceiveCoilActiveElements": "HEA;HEP",
  "ReceiveCoilName": "Head_32",
  "ReconMatrixPE": 96,
  "RepetitionTime": 1.25,
  "ScanOptions": "FS",
  "ScanningSequence": "EP",
  "SequenceName": "_epfid2d1_96",
  "SequenceVariant": "SK",
  "SeriesDescription": "func_run-11_task-fam1back",
  "SliceTiming": [0.88, 0, 0.615, 0.09, 0.705, 0.1775, 0.7925, 0.3525, 0.9675, 0.44, 1.055, 0.5275, 1.1425, 0.265, 0.88, 0, 0.615, 0.09, 0.705, 0.1775, 0.7925, 0.3525, 0.9675, 0.44, 1.055, 0.5275, 1.1425, 0.265, 0.88, 0, 0.615, 0.09, 0.705, 0.1775, 0.7925, 0.3525, 0.9675, 0.44, 1.055, 0.5275, 1.1425, 0.265, 0.88, 0, 0.615, 0.09, 0.705, 0.1775, 0.7925, 0.3525, 0.9675, 0.44, 1.055, 0.5275, 1.1425, 0.265],
  "SoftwareVersions": "syngo_MR_E11",
  "StationName": "AWP66112",
  "TaskName": "fam1back",
  "TotalReadoutTime": 0.0522511,
  "dcmmeta_affine": [
    [-2.4997382164001465, 0.013961199671030045, 0.03338341787457466, 122.54183959960938],
    [0.020335182547569275, 2.449777126312256, 0.49817562103271484, -101.97747802734375],
    [0.0299307219684124, -0.4983949661254883, 2.449633836746216, -47.9638786315918],
    [0.0, 0.0, 0.0, 1.0]
],
  "dcmmeta_reorient_transform": [
    [0.0, -1.0, 0.0, 95.0],
    [1.0, 0.0, 0.0, 0.0],
    [0.0, 0.0, 1.0, 0.0],
    [0.0, 0.0, 0.0, 1.0]
],
  "dcmmeta_shape": [96, 96, 56, 280],
  "dcmmeta_slice_dim": 2,
  "dcmmeta_version": 0.6,
  "global": {
    "const": {
      "AccessionNumber": "A000285",
      "AcquisitionMatrix": [96, 0, 0, 96],
      "AngioFlag": "N",
      "BitsAllocated": 16,
      "BitsStored": 12,
      "BodyPartExamined": "BRAIN",
      "Columns": 768,
      "EchoNumbers": 1,
      "EchoTime": 33.0,
      "EchoTrainLength": 96,
      "FlipAngle": 64.0,
      "HighBit": 11,
      "ImageOrientationPatient": [0.99989524509127, -0.0081340732149, 0.01197228870331, 0.00558447988446, 0.979910814741, 0.19935799140756],
      "ImagePositionPatient": [-968.47112610083, -947.043802053, -272.82883587421],
      "ImageType": [
        "ORIGINAL",
        "PRIMARY",
        "FMRI",
        "NONE",
        "ND",
        "NORM",
        "MOSAIC"
],
      "ImagedNucleus": "1H",
      "ImagingFrequency": 123.252361,
      "InPlanePhaseEncodingDirection": "COL",
      "MRAcquisitionType": "2D",
      "MagneticFieldStrength": 3.0,
      "Manufacturer": "SIEMENS",
      "ManufacturerModelName": "Prisma",
      "Modality": "MR",
      "NumberOfAverages": 1.0,
      "NumberOfPhaseEncodingSteps": 96,
      "PercentPhaseFieldOfView": 100.0,
      "PercentSampling": 100.0,
      "PerformedProcedureStepStartTime": "120812.665000",
      "PhotometricInterpretation": "MONOCHROME2",
      "PixelBandwidth": 2265.0,
      "PixelRepresentation": 0,
      "PixelSpacing": [2.5, 2.5],
      "PositionReferenceIndicator": "",
      "ProtocolName": "func_run-11_task-fam1back",
      "RepetitionTime": 1250.0,
      "Rows": 768,
      "SAR": 0.05808462306814,
      "SamplesPerPixel": 1,
      "ScanOptions": "FS",
      "ScanningSequence": "EP",
      "SequenceName": "*epfid2d1_96",
      "SequenceVariant": "SK",
      "SeriesDescription": "func_run-11_task-fam1back",
      "SeriesNumber": 78,
      "SeriesTime": "133539.799000",
      "SliceLocation": -65.682309000434,
      "SliceThickness": 2.5,
      "SmallestImagePixelValue": 0,
      "SoftwareVersions": "syngo MR E11",
      "SpacingBetweenSlices": 2.4999999533031,
      "SpecificCharacterSet": "ISO_IR 100",
      "StudyID": "3",
      "StudyTime": "120812.577000",
      "TransmitCoilName": "Body",
      "VariableFlipAngleFlag": "N",
      "WindowCenterWidthExplanation": "Algo1",
      "dBdt": 0.0},
    "slices": {}
  },
  "time": {
    "samples": {
      "AcquisitionNumber": [1, 2, 3, 4, 5, 6, 7, 8, 9, 10, 11, 12, 13, 14, 15, 16, 17, 18, 19, 20, 21, 22, 23, 24, 25, 26, 27, 28, 29, 30, 31, 32, 33, 34, 35, 36, 37, 38, 39, 40, 41, 42, 43, 44, 45, 46, 47, 48, 49, 50, 51, 52, 53, 54, 55, 56, 57, 58, 59, 60, 61, 62, 63, 64, 65, 66, 67, 68, 69, 70, 71, 72, 73, 74, 75, 76, 77, 78, 79, 80, 81, 82, 83, 84, 85, 86, 87, 88, 89, 90, 91, 92, 93, 94, 95, 96, 97, 98, 99, 100, 101, 102, 103, 104, 105, 106, 107, 108, 109, 110, 111, 112, 113, 114, 115, 116, 117, 118, 119, 120, 121, 122, 123, 124, 125, 126, 127, 128, 129, 130, 131, 132, 133, 134, 135, 136, 137, 138, 139, 140, 141, 142, 143, 144, 145, 146, 147, 148, 149, 150, 151, 152, 153, 154, 155, 156, 157, 158, 159, 160, 161, 162, 163, 164, 165, 166, 167, 168, 169, 170, 171, 172, 173, 174, 175, 176, 177, 178, 179, 180, 181, 182, 183, 184, 185, 186, 187, 188, 189, 190, 191, 192, 193, 194, 195, 196, 197, 198, 199, 200, 201, 202, 203, 204, 205, 206, 207, 208, 209, 210, 211, 212, 213, 214, 215, 216, 217, 218, 219, 220, 221, 222, 223, 224, 225, 226, 227, 228, 229, 230, 231, 232, 233, 234, 235, 236, 237, 238, 239, 240, 241, 242, 243, 244, 245, 246, 247, 248, 249, 250, 251, 252, 253, 254, 255, 256, 257, 258, 259, 260, 261, 262, 263, 264, 265, 266, 267, 268, 269, 270, 271, 272, 273, 274, 275, 276, 277, 278, 279, 280],
      "AcquisitionTime": ["133538.532500", "133539.782500", "133541.032500", "133542.282500", "133543.532500", "133544.782500", "133546.032500", "133547.282500", "133548.532500", "133549.782500", "133551.032500", "133552.282500", "133553.532500", "133554.782500", "133556.032500", "133557.282500", "133558.532500", "133559.782500", "133601.032500", "133602.282500", "133603.532500", "133604.782500", "133606.032500", "133607.282500", "133608.532500", "133609.782500", "133611.032500", "133612.282500", "133613.532500", "133614.782500", "133616.032500", "133617.282500", "133618.532500", "133619.782500", "133621.032500", "133622.282500", "133623.532500", "133624.782500", "133626.032500", "133627.282500", "133628.532500", "133629.782500", "133631.032500", "133632.282500", "133633.532500", "133634.782500", "133636.032500", "133637.282500", "133638.532500", "133639.782500", "133641.032500", "133642.282500", "133643.532500", "133644.782500", "133646.032500", "133647.282500", "133648.532500", "133649.782500", "133651.032500", "133652.282500", "133653.532500", "133654.782500", "133656.032500", "133657.282500", "133658.532500", "133659.782500", "133701.032500", "133702.282500", "133703.532500", "133704.782500", "133706.032500", "133707.282500", "133708.532500", "133709.782500", "133711.032500", "133712.282500", "133713.532500", "133714.782500", "133716.032500", "133717.282500", "133718.532500", "133719.782500", "133721.032500", "133722.282500", "133723.532500", "133724.782500", "133726.032500", "133727.282500", "133728.532500", "133729.782500", "133731.032500", "133732.282500", "133733.532500", "133734.782500", "133736.032500", "133737.282500", "133738.532500", "133739.782500", "133741.032500", "133742.282500", "133743.532500", "133744.782500", "133746.032500", "133747.282500", "133748.532500", "133749.782500", "133751.032500", "133752.282500", "133753.532500", "133754.782500", "133756.032500", "133757.282500", "133758.532500", "133759.782500", "133801.032500", "133802.282500", "133803.532500", "133804.782500", "133806.032500", "133807.282500", "133808.532500", "133809.782500", "133811.032500", "133812.282500", "133813.532500", "133814.782500", "133816.032500", "133817.282500", "133818.532500", "133819.782500", "133821.032500", "133822.282500", "133823.532500", "133824.782500", "133826.032500", "133827.282500", "133828.532500", "133829.782500", "133831.032500", "133832.282500", "133833.532500", "133834.782500", "133836.032500", "133837.282500", "133838.532500", "133839.782500", "133841.032500", "133842.282500", "133843.532500", "133844.782500", "133846.032500", "133847.282500", "133848.532500", "133849.782500", "133851.032500", "133852.282500", "133853.532500", "133854.782500", "133856.032500", "133857.282500", "133858.532500", "133859.782500", "133901.032500", "133902.282500", "133903.532500", "133904.782500", "133906.032500", "133907.282500", "133908.532500", "133909.782500", "133911.032500", "133912.282500", "133913.532500", "133914.782500", "133916.032500", "133917.282500", "133918.532500", "133919.782500", "133921.032500", "133922.282500", "133923.532500", "133924.782500", "133926.032500", "133927.282500", "133928.532500", "133929.782500", "133931.032500", "133932.282500", "133933.532500", "133934.782500", "133936.032500", "133937.282500", "133938.532500", "133939.782500", "133941.032500", "133942.282500", "133943.532500", "133944.782500", "133946.032500", "133947.282500", "133948.532500", "133949.782500", "133951.032500", "133952.282500", "133953.532500", "133954.782500", "133956.032500", "133957.282500", "133958.532500", "133959.782500", "134001.032500", "134002.282500", "134003.532500", "134004.782500", "134006.032500", "134007.282500", "134008.532500", "134009.782500", "134011.032500", "134012.282500", "134013.532500", "134014.782500", "134016.032500", "134017.282500", "134018.532500", "134019.782500", "134021.032500", "134022.282500", "134023.532500", "134024.782500", "134026.032500", "134027.282500", "134028.532500", "134029.782500", "134031.032500", "134032.282500", "134033.532500", "134034.782500", "134036.032500", "134037.282500", "134038.532500", "134039.782500", "134041.032500", "134042.282500", "134043.532500", "134044.782500", "134046.032500", "134047.282500", "134048.532500", "134049.782500", "134051.032500", "134052.282500", "134053.532500", "134054.782500", "134056.032500", "134057.282500", "134058.532500", "134059.782500", "134101.032500", "134102.282500", "134103.532500", "134104.782500", "134106.032500", "134107.282500", "134108.532500", "134109.782500", "134111.032500", "134112.282500", "134113.532500", "134114.782500", "134116.032500", "134117.282500", "134118.532500", "134119.782500", "134121.032500", "134122.282500", "134123.532500", "134124.782500", "134126.032500", "134127.282500"],
      "ContentTime": ["133539.803000", "133540.886000", "133542.120000", "133543.367000", "133544.628000", "133545.930000", "133547.114000", "133548.351000", "133549.607000", "133550.850000", "133552.103000", "133553.408000", "133554.609000", "133555.871000", "133557.097000", "133558.367000", "133559.640000", "133600.856000", "133602.118000", "133603.358000", "133604.663000", "133605.871000", "133607.117000", "133608.353000", "133609.614000", "133610.884000", "133612.098000", "133613.375000", "133614.606000", "133615.872000", "133617.123000", "133618.359000", "133619.618000", "133620.906000", "133622.124000", "133623.354000", "133624.614000", "133625.860000", "133627.107000", "133628.370000", "133629.598000", "133630.859000", "133632.114000", "133633.352000", "133634.631000", "133635.865000", "133637.113000", "133638.401000", "133639.624000", "133640.867000", "133642.122000", "133643.369000", "133644.650000", "133645.846000", "133647.113000", "133648.362000", "133649.619000", "133650.899000", "133652.121000", "133653.371000", "133654.617000", "133655.851000", "133657.114000", "133658.368000", "133659.618000", "133700.878000", "133702.116000", "133703.368000", "133704.612000", "133705.863000", "133707.114000", "133708.372000", "133709.599000", "133710.854000", "133712.112000", "133713.386000", "133714.611000", "133715.845000", "133717.121000", "133718.351000", "133719.608000", "133720.880000", "133722.101000", "133723.360000", "133724.632000", "133725.869000", "133727.109000", "133728.370000", "133729.591000", "133730.856000", "133732.106000", "133733.377000", "133734.611000", "133735.859000", "133737.128000", "133738.370000", "133739.596000", "133740.907000", "133742.094000", "133743.360000", "133744.616000", "133745.868000", "133747.114000", "133748.359000", "133749.613000", "133750.941000", "133752.116000", "133753.382000", "133754.622000", "133755.857000", "133757.108000", "133758.402000", "133759.628000", "133800.872000", "133802.123000", "133803.456000", "133804.633000", "133805.870000", "133807.105000", "133808.378000", "133809.613000", "133810.877000", "133812.142000", "133813.379000", "133814.617000", "133815.869000", "133817.147000", "133818.378000", "133819.620000", "133820.882000", "133822.145000", "133823.372000", "133824.650000", "133825.861000", "133827.138000", "133828.363000", "133829.635000", "133830.891000", "133832.118000", "133833.380000", "133834.626000", "133835.874000", "133837.124000", "133838.369000", "133839.616000", "133840.879000", "133842.120000", "133843.411000", "133844.626000", "133845.881000", "133847.135000", "133848.389000", "133849.617000", "133850.868000", "133852.121000", "133853.363000", "133854.619000", "133855.882000", "133857.121000", "133858.370000", "133859.627000", "133900.874000", "133902.122000", "133903.365000", "133904.611000", "133905.899000", "133907.125000", "133908.391000", "133909.617000", "133910.882000", "133912.115000", "133913.362000", "133914.631000", "133915.862000", "133917.108000", "133918.406000", "133919.627000", "133920.947000", "133922.116000", "133923.404000", "133924.611000", "133925.869000", "133927.110000", "133928.365000", "133929.614000", "133930.869000", "133932.142000", "133933.353000", "133934.613000", "133935.860000", "133937.161000", "133938.446000", "133939.629000", "133940.950000", "133942.116000", "133943.374000", "133944.615000", "133945.885000", "133947.125000", "133948.428000", "133949.628000", "133950.877000", "133952.117000", "133953.356000", "133954.650000", "133955.871000", "133957.100000", "133958.365000", "133959.617000", "134000.868000", "134002.114000", "134003.387000", "134004.626000", "134005.875000", "134007.123000", "134008.374000", "134009.672000", "134010.873000", "134012.115000", "134013.378000", "134014.626000", "134015.867000", "134017.114000", "134018.370000", "134019.622000", "134020.870000", "134022.119000", "134023.351000", "134024.606000", "134025.897000", "134027.116000", "134028.380000", "134029.671000", "134030.862000", "134032.127000", "134033.377000", "134034.642000", "134035.897000", "134037.129000", "134038.368000", "134039.619000", "134040.868000", "134042.115000", "134043.341000", "134044.623000", "134045.866000", "134047.120000", "134048.371000", "134049.612000", "134050.871000", "134052.138000", "134053.400000", "134054.631000", "134055.891000", "134057.160000", "134058.391000", "134059.683000", "134100.885000", "134102.139000", "134103.366000", "134104.626000", "134105.859000", "134107.111000", "134108.369000", "134109.614000", "134110.888000", "134112.128000", "134113.376000", "134114.624000", "134115.857000", "134117.127000", "134118.353000", "134119.623000", "134120.867000", "134122.118000", "134123.370000", "134124.609000", "134125.869000", "134127.115000", "134128.397000"],
      "InstanceCreationTime": ["133539.803000", "133540.886000", "133542.120000", "133543.367000", "133544.628000", "133545.930000", "133547.114000", "133548.351000", "133549.607000", "133550.850000", "133552.103000", "133553.408000", "133554.609000", "133555.871000", "133557.097000", "133558.367000", "133559.640000", "133600.856000", "133602.118000", "133603.358000", "133604.663000", "133605.871000", "133607.117000", "133608.353000", "133609.614000", "133610.884000", "133612.098000", "133613.375000", "133614.606000", "133615.872000", "133617.123000", "133618.359000", "133619.618000", "133620.906000", "133622.124000", "133623.354000", "133624.614000", "133625.860000", "133627.107000", "133628.370000", "133629.598000", "133630.859000", "133632.114000", "133633.352000", "133634.631000", "133635.865000", "133637.113000", "133638.401000", "133639.624000", "133640.867000", "133642.122000", "133643.369000", "133644.650000", "133645.846000", "133647.113000", "133648.362000", "133649.619000", "133650.899000", "133652.121000", "133653.371000", "133654.617000", "133655.851000", "133657.114000", "133658.368000", "133659.618000", "133700.878000", "133702.116000", "133703.368000", "133704.612000", "133705.863000", "133707.114000", "133708.372000", "133709.599000", "133710.854000", "133712.112000", "133713.386000", "133714.611000", "133715.845000", "133717.121000", "133718.351000", "133719.608000", "133720.880000", "133722.101000", "133723.360000", "133724.632000", "133725.869000", "133727.109000", "133728.370000", "133729.591000", "133730.856000", "133732.106000", "133733.377000", "133734.611000", "133735.859000", "133737.128000", "133738.370000", "133739.596000", "133740.907000", "133742.094000", "133743.360000", "133744.616000", "133745.868000", "133747.114000", "133748.359000", "133749.613000", "133750.941000", "133752.116000", "133753.382000", "133754.622000", "133755.857000", "133757.108000", "133758.402000", "133759.628000", "133800.872000", "133802.123000", "133803.456000", "133804.633000", "133805.870000", "133807.105000", "133808.378000", "133809.613000", "133810.877000", "133812.142000", "133813.379000", "133814.617000", "133815.869000", "133817.147000", "133818.378000", "133819.620000", "133820.882000", "133822.145000", "133823.372000", "133824.650000", "133825.861000", "133827.138000", "133828.363000", "133829.635000", "133830.891000", "133832.118000", "133833.380000", "133834.626000", "133835.874000", "133837.124000", "133838.369000", "133839.616000", "133840.879000", "133842.120000", "133843.411000", "133844.626000", "133845.881000", "133847.135000", "133848.389000", "133849.617000", "133850.868000", "133852.121000", "133853.363000", "133854.619000", "133855.882000", "133857.121000", "133858.370000", "133859.627000", "133900.874000", "133902.122000", "133903.365000", "133904.611000", "133905.899000", "133907.125000", "133908.391000", "133909.617000", "133910.882000", "133912.115000", "133913.362000", "133914.631000", "133915.862000", "133917.108000", "133918.406000", "133919.627000", "133920.947000", "133922.116000", "133923.404000", "133924.611000", "133925.869000", "133927.110000", "133928.365000", "133929.614000", "133930.869000", "133932.142000", "133933.353000", "133934.613000", "133935.860000", "133937.161000", "133938.446000", "133939.629000", "133940.950000", "133942.116000", "133943.374000", "133944.615000", "133945.885000", "133947.125000", "133948.428000", "133949.628000", "133950.877000", "133952.117000", "133953.356000", "133954.650000", "133955.871000", "133957.100000", "133958.365000", "133959.617000", "134000.868000", "134002.114000", "134003.387000", "134004.626000", "134005.875000", "134007.123000", "134008.374000", "134009.672000", "134010.873000", "134012.115000", "134013.378000", "134014.626000", "134015.867000", "134017.114000", "134018.370000", "134019.622000", "134020.870000", "134022.119000", "134023.351000", "134024.606000", "134025.897000", "134027.116000", "134028.380000", "134029.671000", "134030.862000", "134032.127000", "134033.377000", "134034.642000", "134035.897000", "134037.129000", "134038.368000", "134039.619000", "134040.868000", "134042.115000", "134043.341000", "134044.623000", "134045.866000", "134047.120000", "134048.371000", "134049.612000", "134050.871000", "134052.138000", "134053.400000", "134054.631000", "134055.891000", "134057.160000", "134058.391000", "134059.683000", "134100.885000", "134102.139000", "134103.366000", "134104.626000", "134105.859000", "134107.111000", "134108.369000", "134109.614000", "134110.888000", "134112.128000", "134113.376000", "134114.624000", "134115.857000", "134117.127000", "134118.353000", "134119.623000", "134120.867000", "134122.118000", "134123.370000", "134124.609000", "134125.869000", "134127.115000", "134128.397000"],
      "InstanceNumber": [1, 2, 3, 4, 5, 6, 7, 8, 9, 10, 11, 12, 13, 14, 15, 16, 17, 18, 19, 20, 21, 22, 23, 24, 25, 26, 27, 28, 29, 30, 31, 32, 33, 34, 35, 36, 37, 38, 39, 40, 41, 42, 43, 44, 45, 46, 47, 48, 49, 50, 51, 52, 53, 54, 55, 56, 57, 58, 59, 60, 61, 62, 63, 64, 65, 66, 67, 68, 69, 70, 71, 72, 73, 74, 75, 76, 77, 78, 79, 80, 81, 82, 83, 84, 85, 86, 87, 88, 89, 90, 91, 92, 93, 94, 95, 96, 97, 98, 99, 100, 101, 102, 103, 104, 105, 106, 107, 108, 109, 110, 111, 112, 113, 114, 115, 116, 117, 118, 119, 120, 121, 122, 123, 124, 125, 126, 127, 128, 129, 130, 131, 132, 133, 134, 135, 136, 137, 138, 139, 140, 141, 142, 143, 144, 145, 146, 147, 148, 149, 150, 151, 152, 153, 154, 155, 156, 157, 158, 159, 160, 161, 162, 163, 164, 165, 166, 167, 168, 169, 170, 171, 172, 173, 174, 175, 176, 177, 178, 179, 180, 181, 182, 183, 184, 185, 186, 187, 188, 189, 190, 191, 192, 193, 194, 195, 196, 197, 198, 199, 200, 201, 202, 203, 204, 205, 206, 207, 208, 209, 210, 211, 212, 213, 214, 215, 216, 217, 218, 219, 220, 221, 222, 223, 224, 225, 226, 227, 228, 229, 230, 231, 232, 233, 234, 235, 236, 237, 238, 239, 240, 241, 242, 243, 244, 245, 246, 247, 248, 249, 250, 251, 252, 253, 254, 255, 256, 257, 258, 259, 260, 261, 262, 263, 264, 265, 266, 267, 268, 269, 270, 271, 272, 273, 274, 275, 276, 277, 278, 279, 280],
      "LargestImagePixelValue": [1310, 1326, 1003, 1236, 1433, 1190, 1124, 992, 1053, 1321, 1072, 921, 1229, 1260, 1377, 1150, 913, 1203, 1203, 952, 1088, 1062, 1240, 1155, 908, 971, 973, 1243, 1046, 854, 1174, 1405, 990, 865, 1206, 1178, 939, 1285, 1177, 1354, 1032, 1286, 1081, 1003, 930, 1064, 971, 1294, 1055, 1162, 926, 1237, 1129, 909, 995, 1198, 1081, 903, 1235, 1212, 1095, 964, 903, 1065, 989, 980, 1179, 986, 912, 943, 1155, 938, 980, 884, 921, 1233, 1041, 938, 1224, 1245, 1229, 1098, 916, 1095, 1120, 1167, 1325, 967, 870, 1130, 1180, 986, 940, 900, 983, 1050, 943, 885, 1159, 1290, 1235, 935, 997, 1166, 1208, 1025, 903, 1196, 1155, 932, 936, 1163, 1248, 1223, 963, 890, 1091, 1221, 1115, 924, 1020, 1174, 1344, 1019, 921, 1228, 1220, 1021, 862, 971, 1462, 1032, 915, 1054, 1137, 989, 887, 878, 1011, 1125, 1201, 866, 909, 1035, 1319, 1299, 950, 955, 1145, 1287, 1236, 889, 974, 1087, 1154, 1039, 957, 929, 979, 1053, 1157, 1209, 1287, 1241, 1366, 1329, 1254, 1139, 1039, 984, 939, 1131, 955, 910, 951, 948, 956, 892, 955, 1128, 900, 936, 1337, 1050, 943, 1294, 925, 915, 973, 1422, 1055, 866, 1114, 1411, 937, 896, 1085, 940, 912, 983, 1223, 1133, 952, 871, 960, 982, 981, 1033, 1290, 1425, 1316, 1097, 1391, 1278, 899, 899, 1337, 950, 864, 1356, 1512, 1083, 894, 1358, 1297, 1001, 962, 1315, 910, 919, 917, 985, 870, 1265, 1188, 1049, 927, 1338, 1378, 930, 1007, 1315, 1346, 1020, 970, 944, 1391, 932, 945, 899, 928, 1356, 1229, 1204, 1361, 1474, 946, 922, 950, 1041, 935, 922, 1002, 1319, 1143, 984, 1142, 1331, 1392, 1043, 886, 1183, 1274, 1126, 1382, 933, 886, 982, 1046, 942],
      "WindowCenter": [410.0, 409.0, 405.0, 407.0, 408.0, 406.0, 406.0, 405.0, 406.0, 407.0, 406.0, 404.0, 406.0, 407.0, 407.0, 405.0, 403.0, 406.0, 406.0, 404.0, 405.0, 405.0, 406.0, 404.0, 402.0, 403.0, 404.0, 406.0, 404.0, 402.0, 406.0, 407.0, 404.0, 403.0, 405.0, 405.0, 403.0, 406.0, 406.0, 407.0, 404.0, 404.0, 403.0, 403.0, 402.0, 404.0, 403.0, 405.0, 403.0, 403.0, 402.0, 404.0, 404.0, 402.0, 403.0, 405.0, 404.0, 403.0, 405.0, 405.0, 403.0, 402.0, 401.0, 403.0, 403.0, 404.0, 405.0, 403.0, 402.0, 402.0, 405.0, 403.0, 404.0, 403.0, 404.0, 407.0, 406.0, 405.0, 406.0, 406.0, 406.0, 406.0, 404.0, 405.0, 405.0, 405.0, 405.0, 402.0, 402.0, 404.0, 404.0, 402.0, 402.0, 402.0, 403.0, 405.0, 404.0, 403.0, 406.0, 407.0, 406.0, 403.0, 404.0, 405.0, 405.0, 404.0, 402.0, 406.0, 405.0, 403.0, 403.0, 405.0, 406.0, 406.0, 404.0, 402.0, 404.0, 406.0, 405.0, 403.0, 404.0, 405.0, 405.0, 402.0, 401.0, 403.0, 403.0, 401.0, 400.0, 401.0, 405.0, 402.0, 401.0, 402.0, 404.0, 403.0, 401.0, 401.0, 404.0, 406.0, 406.0, 404.0, 404.0, 405.0, 407.0, 407.0, 404.0, 404.0, 405.0, 405.0, 405.0, 402.0, 403.0, 403.0, 403.0, 402.0, 402.0, 403.0, 405.0, 406.0, 406.0, 405.0, 405.0, 405.0, 404.0, 404.0, 403.0, 402.0, 401.0, 399.0, 400.0, 402.0, 400.0, 401.0, 401.0, 401.0, 403.0, 403.0, 404.0, 406.0, 404.0, 405.0, 408.0, 405.0, 404.0, 407.0, 405.0, 405.0, 406.0, 408.0, 405.0, 402.0, 405.0, 407.0, 403.0, 404.0, 406.0, 405.0, 405.0, 405.0, 408.0, 407.0, 405.0, 404.0, 406.0, 407.0, 407.0, 408.0, 409.0, 410.0, 408.0, 406.0, 409.0, 408.0, 404.0, 404.0, 408.0, 405.0, 404.0, 408.0, 409.0, 405.0, 403.0, 406.0, 405.0, 403.0, 402.0, 405.0, 402.0, 403.0, 403.0, 405.0, 404.0, 408.0, 408.0, 407.0, 405.0, 407.0, 408.0, 404.0, 405.0, 407.0, 407.0, 403.0, 403.0, 403.0, 407.0, 403.0, 404.0, 404.0, 405.0, 409.0, 408.0, 407.0, 407.0, 407.0, 403.0, 403.0, 404.0, 405.0, 405.0, 405.0, 406.0, 409.0, 407.0, 406.0, 406.0, 407.0, 407.0, 404.0, 402.0, 405.0, 405.0, 404.0, 406.0, 402.0, 402.0, 403.0, 404.0, 404.0],
      "WindowWidth": [868.0, 864.0, 859.0, 861.0, 863.0, 860.0, 859.0, 858.0, 859.0, 861.0, 859.0, 856.0, 859.0, 860.0, 861.0, 858.0, 855.0, 859.0, 859.0, 857.0, 857.0, 857.0, 858.0, 856.0, 854.0, 855.0, 855.0, 859.0, 856.0, 854.0, 858.0, 861.0, 857.0, 854.0, 858.0, 858.0, 854.0, 858.0, 859.0, 860.0, 855.0, 856.0, 854.0, 854.0, 854.0, 856.0, 854.0, 857.0, 853.0, 854.0, 852.0, 856.0, 855.0, 853.0, 855.0, 857.0, 856.0, 854.0, 857.0, 857.0, 854.0, 852.0, 851.0, 854.0, 854.0, 855.0, 858.0, 854.0, 853.0, 853.0, 857.0, 855.0, 856.0, 855.0, 857.0, 861.0, 859.0, 857.0, 860.0, 860.0, 860.0, 860.0, 856.0, 858.0, 858.0, 857.0, 858.0, 853.0, 852.0, 855.0, 856.0, 853.0, 853.0, 852.0, 854.0, 857.0, 856.0, 855.0, 860.0, 861.0, 860.0, 854.0, 855.0, 858.0, 858.0, 856.0, 854.0, 858.0, 857.0, 855.0, 854.0, 856.0, 859.0, 859.0, 855.0, 854.0, 856.0, 858.0, 857.0, 855.0, 856.0, 857.0, 857.0, 852.0, 851.0, 853.0, 854.0, 851.0, 849.0, 851.0, 856.0, 852.0, 850.0, 852.0, 855.0, 854.0, 852.0, 851.0, 856.0, 859.0, 860.0, 857.0, 856.0, 858.0, 860.0, 860.0, 856.0, 856.0, 857.0, 856.0, 856.0, 852.0, 854.0, 854.0, 853.0, 852.0, 853.0, 854.0, 857.0, 860.0, 859.0, 858.0, 857.0, 856.0, 856.0, 854.0, 852.0, 851.0, 850.0, 848.0, 848.0, 851.0, 849.0, 850.0, 851.0, 851.0, 855.0, 855.0, 856.0, 858.0, 856.0, 858.0, 863.0, 858.0, 856.0, 861.0, 858.0, 858.0, 859.0, 862.0, 858.0, 853.0, 858.0, 861.0, 855.0, 856.0, 859.0, 858.0, 859.0, 859.0, 862.0, 861.0, 857.0, 857.0, 860.0, 861.0, 861.0, 863.0, 865.0, 865.0, 863.0, 860.0, 864.0, 862.0, 856.0, 856.0, 862.0, 858.0, 856.0, 862.0, 863.0, 858.0, 854.0, 859.0, 858.0, 855.0, 853.0, 857.0, 853.0, 854.0, 855.0, 857.0, 856.0, 862.0, 863.0, 861.0, 858.0, 861.0, 862.0, 857.0, 858.0, 860.0, 860.0, 855.0, 854.0, 854.0, 860.0, 855.0, 855.0, 857.0, 859.0, 864.0, 862.0, 860.0, 860.0, 860.0, 855.0, 855.0, 856.0, 859.0, 859.0, 858.0, 860.0, 864.0, 862.0, 859.0, 859.0, 860.0, 861.0, 857.0, 854.0, 857.0, 857.0, 855.0, 858.0, 852.0, 852.0, 854.0, 856.0, 857.0]
    },
    "slices": {}
  }
}