{
  "AcquisitionMatrixPE": 96,
  "AcquisitionNumber": 1,
  "AcquisitionTime": "14:21:4.585000",
  "BandwidthPerPixelPhaseEncode": 18.939,
  "BaseResolution": 96,
  "BodyPartExamined": "BRAIN",
  "ConsistencyInfo": "N4_VE11C_LATEST_20160120",
  "ConversionSoftware": "dcm2niix",
  "ConversionSoftwareVersion": "v1.0.20170923 (OpenJPEG build) GCC6.3.0",
  "DerivedVendorReportedEchoSpacing": 0.000550011,
  "DeviceSerialNumber": "66112",
  "DwellTime": 2.3e-06,
  "EchoTime": 0.033,
  "EchoTrainLength": 96,
  "EffectiveEchoSpacing": 0.000550011,
  "FlipAngle": 64,
  "ImageType": [
    "ORIGINAL",
    "PRIMARY",
    "FMRI",
    "NONE",
    "ND",
    "NORM",
    "MOSAIC"
],
  "InstitutionAddress": "Maynard_3_Hanover_NH_US_03755",
  "InstitutionName": "Dartmouth_College_-_PBS",
  "MagneticFieldStrength": 3,
  "Manufacturer": "Siemens",
  "ManufacturersModelName": "Prisma",
  "Modality": "MR",
  "MultibandAccelerationFactor": 4,
  "PartialFourier": 1,
  "PercentPhaseFOV": 100,
  "PhaseEncodingDirection": "j-",
  "PhaseEncodingSteps": 96,
  "PhaseResolution": 1,
  "ProcedureStepDescription": "Gobbini_Matteo_1017_famface-angles",
  "ProtocolName": "func_run-11_task-str1back",
  "PulseSequenceDetails": "%SiemensSeq%_ep2d_bold",
  "ReceiveCoilActiveElements": "HEA;HEP",
  "ReceiveCoilName": "Head_32",
  "ReconMatrixPE": 96,
  "RepetitionTime": 1.25,
  "ScanOptions": "FS",
  "ScanningSequence": "EP",
  "SequenceName": "_epfid2d1_96",
  "SequenceVariant": "SK",
  "SeriesDescription": "func_run-11_task-str1back",
  "SliceTiming": [0.8775, 0, 0.615, 0.0875, 0.7025, 0.175, 0.79, 0.35, 0.965, 0.4375, 1.0525, 0.5275, 1.14, 0.2625, 0.8775, 0, 0.615, 0.0875, 0.7025, 0.175, 0.79, 0.35, 0.965, 0.4375, 1.0525, 0.5275, 1.14, 0.2625, 0.8775, 0, 0.615, 0.0875, 0.7025, 0.175, 0.79, 0.35, 0.965, 0.4375, 1.0525, 0.5275, 1.14, 0.2625, 0.8775, 0, 0.615, 0.0875, 0.7025, 0.175, 0.79, 0.35, 0.965, 0.4375, 1.0525, 0.5275, 1.14, 0.2625],
  "SoftwareVersions": "syngo_MR_E11",
  "StationName": "AWP66112",
  "TaskName": "str1back",
  "TotalReadoutTime": 0.0522511,
  "dcmmeta_affine": [
    [-2.4965059757232666, -0.11030954867601395, 0.07272693514823914, 125.37613677978516],
    [-0.10929466784000397, 2.4973485469818115, 0.03611592575907707, -87.86357116699219],
    [0.07424338161945343, -0.03288598731160164, 2.498680830001831, -96.88872528076172],
    [0.0, 0.0, 0.0, 1.0]
],
  "dcmmeta_reorient_transform": [
    [0.0, -1.0, 0.0, 95.0],
    [1.0, 0.0, 0.0, 0.0],
    [0.0, 0.0, 1.0, 0.0],
    [0.0, 0.0, 0.0, 1.0]
],
  "dcmmeta_shape": [96, 96, 56, 280],
  "dcmmeta_slice_dim": 2,
  "dcmmeta_version": 0.6,
  "global": {
    "const": {
      "AccessionNumber": "A000292",
      "AcquisitionMatrix": [96, 0, 0, 96],
      "AngioFlag": "N",
      "BitsAllocated": 16,
      "BitsStored": 12,
      "BodyPartExamined": "BRAIN",
      "Columns": 768,
      "EchoNumbers": 1,
      "EchoTime": 33.0,
      "EchoTrainLength": 96,
      "FlipAngle": 64.0,
      "HighBit": 11,
      "ImageOrientationPatient": [0.99860243100896, 0.04371786858416, 0.02969735256651, -0.0441238209245, 0.99893946280054, 0.01315439420059],
      "ImagePositionPatient": [-916.65876331425, -1025.2167089057, -136.00835865911],
      "ImageType": [
        "ORIGINAL",
        "PRIMARY",
        "FMRI",
        "NONE",
        "ND",
        "NORM",
        "MOSAIC"
],
      "ImagedNucleus": "1H",
      "ImagingFrequency": 123.252403,
      "InPlanePhaseEncodingDirection": "COL",
      "MRAcquisitionType": "2D",
      "MagneticFieldStrength": 3.0,
      "Manufacturer": "SIEMENS",
      "ManufacturerModelName": "Prisma",
      "Modality": "MR",
      "NumberOfAverages": 1.0,
      "NumberOfPhaseEncodingSteps": 96,
      "PercentPhaseFieldOfView": 100.0,
      "PercentSampling": 100.0,
      "PerformedProcedureStepStartTime": "130608.788000",
      "PhotometricInterpretation": "MONOCHROME2",
      "PixelBandwidth": 2265.0,
      "PixelRepresentation": 0,
      "PixelSpacing": [2.5, 2.5],
      "PositionReferenceIndicator": "",
      "ProtocolName": "func_run-11_task-str1back",
      "RepetitionTime": 1250.0,
      "Rows": 768,
      "SAR": 0.05730802403629,
      "SamplesPerPixel": 1,
      "ScanOptions": "FS",
      "ScanningSequence": "EP",
      "SequenceName": "*epfid2d1_96",
      "SequenceVariant": "SK",
      "SeriesDescription": "func_run-11_task-str1back",
      "SeriesNumber": 78,
      "SeriesTime": "142105.699000",
      "SliceLocation": -94.459622534146,
      "SliceThickness": 2.5,
      "SmallestImagePixelValue": 0,
      "SoftwareVersions": "syngo MR E11",
      "SpacingBetweenSlices": 2.4999999391591,
      "SpecificCharacterSet": "ISO_IR 100",
      "StudyID": "2",
      "StudyTime": "130608.736000",
      "TransmitCoilName": "Body",
      "VariableFlipAngleFlag": "N",
      "WindowCenterWidthExplanation": "Algo1",
      "dBdt": 0.0},
    "slices": {}
  },
  "time": {
    "samples": {
      "AcquisitionNumber": [1, 2, 3, 4, 5, 6, 7, 8, 9, 10, 11, 12, 13, 14, 15, 16, 17, 18, 19, 20, 21, 22, 23, 24, 25, 26, 27, 28, 29, 30, 31, 32, 33, 34, 35, 36, 37, 38, 39, 40, 41, 42, 43, 44, 45, 46, 47, 48, 49, 50, 51, 52, 53, 54, 55, 56, 57, 58, 59, 60, 61, 62, 63, 64, 65, 66, 67, 68, 69, 70, 71, 72, 73, 74, 75, 76, 77, 78, 79, 80, 81, 82, 83, 84, 85, 86, 87, 88, 89, 90, 91, 92, 93, 94, 95, 96, 97, 98, 99, 100, 101, 102, 103, 104, 105, 106, 107, 108, 109, 110, 111, 112, 113, 114, 115, 116, 117, 118, 119, 120, 121, 122, 123, 124, 125, 126, 127, 128, 129, 130, 131, 132, 133, 134, 135, 136, 137, 138, 139, 140, 141, 142, 143, 144, 145, 146, 147, 148, 149, 150, 151, 152, 153, 154, 155, 156, 157, 158, 159, 160, 161, 162, 163, 164, 165, 166, 167, 168, 169, 170, 171, 172, 173, 174, 175, 176, 177, 178, 179, 180, 181, 182, 183, 184, 185, 186, 187, 188, 189, 190, 191, 192, 193, 194, 195, 196, 197, 198, 199, 200, 201, 202, 203, 204, 205, 206, 207, 208, 209, 210, 211, 212, 213, 214, 215, 216, 217, 218, 219, 220, 221, 222, 223, 224, 225, 226, 227, 228, 229, 230, 231, 232, 233, 234, 235, 236, 237, 238, 239, 240, 241, 242, 243, 244, 245, 246, 247, 248, 249, 250, 251, 252, 253, 254, 255, 256, 257, 258, 259, 260, 261, 262, 263, 264, 265, 266, 267, 268, 269, 270, 271, 272, 273, 274, 275, 276, 277, 278, 279, 280],
      "AcquisitionTime": ["142104.585000", "142105.835000", "142107.085000", "142108.335000", "142109.585000", "142110.835000", "142112.085000", "142113.335000", "142114.585000", "142115.835000", "142117.085000", "142118.335000", "142119.585000", "142120.835000", "142122.085000", "142123.335000", "142124.585000", "142125.835000", "142127.085000", "142128.335000", "142129.585000", "142130.835000", "142132.085000", "142133.335000", "142134.585000", "142135.835000", "142137.085000", "142138.335000", "142139.585000", "142140.835000", "142142.085000", "142143.335000", "142144.585000", "142145.835000", "142147.085000", "142148.335000", "142149.585000", "142150.835000", "142152.085000", "142153.335000", "142154.585000", "142155.835000", "142157.085000", "142158.335000", "142159.585000", "142200.835000", "142202.085000", "142203.335000", "142204.585000", "142205.835000", "142207.085000", "142208.335000", "142209.585000", "142210.835000", "142212.085000", "142213.335000", "142214.585000", "142215.835000", "142217.085000", "142218.335000", "142219.585000", "142220.835000", "142222.085000", "142223.335000", "142224.585000", "142225.835000", "142227.085000", "142228.335000", "142229.585000", "142230.835000", "142232.085000", "142233.335000", "142234.585000", "142235.835000", "142237.085000", "142238.335000", "142239.585000", "142240.835000", "142242.085000", "142243.335000", "142244.585000", "142245.835000", "142247.085000", "142248.335000", "142249.585000", "142250.835000", "142252.085000", "142253.335000", "142254.585000", "142255.835000", "142257.085000", "142258.335000", "142259.585000", "142300.835000", "142302.085000", "142303.335000", "142304.585000", "142305.835000", "142307.085000", "142308.335000", "142309.585000", "142310.835000", "142312.085000", "142313.335000", "142314.585000", "142315.835000", "142317.085000", "142318.335000", "142319.585000", "142320.835000", "142322.085000", "142323.335000", "142324.585000", "142325.835000", "142327.085000", "142328.335000", "142329.585000", "142330.835000", "142332.085000", "142333.335000", "142334.585000", "142335.835000", "142337.085000", "142338.335000", "142339.585000", "142340.835000", "142342.085000", "142343.335000", "142344.585000", "142345.835000", "142347.085000", "142348.335000", "142349.585000", "142350.835000", "142352.085000", "142353.335000", "142354.585000", "142355.835000", "142357.085000", "142358.335000", "142359.585000", "142400.835000", "142402.085000", "142403.335000", "142404.585000", "142405.835000", "142407.085000", "142408.335000", "142409.585000", "142410.835000", "142412.085000", "142413.335000", "142414.585000", "142415.835000", "142417.085000", "142418.335000", "142419.585000", "142420.835000", "142422.085000", "142423.335000", "142424.585000", "142425.835000", "142427.085000", "142428.335000", "142429.585000", "142430.835000", "142432.085000", "142433.335000", "142434.585000", "142435.835000", "142437.085000", "142438.335000", "142439.585000", "142440.835000", "142442.085000", "142443.335000", "142444.585000", "142445.835000", "142447.085000", "142448.335000", "142449.585000", "142450.835000", "142452.085000", "142453.335000", "142454.585000", "142455.835000", "142457.085000", "142458.335000", "142459.585000", "142500.835000", "142502.085000", "142503.335000", "142504.585000", "142505.835000", "142507.085000", "142508.335000", "142509.585000", "142510.835000", "142512.085000", "142513.335000", "142514.585000", "142515.835000", "142517.085000", "142518.335000", "142519.585000", "142520.835000", "142522.085000", "142523.335000", "142524.585000", "142525.835000", "142527.085000", "142528.335000", "142529.585000", "142530.835000", "142532.085000", "142533.335000", "142534.585000", "142535.835000", "142537.085000", "142538.335000", "142539.585000", "142540.835000", "142542.085000", "142543.335000", "142544.585000", "142545.835000", "142547.085000", "142548.335000", "142549.585000", "142550.835000", "142552.085000", "142553.335000", "142554.585000", "142555.835000", "142557.085000", "142558.335000", "142559.585000", "142600.835000", "142602.085000", "142603.335000", "142604.585000", "142605.835000", "142607.085000", "142608.335000", "142609.585000", "142610.835000", "142612.085000", "142613.335000", "142614.585000", "142615.835000", "142617.085000", "142618.335000", "142619.585000", "142620.835000", "142622.085000", "142623.335000", "142624.585000", "142625.835000", "142627.085000", "142628.335000", "142629.585000", "142630.835000", "142632.085000", "142633.335000", "142634.585000", "142635.835000", "142637.085000", "142638.335000", "142639.585000", "142640.835000", "142642.085000", "142643.335000", "142644.585000", "142645.835000", "142647.085000", "142648.335000", "142649.585000", "142650.835000", "142652.085000", "142653.335000"],
      "ContentTime": ["142105.703000", "142106.757000", "142107.996000", "142109.263000", "142110.495000", "142111.804000", "142112.991000", "142114.259000", "142115.522000", "142116.778000", "142117.998000", "142119.348000", "142120.519000", "142121.739000", "142123.017000", "142124.293000", "142125.504000", "142126.776000", "142127.993000", "142129.264000", "142130.526000", "142131.757000", "142132.996000", "142134.267000", "142135.485000", "142136.796000", "142138.016000", "142139.259000", "142140.514000", "142141.761000", "142143.009000", "142144.249000", "142145.503000", "142146.723000", "142148.028000", "142149.267000", "142150.481000", "142151.761000", "142152.997000", "142154.293000", "142155.474000", "142156.756000", "142158.001000", "142159.253000", "142200.505000", "142201.749000", "142203.007000", "142204.257000", "142205.486000", "142206.759000", "142207.987000", "142209.251000", "142210.510000", "142211.791000", "142212.989000", "142214.326000", "142215.527000", "142216.767000", "142218.047000", "142219.248000", "142220.504000", "142221.750000", "142222.994000", "142224.275000", "142225.502000", "142226.753000", "142228.019000", "142229.253000", "142230.523000", "142231.748000", "142232.992000", "142234.241000", "142235.521000", "142236.781000", "142238.024000", "142239.295000", "142240.496000", "142241.745000", "142243.019000", "142244.265000", "142245.523000", "142246.727000", "142247.998000", "142249.228000", "142250.522000", "142251.742000", "142252.980000", "142254.258000", "142255.493000", "142256.751000", "142258.007000", "142259.200000", "142300.502000", "142301.736000", "142303.003000", "142304.248000", "142305.497000", "142306.742000", "142308.030000", "142309.241000", "142310.523000", "142311.759000", "142313.040000", "142314.280000", "142315.504000", "142316.754000", "142318.017000", "142319.230000", "142320.522000", "142321.760000", "142323.009000", "142324.261000", "142325.490000", "142326.756000", "142328.025000", "142329.250000", "142330.542000", "142331.771000", "142333.047000", "142334.265000", "142335.525000", "142336.792000", "142338.033000", "142339.266000", "142340.501000", "142341.784000", "142343.031000", "142344.284000", "142345.533000", "142346.785000", "142347.997000", "142349.253000", "142350.534000", "142351.773000", "142353.000000", "142354.282000", "142355.573000", "142356.766000", "142357.998000", "142359.259000", "142400.488000", "142401.761000", "142403.024000", "142404.287000", "142405.502000", "142406.769000", "142407.998000", "142409.268000", "142410.538000", "142411.791000", "142412.985000", "142414.235000", "142415.526000", "142416.745000", "142418.019000", "142419.261000", "142420.498000", "142421.794000", "142422.994000", "142424.189000", "142425.501000", "142426.765000", "142428.031000", "142429.306000", "142430.499000", "142431.765000", "142433.019000", "142434.234000", "142435.540000", "142436.744000", "142438.019000", "142439.285000", "142440.515000", "142441.775000", "142443.028000", "142444.299000", "142445.534000", "142446.748000", "142448.010000", "142449.306000", "142450.522000", "142451.781000", "142453.009000", "142454.278000", "142455.502000", "142456.798000", "142458.035000", "142459.285000", "142500.522000", "142501.786000", "142503.033000", "142504.243000", "142505.519000", "142506.724000", "142508.009000", "142509.252000", "142510.516000", "142511.756000", "142513.014000", "142514.267000", "142515.515000", "142516.760000", "142517.998000", "142519.271000", "142520.502000", "142521.764000", "142523.034000", "142524.263000", "142525.510000", "142526.762000", "142528.030000", "142529.242000", "142530.506000", "142531.773000", "142533.046000", "142534.277000", "142535.508000", "142536.745000", "142538.001000", "142539.291000", "142540.534000", "142541.778000", "142542.993000", "142544.304000", "142545.531000", "142546.745000", "142548.009000", "142549.263000", "142550.487000", "142551.760000", "142553.007000", "142554.248000", "142555.525000", "142556.789000", "142558.121000", "142559.241000", "142600.505000", "142601.763000", "142603.008000", "142604.250000", "142605.496000", "142606.766000", "142607.995000", "142609.265000", "142610.525000", "142611.770000", "142613.000000", "142614.274000", "142615.535000", "142616.768000", "142617.992000", "142619.257000", "142620.522000", "142621.755000", "142622.984000", "142624.290000", "142625.515000", "142626.787000", "142628.004000", "142629.301000", "142630.506000", "142631.761000", "142633.048000", "142634.302000", "142635.536000", "142636.799000", "142637.977000", "142639.268000", "142640.498000", "142641.757000", "142642.997000", "142644.273000", "142645.528000", "142646.722000", "142648.051000", "142649.274000", "142650.557000", "142651.739000", "142652.990000", "142654.306000"],
      "InstanceCreationTime": ["142105.703000", "142106.757000", "142107.996000", "142109.263000", "142110.495000", "142111.804000", "142112.991000", "142114.259000", "142115.522000", "142116.778000", "142117.998000", "142119.348000", "142120.519000", "142121.739000", "142123.017000", "142124.293000", "142125.504000", "142126.776000", "142127.993000", "142129.264000", "142130.526000", "142131.757000", "142132.996000", "142134.267000", "142135.485000", "142136.796000", "142138.016000", "142139.259000", "142140.514000", "142141.761000", "142143.009000", "142144.249000", "142145.503000", "142146.723000", "142148.028000", "142149.267000", "142150.481000", "142151.761000", "142152.997000", "142154.293000", "142155.474000", "142156.756000", "142158.001000", "142159.253000", "142200.505000", "142201.749000", "142203.007000", "142204.257000", "142205.486000", "142206.759000", "142207.987000", "142209.251000", "142210.510000", "142211.791000", "142212.989000", "142214.326000", "142215.527000", "142216.767000", "142218.047000", "142219.248000", "142220.504000", "142221.750000", "142222.994000", "142224.275000", "142225.502000", "142226.753000", "142228.019000", "142229.253000", "142230.523000", "142231.748000", "142232.992000", "142234.241000", "142235.521000", "142236.781000", "142238.024000", "142239.295000", "142240.496000", "142241.745000", "142243.019000", "142244.265000", "142245.523000", "142246.727000", "142247.998000", "142249.228000", "142250.522000", "142251.742000", "142252.980000", "142254.258000", "142255.493000", "142256.751000", "142258.007000", "142259.200000", "142300.502000", "142301.736000", "142303.003000", "142304.248000", "142305.497000", "142306.742000", "142308.030000", "142309.241000", "142310.523000", "142311.759000", "142313.040000", "142314.280000", "142315.504000", "142316.754000", "142318.017000", "142319.230000", "142320.522000", "142321.760000", "142323.009000", "142324.261000", "142325.490000", "142326.756000", "142328.025000", "142329.250000", "142330.542000", "142331.771000", "142333.047000", "142334.265000", "142335.525000", "142336.792000", "142338.033000", "142339.266000", "142340.501000", "142341.784000", "142343.031000", "142344.284000", "142345.533000", "142346.785000", "142347.997000", "142349.253000", "142350.534000", "142351.773000", "142353.000000", "142354.282000", "142355.573000", "142356.766000", "142357.998000", "142359.259000", "142400.488000", "142401.761000", "142403.024000", "142404.287000", "142405.502000", "142406.769000", "142407.998000", "142409.268000", "142410.538000", "142411.791000", "142412.985000", "142414.235000", "142415.526000", "142416.745000", "142418.019000", "142419.261000", "142420.498000", "142421.794000", "142422.994000", "142424.189000", "142425.501000", "142426.765000", "142428.031000", "142429.306000", "142430.499000", "142431.765000", "142433.019000", "142434.234000", "142435.540000", "142436.744000", "142438.019000", "142439.285000", "142440.515000", "142441.775000", "142443.028000", "142444.299000", "142445.534000", "142446.748000", "142448.010000", "142449.306000", "142450.522000", "142451.781000", "142453.009000", "142454.278000", "142455.502000", "142456.798000", "142458.035000", "142459.285000", "142500.522000", "142501.786000", "142503.033000", "142504.243000", "142505.519000", "142506.724000", "142508.009000", "142509.252000", "142510.516000", "142511.756000", "142513.014000", "142514.267000", "142515.515000", "142516.760000", "142517.998000", "142519.271000", "142520.502000", "142521.764000", "142523.034000", "142524.263000", "142525.510000", "142526.762000", "142528.030000", "142529.242000", "142530.506000", "142531.773000", "142533.046000", "142534.277000", "142535.508000", "142536.745000", "142538.001000", "142539.291000", "142540.534000", "142541.778000", "142542.993000", "142544.304000", "142545.531000", "142546.745000", "142548.009000", "142549.263000", "142550.487000", "142551.760000", "142553.007000", "142554.248000", "142555.525000", "142556.789000", "142558.121000", "142559.241000", "142600.505000", "142601.763000", "142603.008000", "142604.250000", "142605.496000", "142606.766000", "142607.995000", "142609.265000", "142610.525000", "142611.770000", "142613.000000", "142614.274000", "142615.535000", "142616.768000", "142617.992000", "142619.257000", "142620.522000", "142621.755000", "142622.984000", "142624.290000", "142625.515000", "142626.787000", "142628.004000", "142629.301000", "142630.506000", "142631.761000", "142633.048000", "142634.302000", "142635.536000", "142636.799000", "142637.977000", "142639.268000", "142640.498000", "142641.757000", "142642.997000", "142644.273000", "142645.528000", "142646.722000", "142648.051000", "142649.274000", "142650.557000", "142651.739000", "142652.990000", "142654.306000"],
      "InstanceNumber": [1, 2, 3, 4, 5, 6, 7, 8, 9, 10, 11, 12, 13, 14, 15, 16, 17, 18, 19, 20, 21, 22, 23, 24, 25, 26, 27, 28, 29, 30, 31, 32, 33, 34, 35, 36, 37, 38, 39, 40, 41, 42, 43, 44, 45, 46, 47, 48, 49, 50, 51, 52, 53, 54, 55, 56, 57, 58, 59, 60, 61, 62, 63, 64, 65, 66, 67, 68, 69, 70, 71, 72, 73, 74, 75, 76, 77, 78, 79, 80, 81, 82, 83, 84, 85, 86, 87, 88, 89, 90, 91, 92, 93, 94, 95, 96, 97, 98, 99, 100, 101, 102, 103, 104, 105, 106, 107, 108, 109, 110, 111, 112, 113, 114, 115, 116, 117, 118, 119, 120, 121, 122, 123, 124, 125, 126, 127, 128, 129, 130, 131, 132, 133, 134, 135, 136, 137, 138, 139, 140, 141, 142, 143, 144, 145, 146, 147, 148, 149, 150, 151, 152, 153, 154, 155, 156, 157, 158, 159, 160, 161, 162, 163, 164, 165, 166, 167, 168, 169, 170, 171, 172, 173, 174, 175, 176, 177, 178, 179, 180, 181, 182, 183, 184, 185, 186, 187, 188, 189, 190, 191, 192, 193, 194, 195, 196, 197, 198, 199, 200, 201, 202, 203, 204, 205, 206, 207, 208, 209, 210, 211, 212, 213, 214, 215, 216, 217, 218, 219, 220, 221, 222, 223, 224, 225, 226, 227, 228, 229, 230, 231, 232, 233, 234, 235, 236, 237, 238, 239, 240, 241, 242, 243, 244, 245, 246, 247, 248, 249, 250, 251, 252, 253, 254, 255, 256, 257, 258, 259, 260, 261, 262, 263, 264, 265, 266, 267, 268, 269, 270, 271, 272, 273, 274, 275, 276, 277, 278, 279, 280],
      "LargestImagePixelValue": [881, 774, 1221, 933, 940, 995, 929, 897, 1189, 877, 856, 1153, 891, 941, 887, 907, 991, 1023, 892, 925, 866, 908, 981, 1348, 815, 760, 1175, 899, 923, 1105, 939, 840, 1100, 907, 820, 894, 1023, 953, 965, 997, 955, 848, 979, 986, 874, 937, 941, 895, 1059, 927, 931, 1121, 856, 900, 903, 1128, 900, 851, 922, 950, 905, 864, 1164, 1019, 876, 756, 1204, 900, 824, 853, 1031, 1178, 896, 965, 1112, 945, 762, 1107, 911, 782, 1111, 960, 812, 1342, 888, 863, 1008, 970, 977, 907, 901, 937, 1246, 873, 1125, 876, 786, 824, 1078, 937, 1245, 926, 876, 1221, 902, 939, 1336, 839, 849, 1020, 834, 903, 941, 930, 952, 1077, 895, 844, 1144, 848, 754, 862, 936, 939, 906, 996, 944, 1056, 918, 805, 1124, 1009, 880, 926, 1403, 948, 808, 883, 924, 977, 1056, 944, 861, 810, 1034, 1100, 866, 927, 951, 919, 933, 808, 864, 1106, 1003, 824, 1181, 931, 837, 861, 1208, 976, 959, 1094, 942, 1049, 914, 1061, 1009, 961, 959, 1169, 923, 828, 913, 935, 961, 1037, 961, 940, 798, 847, 1163, 966, 865, 944, 1161, 978, 1002, 1059, 971, 935, 912, 911, 965, 959, 923, 1001, 925, 958, 945, 863, 1225, 873, 864, 1209, 973, 1038, 936, 931, 946, 860, 831, 990, 953, 1158, 932, 776, 1221, 928, 765, 1060, 893, 941, 934, 951, 965, 1002, 946, 837, 984, 972, 925, 939, 1162, 912, 855, 972, 943, 921, 928, 1150, 894, 865, 976, 950, 1009, 958, 1018, 910, 948, 891, 961, 979, 765, 1063, 1094, 881, 798, 1386, 944, 837, 877, 997, 939, 872, 1206, 937, 832, 1113, 922, 898, 876, 1299, 899, 763, 1089, 946, 866, 952],
      "WindowCenter": [337.0, 336.0, 340.0, 337.0, 337.0, 337.0, 336.0, 336.0, 339.0, 336.0, 336.0, 338.0, 336.0, 336.0, 336.0, 337.0, 338.0, 338.0, 337.0, 337.0, 336.0, 337.0, 337.0, 340.0, 336.0, 335.0, 340.0, 338.0, 338.0, 339.0, 337.0, 336.0, 338.0, 336.0, 336.0, 337.0, 338.0, 338.0, 337.0, 338.0, 338.0, 337.0, 338.0, 338.0, 337.0, 338.0, 338.0, 338.0, 339.0, 338.0, 337.0, 339.0, 336.0, 337.0, 337.0, 339.0, 337.0, 336.0, 337.0, 337.0, 337.0, 337.0, 339.0, 338.0, 337.0, 335.0, 339.0, 336.0, 336.0, 336.0, 339.0, 340.0, 338.0, 337.0, 338.0, 337.0, 336.0, 339.0, 338.0, 336.0, 339.0, 338.0, 335.0, 341.0, 338.0, 337.0, 339.0, 338.0, 338.0, 338.0, 338.0, 338.0, 341.0, 338.0, 339.0, 337.0, 336.0, 337.0, 339.0, 338.0, 339.0, 336.0, 335.0, 339.0, 338.0, 338.0, 340.0, 335.0, 335.0, 337.0, 336.0, 337.0, 338.0, 338.0, 337.0, 338.0, 337.0, 336.0, 338.0, 336.0, 334.0, 336.0, 338.0, 340.0, 339.0, 338.0, 338.0, 338.0, 337.0, 336.0, 339.0, 337.0, 336.0, 336.0, 340.0, 336.0, 335.0, 337.0, 338.0, 338.0, 339.0, 337.0, 336.0, 336.0, 338.0, 339.0, 336.0, 338.0, 338.0, 337.0, 337.0, 336.0, 337.0, 339.0, 338.0, 336.0, 339.0, 337.0, 337.0, 337.0, 340.0, 339.0, 338.0, 339.0, 338.0, 340.0, 338.0, 339.0, 338.0, 336.0, 336.0, 338.0, 336.0, 335.0, 337.0, 338.0, 338.0, 338.0, 338.0, 338.0, 337.0, 337.0, 340.0, 338.0, 337.0, 338.0, 339.0, 338.0, 338.0, 338.0, 338.0, 337.0, 337.0, 337.0, 338.0, 338.0, 338.0, 339.0, 338.0, 338.0, 338.0, 336.0, 339.0, 336.0, 337.0, 340.0, 338.0, 338.0, 337.0, 336.0, 337.0, 336.0, 336.0, 339.0, 338.0, 339.0, 337.0, 336.0, 340.0, 338.0, 336.0, 339.0, 337.0, 337.0, 338.0, 338.0, 338.0, 338.0, 338.0, 336.0, 337.0, 337.0, 338.0, 338.0, 340.0, 337.0, 336.0, 338.0, 338.0, 338.0, 338.0, 340.0, 337.0, 336.0, 338.0, 338.0, 338.0, 338.0, 338.0, 337.0, 337.0, 337.0, 338.0, 338.0, 337.0, 340.0, 340.0, 338.0, 336.0, 341.0, 338.0, 337.0, 337.0, 338.0, 338.0, 336.0, 339.0, 337.0, 336.0, 338.0, 336.0, 336.0, 336.0, 340.0, 337.0, 335.0, 339.0, 337.0, 336.0, 338.0],
      "WindowWidth": [727.0, 724.0, 729.0, 725.0, 725.0, 725.0, 723.0, 723.0, 727.0, 724.0, 724.0, 727.0, 724.0, 723.0, 724.0, 725.0, 726.0, 726.0, 725.0, 725.0, 724.0, 725.0, 726.0, 729.0, 723.0, 723.0, 729.0, 726.0, 726.0, 727.0, 726.0, 724.0, 727.0, 724.0, 723.0, 724.0, 727.0, 726.0, 726.0, 727.0, 726.0, 726.0, 727.0, 727.0, 725.0, 727.0, 727.0, 726.0, 729.0, 726.0, 725.0, 727.0, 724.0, 725.0, 725.0, 728.0, 725.0, 724.0, 726.0, 726.0, 725.0, 725.0, 728.0, 727.0, 726.0, 723.0, 728.0, 724.0, 723.0, 724.0, 727.0, 730.0, 726.0, 725.0, 726.0, 724.0, 724.0, 728.0, 726.0, 724.0, 727.0, 726.0, 723.0, 731.0, 726.0, 726.0, 728.0, 727.0, 727.0, 727.0, 728.0, 728.0, 732.0, 727.0, 729.0, 725.0, 725.0, 726.0, 729.0, 726.0, 728.0, 723.0, 722.0, 728.0, 726.0, 726.0, 730.0, 722.0, 722.0, 725.0, 723.0, 725.0, 726.0, 726.0, 726.0, 726.0, 725.0, 723.0, 726.0, 723.0, 721.0, 724.0, 727.0, 730.0, 728.0, 728.0, 726.0, 727.0, 725.0, 724.0, 727.0, 726.0, 724.0, 723.0, 729.0, 723.0, 722.0, 725.0, 726.0, 727.0, 727.0, 725.0, 724.0, 723.0, 726.0, 727.0, 724.0, 726.0, 726.0, 725.0, 725.0, 724.0, 725.0, 728.0, 727.0, 724.0, 728.0, 726.0, 726.0, 725.0, 729.0, 728.0, 727.0, 728.0, 727.0, 729.0, 727.0, 728.0, 726.0, 723.0, 723.0, 726.0, 724.0, 722.0, 725.0, 726.0, 726.0, 727.0, 726.0, 726.0, 725.0, 726.0, 730.0, 728.0, 726.0, 726.0, 728.0, 727.0, 727.0, 727.0, 726.0, 725.0, 725.0, 725.0, 726.0, 726.0, 726.0, 728.0, 726.0, 727.0, 726.0, 723.0, 728.0, 724.0, 726.0, 730.0, 727.0, 727.0, 725.0, 724.0, 724.0, 724.0, 725.0, 728.0, 727.0, 728.0, 725.0, 724.0, 729.0, 726.0, 724.0, 728.0, 725.0, 725.0, 726.0, 727.0, 727.0, 727.0, 726.0, 723.0, 725.0, 726.0, 726.0, 727.0, 729.0, 726.0, 725.0, 727.0, 726.0, 727.0, 727.0, 730.0, 726.0, 725.0, 726.0, 726.0, 727.0, 726.0, 727.0, 725.0, 725.0, 725.0, 727.0, 727.0, 725.0, 729.0, 729.0, 727.0, 725.0, 731.0, 726.0, 725.0, 725.0, 727.0, 726.0, 724.0, 728.0, 725.0, 723.0, 726.0, 724.0, 724.0, 724.0, 729.0, 725.0, 723.0, 728.0, 725.0, 725.0, 726.0]
    },
    "slices": {}
  }
}