{
  "AcquisitionMatrixPE": 96,
  "AcquisitionNumber": 1,
  "AcquisitionTime": "13:26:13.782500",
  "BandwidthPerPixelPhaseEncode": 18.939,
  "BaseResolution": 96,
  "BodyPartExamined": "BRAIN",
  "ConsistencyInfo": "N4_VE11C_LATEST_20160120",
  "ConversionSoftware": "dcm2niix",
  "ConversionSoftwareVersion": "v1.0.20170923 (OpenJPEG build) GCC6.3.0",
  "DerivedVendorReportedEchoSpacing": 0.000550011,
  "DeviceSerialNumber": "66112",
  "DwellTime": 2.3e-06,
  "EchoTime": 0.033,
  "EchoTrainLength": 96,
  "EffectiveEchoSpacing": 0.000550011,
  "FlipAngle": 64,
  "ImageType": [
    "ORIGINAL",
    "PRIMARY",
    "FMRI",
    "NONE",
    "ND",
    "NORM",
    "MOSAIC"
],
  "InstitutionAddress": "Maynard_3_Hanover_NH_US_03755",
  "InstitutionName": "Dartmouth_College_-_PBS",
  "MagneticFieldStrength": 3,
  "Manufacturer": "Siemens",
  "ManufacturersModelName": "Prisma",
  "Modality": "MR",
  "MultibandAccelerationFactor": 4,
  "PartialFourier": 1,
  "PercentPhaseFOV": 100,
  "PhaseEncodingDirection": "j-",
  "PhaseEncodingSteps": 96,
  "PhaseResolution": 1,
  "ProcedureStepDescription": "Gobbini_Matteo_1017_famface-angles",
  "ProtocolName": "func_run-03_task-str1back",
  "PulseSequenceDetails": "%SiemensSeq%_ep2d_bold",
  "ReceiveCoilActiveElements": "HEA;HEP",
  "ReceiveCoilName": "Head_32",
  "ReconMatrixPE": 96,
  "RepetitionTime": 1.25,
  "ScanOptions": "FS",
  "ScanningSequence": "EP",
  "SequenceName": "_epfid2d1_96",
  "SequenceVariant": "SK",
  "SeriesDescription": "func_run-03_task-str1back",
  "SliceTiming": [0.8775, 0, 0.615, 0.0875, 0.7025, 0.175, 0.79, 0.3525, 0.9675, 0.44, 1.055, 0.5275, 1.1425, 0.2625, 0.8775, 0, 0.615, 0.0875, 0.7025, 0.175, 0.79, 0.3525, 0.9675, 0.44, 1.055, 0.5275, 1.1425, 0.2625, 0.8775, 0, 0.615, 0.0875, 0.7025, 0.175, 0.79, 0.3525, 0.9675, 0.44, 1.055, 0.5275, 1.1425, 0.2625, 0.8775, 0, 0.615, 0.0875, 0.7025, 0.175, 0.79, 0.3525, 0.9675, 0.44, 1.055, 0.5275, 1.1425, 0.2625],
  "SoftwareVersions": "syngo_MR_E11",
  "StationName": "AWP66112",
  "TaskName": "str1back",
  "TotalReadoutTime": 0.0522511,
  "dcmmeta_affine": [
    [-2.4965059757232666, -0.11030954867601395, 0.07272693514823914, 125.37613677978516],
    [-0.10929466784000397, 2.4973485469818115, 0.03611592575907707, -87.86357116699219],
    [0.07424338161945343, -0.03288598731160164, 2.498680830001831, -96.88872528076172],
    [0.0, 0.0, 0.0, 1.0]
],
  "dcmmeta_reorient_transform": [
    [0.0, -1.0, 0.0, 95.0],
    [1.0, 0.0, 0.0, 0.0],
    [0.0, 0.0, 1.0, 0.0],
    [0.0, 0.0, 0.0, 1.0]
],
  "dcmmeta_shape": [96, 96, 56, 280],
  "dcmmeta_slice_dim": 2,
  "dcmmeta_version": 0.6,
  "global": {
    "const": {
      "AccessionNumber": "A000292",
      "AcquisitionMatrix": [96, 0, 0, 96],
      "AngioFlag": "N",
      "BitsAllocated": 16,
      "BitsStored": 12,
      "BodyPartExamined": "BRAIN",
      "Columns": 768,
      "EchoNumbers": 1,
      "EchoTime": 33.0,
      "EchoTrainLength": 96,
      "FlipAngle": 64.0,
      "HighBit": 11,
      "ImageOrientationPatient": [0.99860243100896, 0.04371786858416, 0.02969735256651, -0.0441238209245, 0.99893946280054, 0.01315439420059],
      "ImagePositionPatient": [-916.65876331425, -1025.2167089057, -136.00835865911],
      "ImageType": [
        "ORIGINAL",
        "PRIMARY",
        "FMRI",
        "NONE",
        "ND",
        "NORM",
        "MOSAIC"
],
      "ImagedNucleus": "1H",
      "ImagingFrequency": 123.252396,
      "InPlanePhaseEncodingDirection": "COL",
      "MRAcquisitionType": "2D",
      "MagneticFieldStrength": 3.0,
      "Manufacturer": "SIEMENS",
      "ManufacturerModelName": "Prisma",
      "Modality": "MR",
      "NumberOfAverages": 1.0,
      "NumberOfPhaseEncodingSteps": 96,
      "PercentPhaseFieldOfView": 100.0,
      "PercentSampling": 100.0,
      "PerformedProcedureStepStartTime": "130608.788000",
      "PhotometricInterpretation": "MONOCHROME2",
      "PixelBandwidth": 2265.0,
      "PixelRepresentation": 0,
      "PixelSpacing": [2.5, 2.5],
      "PositionReferenceIndicator": "",
      "ProtocolName": "func_run-03_task-str1back",
      "RepetitionTime": 1250.0,
      "Rows": 768,
      "SAR": 0.05730802403629,
      "SamplesPerPixel": 1,
      "ScanOptions": "FS",
      "ScanningSequence": "EP",
      "SequenceName": "*epfid2d1_96",
      "SequenceVariant": "SK",
      "SeriesDescription": "func_run-03_task-str1back",
      "SeriesNumber": 22,
      "SeriesTime": "132615.754000",
      "SliceLocation": -94.459622534146,
      "SliceThickness": 2.5,
      "SmallestImagePixelValue": 0,
      "SoftwareVersions": "syngo MR E11",
      "SpacingBetweenSlices": 2.4999999391591,
      "SpecificCharacterSet": "ISO_IR 100",
      "StudyID": "2",
      "StudyTime": "130608.736000",
      "TransmitCoilName": "Body",
      "VariableFlipAngleFlag": "N",
      "WindowCenterWidthExplanation": "Algo1",
      "dBdt": 0.0},
    "slices": {}
  },
  "time": {
    "samples": {
      "AcquisitionNumber": [1, 2, 3, 4, 5, 6, 7, 8, 9, 10, 11, 12, 13, 14, 15, 16, 17, 18, 19, 20, 21, 22, 23, 24, 25, 26, 27, 28, 29, 30, 31, 32, 33, 34, 35, 36, 37, 38, 39, 40, 41, 42, 43, 44, 45, 46, 47, 48, 49, 50, 51, 52, 53, 54, 55, 56, 57, 58, 59, 60, 61, 62, 63, 64, 65, 66, 67, 68, 69, 70, 71, 72, 73, 74, 75, 76, 77, 78, 79, 80, 81, 82, 83, 84, 85, 86, 87, 88, 89, 90, 91, 92, 93, 94, 95, 96, 97, 98, 99, 100, 101, 102, 103, 104, 105, 106, 107, 108, 109, 110, 111, 112, 113, 114, 115, 116, 117, 118, 119, 120, 121, 122, 123, 124, 125, 126, 127, 128, 129, 130, 131, 132, 133, 134, 135, 136, 137, 138, 139, 140, 141, 142, 143, 144, 145, 146, 147, 148, 149, 150, 151, 152, 153, 154, 155, 156, 157, 158, 159, 160, 161, 162, 163, 164, 165, 166, 167, 168, 169, 170, 171, 172, 173, 174, 175, 176, 177, 178, 179, 180, 181, 182, 183, 184, 185, 186, 187, 188, 189, 190, 191, 192, 193, 194, 195, 196, 197, 198, 199, 200, 201, 202, 203, 204, 205, 206, 207, 208, 209, 210, 211, 212, 213, 214, 215, 216, 217, 218, 219, 220, 221, 222, 223, 224, 225, 226, 227, 228, 229, 230, 231, 232, 233, 234, 235, 236, 237, 238, 239, 240, 241, 242, 243, 244, 245, 246, 247, 248, 249, 250, 251, 252, 253, 254, 255, 256, 257, 258, 259, 260, 261, 262, 263, 264, 265, 266, 267, 268, 269, 270, 271, 272, 273, 274, 275, 276, 277, 278, 279, 280],
      "AcquisitionTime": ["132613.782500", "132615.032500", "132616.282500", "132617.532500", "132618.782500", "132620.032500", "132621.282500", "132622.532500", "132623.782500", "132625.032500", "132626.282500", "132627.532500", "132628.782500", "132630.032500", "132631.282500", "132632.532500", "132633.782500", "132635.032500", "132636.282500", "132637.532500", "132638.782500", "132640.032500", "132641.282500", "132642.532500", "132643.782500", "132645.032500", "132646.282500", "132647.532500", "132648.782500", "132650.032500", "132651.282500", "132652.532500", "132653.782500", "132655.032500", "132656.282500", "132657.532500", "132658.782500", "132700.032500", "132701.282500", "132702.532500", "132703.782500", "132705.032500", "132706.282500", "132707.532500", "132708.782500", "132710.032500", "132711.282500", "132712.532500", "132713.782500", "132715.032500", "132716.282500", "132717.532500", "132718.782500", "132720.032500", "132721.282500", "132722.532500", "132723.782500", "132725.032500", "132726.282500", "132727.532500", "132728.782500", "132730.032500", "132731.282500", "132732.532500", "132733.782500", "132735.032500", "132736.282500", "132737.532500", "132738.782500", "132740.032500", "132741.282500", "132742.532500", "132743.782500", "132745.032500", "132746.282500", "132747.532500", "132748.782500", "132750.032500", "132751.282500", "132752.532500", "132753.782500", "132755.032500", "132756.282500", "132757.532500", "132758.782500", "132800.032500", "132801.282500", "132802.532500", "132803.782500", "132805.032500", "132806.282500", "132807.532500", "132808.782500", "132810.032500", "132811.282500", "132812.532500", "132813.782500", "132815.032500", "132816.282500", "132817.532500", "132818.782500", "132820.032500", "132821.282500", "132822.532500", "132823.782500", "132825.032500", "132826.282500", "132827.532500", "132828.782500", "132830.032500", "132831.282500", "132832.532500", "132833.782500", "132835.032500", "132836.282500", "132837.532500", "132838.782500", "132840.032500", "132841.282500", "132842.532500", "132843.782500", "132845.032500", "132846.282500", "132847.532500", "132848.782500", "132850.032500", "132851.282500", "132852.532500", "132853.782500", "132855.032500", "132856.282500", "132857.532500", "132858.782500", "132900.032500", "132901.282500", "132902.532500", "132903.782500", "132905.032500", "132906.282500", "132907.532500", "132908.782500", "132910.032500", "132911.282500", "132912.532500", "132913.782500", "132915.032500", "132916.282500", "132917.532500", "132918.782500", "132920.032500", "132921.282500", "132922.532500", "132923.782500", "132925.032500", "132926.282500", "132927.532500", "132928.782500", "132930.032500", "132931.282500", "132932.532500", "132933.782500", "132935.032500", "132936.282500", "132937.532500", "132938.782500", "132940.032500", "132941.282500", "132942.532500", "132943.782500", "132945.032500", "132946.282500", "132947.532500", "132948.782500", "132950.032500", "132951.282500", "132952.532500", "132953.782500", "132955.032500", "132956.282500", "132957.532500", "132958.782500", "133000.032500", "133001.282500", "133002.532500", "133003.782500", "133005.032500", "133006.282500", "133007.532500", "133008.782500", "133010.032500", "133011.282500", "133012.532500", "133013.782500", "133015.032500", "133016.282500", "133017.532500", "133018.782500", "133020.032500", "133021.282500", "133022.532500", "133023.782500", "133025.032500", "133026.282500", "133027.532500", "133028.782500", "133030.032500", "133031.282500", "133032.532500", "133033.782500", "133035.032500", "133036.282500", "133037.532500", "133038.782500", "133040.032500", "133041.282500", "133042.532500", "133043.782500", "133045.032500", "133046.282500", "133047.532500", "133048.782500", "133050.032500", "133051.282500", "133052.532500", "133053.782500", "133055.032500", "133056.282500", "133057.532500", "133058.782500", "133100.032500", "133101.282500", "133102.532500", "133103.782500", "133105.032500", "133106.282500", "133107.532500", "133108.782500", "133110.032500", "133111.282500", "133112.532500", "133113.782500", "133115.032500", "133116.282500", "133117.532500", "133118.782500", "133120.032500", "133121.282500", "133122.532500", "133123.782500", "133125.032500", "133126.282500", "133127.532500", "133128.782500", "133130.032500", "133131.282500", "133132.532500", "133133.782500", "133135.032500", "133136.282500", "133137.532500", "133138.782500", "133140.032500", "133141.282500", "133142.532500", "133143.782500", "133145.032500", "133146.282500", "133147.532500", "133148.782500", "133150.032500", "133151.282500", "133152.532500", "133153.782500", "133155.032500", "133156.282500", "133157.532500", "133158.782500", "133200.032500", "133201.282500", "133202.532500"],
      "ContentTime": ["132615.758000", "132616.787000", "132618.064000", "132619.337000", "132620.559000", "132621.801000", "132623.067000", "132624.331000", "132625.536000", "132626.829000", "132628.052000", "132629.299000", "132630.620000", "132631.811000", "132633.048000", "132634.338000", "132635.562000", "132636.812000", "132638.047000", "132639.327000", "132640.595000", "132641.822000", "132643.088000", "132644.305000", "132645.557000", "132646.798000", "132648.045000", "132649.342000", "132650.608000", "132651.827000", "132653.067000", "132654.317000", "132655.551000", "132656.904000", "132658.092000", "132659.318000", "132700.563000", "132701.818000", "132703.066000", "132704.338000", "132705.559000", "132706.828000", "132708.076000", "132709.315000", "132710.562000", "132711.819000", "132713.026000", "132714.331000", "132715.599000", "132716.801000", "132718.060000", "132719.303000", "132720.580000", "132721.815000", "132723.075000", "132724.323000", "132725.586000", "132726.813000", "132728.073000", "132729.330000", "132730.575000", "132731.815000", "132733.046000", "132734.330000", "132735.551000", "132736.818000", "132738.047000", "132739.306000", "132740.571000", "132741.814000", "132743.056000", "132744.330000", "132745.558000", "132746.804000", "132748.023000", "132749.307000", "132750.570000", "132751.838000", "132753.056000", "132754.319000", "132755.552000", "132756.834000", "132758.073000", "132759.318000", "132800.544000", "132801.814000", "132803.045000", "132804.323000", "132805.598000", "132806.819000", "132808.066000", "132809.324000", "132810.569000", "132811.806000", "132813.075000", "132814.316000", "132815.572000", "132816.851000", "132818.100000", "132819.292000", "132820.585000", "132821.828000", "132823.081000", "132824.319000", "132825.603000", "132826.824000", "132828.075000", "132829.340000", "132830.576000", "132831.872000", "132833.102000", "132834.311000", "132835.559000", "132836.806000", "132838.081000", "132839.333000", "132840.569000", "132841.836000", "132843.062000", "132844.294000", "132845.613000", "132846.824000", "132848.062000", "132849.346000", "132850.604000", "132851.813000", "132853.086000", "132854.331000", "132855.594000", "132856.823000", "132858.068000", "132859.323000", "132900.568000", "132901.864000", "132903.086000", "132904.314000", "132905.538000", "132906.825000", "132908.075000", "132909.370000", "132910.588000", "132911.789000", "132913.063000", "132914.317000", "132915.585000", "132916.819000", "132918.059000", "132919.331000", "132920.582000", "132921.844000", "132923.070000", "132924.354000", "132925.570000", "132926.857000", "132928.122000", "132929.338000", "132930.605000", "132931.834000", "132933.067000", "132934.357000", "132935.598000", "132936.862000", "132938.067000", "132939.314000", "132940.604000", "132941.821000", "132943.083000", "132944.294000", "132945.575000", "132946.828000", "132948.081000", "132949.315000", "132950.574000", "132951.818000", "132953.064000", "132954.319000", "132955.599000", "132956.828000", "132958.076000", "132959.351000", "133000.553000", "133001.779000", "133003.072000", "133004.323000", "133005.578000", "133006.827000", "133008.047000", "133009.327000", "133010.581000", "133011.832000", "133013.023000", "133014.323000", "133015.561000", "133016.788000", "133018.069000", "133019.342000", "133020.583000", "133021.831000", "133023.057000", "133024.322000", "133025.568000", "133026.791000", "133028.053000", "133029.317000", "133030.566000", "133031.892000", "133033.094000", "133034.345000", "133035.602000", "133036.849000", "133038.060000", "133039.329000", "133040.535000", "133041.846000", "133043.080000", "133044.354000", "133045.601000", "133046.835000", "133048.090000", "133049.343000", "133050.591000", "133051.836000", "133053.064000", "133054.340000", "133055.566000", "133056.826000", "133058.110000", "133059.340000", "133100.542000", "133101.806000", "133103.092000", "133104.343000", "133105.583000", "133106.869000", "133108.075000", "133109.327000", "133110.590000", "133111.836000", "133113.033000", "133114.316000", "133115.565000", "133116.832000", "133118.059000", "133119.310000", "133120.587000", "133121.846000", "133123.070000", "133124.329000", "133125.605000", "133126.813000", "133128.096000", "133129.307000", "133130.608000", "133131.832000", "133133.083000", "133134.328000", "133135.566000", "133136.873000", "133138.099000", "133139.320000", "133140.596000", "133141.835000", "133143.056000", "133144.344000", "133145.574000", "133146.806000", "133148.075000", "133149.308000", "133150.575000", "133151.823000", "133153.086000", "133154.305000", "133155.619000", "133156.812000", "133158.088000", "133159.342000", "133200.598000", "133201.829000", "133203.068000", "133204.366000"],
      "InstanceCreationTime": ["132615.758000", "132616.787000", "132618.064000", "132619.337000", "132620.559000", "132621.801000", "132623.067000", "132624.331000", "132625.536000", "132626.829000", "132628.052000", "132629.299000", "132630.620000", "132631.811000", "132633.048000", "132634.338000", "132635.562000", "132636.812000", "132638.047000", "132639.327000", "132640.595000", "132641.822000", "132643.088000", "132644.305000", "132645.557000", "132646.798000", "132648.045000", "132649.342000", "132650.608000", "132651.827000", "132653.067000", "132654.317000", "132655.551000", "132656.904000", "132658.092000", "132659.318000", "132700.563000", "132701.818000", "132703.066000", "132704.338000", "132705.559000", "132706.828000", "132708.076000", "132709.315000", "132710.562000", "132711.819000", "132713.026000", "132714.331000", "132715.599000", "132716.801000", "132718.060000", "132719.303000", "132720.580000", "132721.815000", "132723.075000", "132724.323000", "132725.586000", "132726.813000", "132728.073000", "132729.330000", "132730.575000", "132731.815000", "132733.046000", "132734.330000", "132735.551000", "132736.818000", "132738.047000", "132739.306000", "132740.571000", "132741.814000", "132743.056000", "132744.330000", "132745.558000", "132746.804000", "132748.023000", "132749.307000", "132750.570000", "132751.838000", "132753.056000", "132754.319000", "132755.552000", "132756.834000", "132758.073000", "132759.318000", "132800.544000", "132801.814000", "132803.045000", "132804.323000", "132805.598000", "132806.819000", "132808.066000", "132809.324000", "132810.569000", "132811.806000", "132813.075000", "132814.316000", "132815.572000", "132816.851000", "132818.100000", "132819.292000", "132820.585000", "132821.828000", "132823.081000", "132824.319000", "132825.603000", "132826.824000", "132828.075000", "132829.340000", "132830.576000", "132831.872000", "132833.102000", "132834.311000", "132835.559000", "132836.806000", "132838.081000", "132839.333000", "132840.569000", "132841.836000", "132843.062000", "132844.294000", "132845.613000", "132846.824000", "132848.062000", "132849.346000", "132850.604000", "132851.813000", "132853.086000", "132854.331000", "132855.594000", "132856.823000", "132858.068000", "132859.323000", "132900.568000", "132901.864000", "132903.086000", "132904.314000", "132905.538000", "132906.825000", "132908.075000", "132909.370000", "132910.588000", "132911.789000", "132913.063000", "132914.317000", "132915.585000", "132916.819000", "132918.059000", "132919.331000", "132920.582000", "132921.844000", "132923.070000", "132924.354000", "132925.570000", "132926.857000", "132928.122000", "132929.338000", "132930.605000", "132931.834000", "132933.067000", "132934.357000", "132935.598000", "132936.862000", "132938.067000", "132939.314000", "132940.604000", "132941.821000", "132943.083000", "132944.294000", "132945.575000", "132946.828000", "132948.081000", "132949.315000", "132950.574000", "132951.818000", "132953.064000", "132954.319000", "132955.599000", "132956.828000", "132958.076000", "132959.351000", "133000.553000", "133001.779000", "133003.072000", "133004.323000", "133005.578000", "133006.827000", "133008.047000", "133009.327000", "133010.581000", "133011.832000", "133013.023000", "133014.323000", "133015.561000", "133016.788000", "133018.069000", "133019.342000", "133020.583000", "133021.831000", "133023.057000", "133024.322000", "133025.568000", "133026.791000", "133028.053000", "133029.317000", "133030.566000", "133031.892000", "133033.094000", "133034.345000", "133035.602000", "133036.849000", "133038.060000", "133039.329000", "133040.535000", "133041.846000", "133043.080000", "133044.354000", "133045.601000", "133046.835000", "133048.090000", "133049.343000", "133050.591000", "133051.836000", "133053.064000", "133054.340000", "133055.566000", "133056.826000", "133058.110000", "133059.340000", "133100.542000", "133101.806000", "133103.092000", "133104.343000", "133105.583000", "133106.869000", "133108.075000", "133109.327000", "133110.590000", "133111.836000", "133113.033000", "133114.316000", "133115.565000", "133116.832000", "133118.059000", "133119.310000", "133120.587000", "133121.846000", "133123.070000", "133124.329000", "133125.605000", "133126.813000", "133128.096000", "133129.307000", "133130.608000", "133131.832000", "133133.083000", "133134.328000", "133135.566000", "133136.873000", "133138.099000", "133139.320000", "133140.596000", "133141.835000", "133143.056000", "133144.344000", "133145.574000", "133146.806000", "133148.075000", "133149.308000", "133150.575000", "133151.823000", "133153.086000", "133154.305000", "133155.619000", "133156.812000", "133158.088000", "133159.342000", "133200.598000", "133201.829000", "133203.068000", "133204.366000"],
      "InstanceNumber": [1, 2, 3, 4, 5, 6, 7, 8, 9, 10, 11, 12, 13, 14, 15, 16, 17, 18, 19, 20, 21, 22, 23, 24, 25, 26, 27, 28, 29, 30, 31, 32, 33, 34, 35, 36, 37, 38, 39, 40, 41, 42, 43, 44, 45, 46, 47, 48, 49, 50, 51, 52, 53, 54, 55, 56, 57, 58, 59, 60, 61, 62, 63, 64, 65, 66, 67, 68, 69, 70, 71, 72, 73, 74, 75, 76, 77, 78, 79, 80, 81, 82, 83, 84, 85, 86, 87, 88, 89, 90, 91, 92, 93, 94, 95, 96, 97, 98, 99, 100, 101, 102, 103, 104, 105, 106, 107, 108, 109, 110, 111, 112, 113, 114, 115, 116, 117, 118, 119, 120, 121, 122, 123, 124, 125, 126, 127, 128, 129, 130, 131, 132, 133, 134, 135, 136, 137, 138, 139, 140, 141, 142, 143, 144, 145, 146, 147, 148, 149, 150, 151, 152, 153, 154, 155, 156, 157, 158, 159, 160, 161, 162, 163, 164, 165, 166, 167, 168, 169, 170, 171, 172, 173, 174, 175, 176, 177, 178, 179, 180, 181, 182, 183, 184, 185, 186, 187, 188, 189, 190, 191, 192, 193, 194, 195, 196, 197, 198, 199, 200, 201, 202, 203, 204, 205, 206, 207, 208, 209, 210, 211, 212, 213, 214, 215, 216, 217, 218, 219, 220, 221, 222, 223, 224, 225, 226, 227, 228, 229, 230, 231, 232, 233, 234, 235, 236, 237, 238, 239, 240, 241, 242, 243, 244, 245, 246, 247, 248, 249, 250, 251, 252, 253, 254, 255, 256, 257, 258, 259, 260, 261, 262, 263, 264, 265, 266, 267, 268, 269, 270, 271, 272, 273, 274, 275, 276, 277, 278, 279, 280],
      "LargestImagePixelValue": [1107, 904, 997, 1004, 1156, 1029, 917, 938, 1052, 917, 1095, 913, 910, 690, 956, 867, 1159, 971, 1060, 931, 792, 1029, 955, 845, 1077, 928, 1056, 975, 916, 964, 1041, 897, 1021, 890, 697, 1069, 888, 724, 1016, 906, 1041, 973, 889, 984, 954, 1033, 1129, 865, 739, 998, 894, 889, 911, 926, 1032, 975, 1131, 941, 837, 1004, 940, 758, 1114, 877, 916, 914, 888, 818, 1231, 941, 842, 1297, 903, 896, 961, 947, 1080, 1105, 975, 771, 856, 929, 817, 1150, 955, 857, 1242, 966, 819, 924, 853, 1029, 838, 884, 923, 977, 1008, 821, 1181, 800, 890, 923, 868, 1124, 883, 858, 743, 701, 873, 1271, 1042, 876, 1067, 1078, 920, 800, 1035, 770, 965, 1011, 1191, 969, 1218, 893, 853, 935, 899, 1120, 940, 1128, 944, 763, 1050, 813, 999, 913, 700, 1196, 890, 689, 1163, 936, 844, 1137, 903, 1137, 863, 980, 1008, 830, 1053, 943, 797, 1154, 795, 1086, 972, 974, 807, 1057, 1193, 814, 935, 1026, 921, 1092, 965, 925, 745, 965, 809, 1025, 822, 873, 1145, 844, 1046, 984, 927, 987, 969, 876, 1230, 900, 1103, 847, 729, 949, 835, 1085, 883, 702, 992, 798, 1156, 914, 1067, 843, 1101, 903, 853, 942, 978, 980, 1061, 1167, 846, 823, 921, 1157, 932, 1003, 971, 877, 828, 1168, 976, 1013, 1011, 941, 788, 1108, 875, 1093, 1096, 853, 737, 987, 892, 918, 1034, 932, 836, 872, 949, 980, 894, 922, 1108, 860, 839, 951, 1065, 887, 812, 1029, 816, 1037, 1074, 851, 1144, 1120, 851, 844, 896, 1173, 1035, 858, 1176, 820, 763, 836, 968, 890, 915, 1040, 1029, 1027, 952, 781, 939, 1010, 786, 1100, 981, 1030, 944, 927, 766, 972],
      "WindowCenter": [340.0, 338.0, 338.0, 338.0, 338.0, 336.0, 336.0, 336.0, 338.0, 337.0, 337.0, 335.0, 335.0, 333.0, 337.0, 337.0, 340.0, 338.0, 337.0, 336.0, 335.0, 338.0, 337.0, 336.0, 338.0, 336.0, 337.0, 337.0, 337.0, 337.0, 338.0, 336.0, 337.0, 337.0, 334.0, 338.0, 337.0, 334.0, 338.0, 337.0, 338.0, 336.0, 336.0, 337.0, 337.0, 337.0, 338.0, 336.0, 335.0, 337.0, 336.0, 336.0, 337.0, 337.0, 339.0, 338.0, 338.0, 337.0, 335.0, 337.0, 337.0, 336.0, 338.0, 336.0, 337.0, 337.0, 336.0, 336.0, 340.0, 337.0, 336.0, 339.0, 336.0, 336.0, 337.0, 337.0, 338.0, 337.0, 336.0, 334.0, 335.0, 337.0, 335.0, 338.0, 337.0, 336.0, 339.0, 336.0, 335.0, 336.0, 335.0, 336.0, 335.0, 336.0, 337.0, 337.0, 338.0, 336.0, 339.0, 335.0, 337.0, 338.0, 337.0, 340.0, 339.0, 335.0, 335.0, 335.0, 338.0, 340.0, 338.0, 336.0, 338.0, 338.0, 337.0, 336.0, 338.0, 336.0, 338.0, 338.0, 339.0, 337.0, 338.0, 335.0, 335.0, 337.0, 337.0, 338.0, 337.0, 338.0, 337.0, 335.0, 339.0, 336.0, 337.0, 337.0, 334.0, 339.0, 337.0, 335.0, 340.0, 338.0, 337.0, 339.0, 336.0, 338.0, 336.0, 337.0, 337.0, 335.0, 337.0, 336.0, 335.0, 339.0, 337.0, 339.0, 337.0, 337.0, 335.0, 337.0, 338.0, 335.0, 337.0, 339.0, 337.0, 338.0, 337.0, 336.0, 335.0, 337.0, 336.0, 339.0, 336.0, 337.0, 340.0, 337.0, 338.0, 338.0, 337.0, 337.0, 337.0, 337.0, 339.0, 336.0, 338.0, 335.0, 334.0, 337.0, 337.0, 339.0, 336.0, 334.0, 339.0, 337.0, 341.0, 339.0, 339.0, 337.0, 339.0, 338.0, 338.0, 339.0, 339.0, 338.0, 338.0, 339.0, 336.0, 336.0, 338.0, 340.0, 337.0, 338.0, 337.0, 337.0, 336.0, 340.0, 338.0, 338.0, 337.0, 337.0, 335.0, 338.0, 336.0, 338.0, 338.0, 335.0, 335.0, 338.0, 338.0, 337.0, 338.0, 337.0, 335.0, 337.0, 338.0, 339.0, 338.0, 337.0, 339.0, 336.0, 336.0, 338.0, 339.0, 337.0, 336.0, 338.0, 336.0, 339.0, 339.0, 336.0, 338.0, 338.0, 336.0, 336.0, 337.0, 339.0, 337.0, 335.0, 338.0, 335.0, 335.0, 336.0, 338.0, 338.0, 337.0, 338.0, 337.0, 337.0, 336.0, 335.0, 337.0, 338.0, 336.0, 338.0, 337.0, 337.0, 337.0, 337.0, 336.0, 338.0],
      "WindowWidth": [731.0, 726.0, 726.0, 726.0, 727.0, 723.0, 723.0, 724.0, 726.0, 724.0, 725.0, 722.0, 721.0, 718.0, 725.0, 726.0, 730.0, 726.0, 725.0, 723.0, 722.0, 726.0, 725.0, 724.0, 726.0, 723.0, 724.0, 725.0, 724.0, 725.0, 726.0, 723.0, 725.0, 724.0, 720.0, 726.0, 724.0, 721.0, 726.0, 724.0, 726.0, 724.0, 723.0, 724.0, 725.0, 724.0, 725.0, 723.0, 722.0, 726.0, 724.0, 723.0, 725.0, 725.0, 727.0, 726.0, 727.0, 724.0, 723.0, 725.0, 725.0, 723.0, 727.0, 724.0, 724.0, 724.0, 723.0, 724.0, 729.0, 726.0, 724.0, 728.0, 723.0, 723.0, 724.0, 724.0, 725.0, 724.0, 722.0, 720.0, 722.0, 724.0, 723.0, 726.0, 724.0, 723.0, 727.0, 723.0, 721.0, 723.0, 721.0, 724.0, 722.0, 723.0, 724.0, 725.0, 726.0, 724.0, 728.0, 723.0, 726.0, 726.0, 725.0, 729.0, 729.0, 722.0, 722.0, 723.0, 726.0, 730.0, 726.0, 724.0, 726.0, 725.0, 724.0, 723.0, 726.0, 723.0, 727.0, 727.0, 728.0, 724.0, 726.0, 722.0, 722.0, 725.0, 725.0, 727.0, 724.0, 726.0, 724.0, 722.0, 727.0, 724.0, 725.0, 724.0, 721.0, 728.0, 725.0, 722.0, 729.0, 726.0, 725.0, 728.0, 723.0, 726.0, 724.0, 725.0, 725.0, 723.0, 725.0, 723.0, 722.0, 728.0, 726.0, 729.0, 725.0, 725.0, 722.0, 724.0, 726.0, 722.0, 726.0, 727.0, 726.0, 727.0, 724.0, 723.0, 722.0, 726.0, 723.0, 727.0, 724.0, 725.0, 729.0, 725.0, 727.0, 726.0, 725.0, 725.0, 725.0, 725.0, 727.0, 723.0, 725.0, 722.0, 720.0, 725.0, 725.0, 727.0, 724.0, 722.0, 728.0, 726.0, 732.0, 728.0, 729.0, 726.0, 728.0, 726.0, 727.0, 728.0, 728.0, 727.0, 726.0, 728.0, 724.0, 724.0, 727.0, 729.0, 726.0, 726.0, 725.0, 725.0, 724.0, 729.0, 726.0, 726.0, 725.0, 724.0, 722.0, 727.0, 724.0, 727.0, 726.0, 723.0, 722.0, 727.0, 726.0, 726.0, 726.0, 724.0, 723.0, 725.0, 727.0, 728.0, 726.0, 726.0, 727.0, 724.0, 724.0, 726.0, 727.0, 725.0, 724.0, 727.0, 724.0, 727.0, 727.0, 724.0, 725.0, 726.0, 723.0, 724.0, 724.0, 728.0, 725.0, 722.0, 726.0, 721.0, 722.0, 724.0, 727.0, 726.0, 726.0, 726.0, 725.0, 725.0, 724.0, 722.0, 724.0, 726.0, 723.0, 727.0, 725.0, 725.0, 724.0, 725.0, 723.0, 726.0]
    },
    "slices": {}
  }
}