{
  "AcquisitionMatrixPE": 96,
  "AcquisitionNumber": 1,
  "AcquisitionTime": "14:14:47.272500",
  "BandwidthPerPixelPhaseEncode": 18.939,
  "BaseResolution": 96,
  "BodyPartExamined": "BRAIN",
  "ConsistencyInfo": "N4_VE11C_LATEST_20160120",
  "ConversionSoftware": "dcm2niix",
  "ConversionSoftwareVersion": "v1.0.20170923 (OpenJPEG build) GCC6.3.0",
  "DerivedVendorReportedEchoSpacing": 0.000550011,
  "DeviceSerialNumber": "66112",
  "DwellTime": 2.3e-06,
  "EchoTime": 0.033,
  "EchoTrainLength": 96,
  "EffectiveEchoSpacing": 0.000550011,
  "FlipAngle": 64,
  "ImageType": [
    "ORIGINAL",
    "PRIMARY",
    "FMRI",
    "NONE",
    "ND",
    "NORM",
    "MOSAIC"
],
  "InstitutionAddress": "Maynard_3_Hanover_NH_US_03755",
  "InstitutionName": "Dartmouth_College_-_PBS",
  "MagneticFieldStrength": 3,
  "Manufacturer": "Siemens",
  "ManufacturersModelName": "Prisma",
  "Modality": "MR",
  "MultibandAccelerationFactor": 4,
  "PartialFourier": 1,
  "PercentPhaseFOV": 100,
  "PhaseEncodingDirection": "j-",
  "PhaseEncodingSteps": 96,
  "PhaseResolution": 1,
  "ProcedureStepDescription": "Gobbini_Matteo_1017_famface-angles",
  "ProtocolName": "func_run-10_task-str1back",
  "PulseSequenceDetails": "%SiemensSeq%_ep2d_bold",
  "ReceiveCoilActiveElements": "HEA;HEP",
  "ReceiveCoilName": "Head_32",
  "ReconMatrixPE": 96,
  "RepetitionTime": 1.25,
  "ScanOptions": "FS",
  "ScanningSequence": "EP",
  "SequenceName": "_epfid2d1_96",
  "SequenceVariant": "SK",
  "SeriesDescription": "func_run-10_task-str1back",
  "SliceTiming": [0.8775, 0, 0.615, 0.0875, 0.7025, 0.175, 0.79, 0.35, 0.965, 0.4375, 1.0525, 0.5275, 1.1425, 0.2625, 0.8775, 0, 0.615, 0.0875, 0.7025, 0.175, 0.79, 0.35, 0.965, 0.4375, 1.0525, 0.5275, 1.1425, 0.2625, 0.8775, 0, 0.615, 0.0875, 0.7025, 0.175, 0.79, 0.35, 0.965, 0.4375, 1.0525, 0.5275, 1.1425, 0.2625, 0.8775, 0, 0.615, 0.0875, 0.7025, 0.175, 0.79, 0.35, 0.965, 0.4375, 1.0525, 0.5275, 1.1425, 0.2625],
  "SoftwareVersions": "syngo_MR_E11",
  "StationName": "AWP66112",
  "TaskName": "str1back",
  "TotalReadoutTime": 0.0522511,
  "dcmmeta_affine": [
    [-2.4965059757232666, -0.11030954867601395, 0.07272693514823914, 125.37613677978516],
    [-0.10929466784000397, 2.4973485469818115, 0.03611592575907707, -87.86357116699219],
    [0.07424338161945343, -0.03288598731160164, 2.498680830001831, -96.88872528076172],
    [0.0, 0.0, 0.0, 1.0]
],
  "dcmmeta_reorient_transform": [
    [0.0, -1.0, 0.0, 95.0],
    [1.0, 0.0, 0.0, 0.0],
    [0.0, 0.0, 1.0, 0.0],
    [0.0, 0.0, 0.0, 1.0]
],
  "dcmmeta_shape": [96, 96, 56, 280],
  "dcmmeta_slice_dim": 2,
  "dcmmeta_version": 0.6,
  "global": {
    "const": {
      "AccessionNumber": "A000292",
      "AcquisitionMatrix": [96, 0, 0, 96],
      "AngioFlag": "N",
      "BitsAllocated": 16,
      "BitsStored": 12,
      "BodyPartExamined": "BRAIN",
      "Columns": 768,
      "EchoNumbers": 1,
      "EchoTime": 33.0,
      "EchoTrainLength": 96,
      "FlipAngle": 64.0,
      "HighBit": 11,
      "ImageOrientationPatient": [0.99860243100896, 0.04371786858416, 0.02969735256651, -0.0441238209245, 0.99893946280054, 0.01315439420059],
      "ImagePositionPatient": [-916.65876331425, -1025.2167089057, -136.00835865911],
      "ImageType": [
        "ORIGINAL",
        "PRIMARY",
        "FMRI",
        "NONE",
        "ND",
        "NORM",
        "MOSAIC"
],
      "ImagedNucleus": "1H",
      "ImagingFrequency": 123.252401,
      "InPlanePhaseEncodingDirection": "COL",
      "MRAcquisitionType": "2D",
      "MagneticFieldStrength": 3.0,
      "Manufacturer": "SIEMENS",
      "ManufacturerModelName": "Prisma",
      "Modality": "MR",
      "NumberOfAverages": 1.0,
      "NumberOfPhaseEncodingSteps": 96,
      "PercentPhaseFieldOfView": 100.0,
      "PercentSampling": 100.0,
      "PerformedProcedureStepStartTime": "130608.788000",
      "PhotometricInterpretation": "MONOCHROME2",
      "PixelBandwidth": 2265.0,
      "PixelRepresentation": 0,
      "PixelSpacing": [2.5, 2.5],
      "PositionReferenceIndicator": "",
      "ProtocolName": "func_run-10_task-str1back",
      "RepetitionTime": 1250.0,
      "Rows": 768,
      "SAR": 0.05730802403629,
      "SamplesPerPixel": 1,
      "ScanOptions": "FS",
      "ScanningSequence": "EP",
      "SequenceName": "*epfid2d1_96",
      "SequenceVariant": "SK",
      "SeriesDescription": "func_run-10_task-str1back",
      "SeriesNumber": 71,
      "SeriesTime": "141449.092000",
      "SliceLocation": -94.459622534146,
      "SliceThickness": 2.5,
      "SmallestImagePixelValue": 0,
      "SoftwareVersions": "syngo MR E11",
      "SpacingBetweenSlices": 2.4999999391591,
      "SpecificCharacterSet": "ISO_IR 100",
      "StudyID": "2",
      "StudyTime": "130608.736000",
      "TransmitCoilName": "Body",
      "VariableFlipAngleFlag": "N",
      "WindowCenterWidthExplanation": "Algo1",
      "dBdt": 0.0},
    "slices": {}
  },
  "time": {
    "samples": {
      "AcquisitionNumber": [1, 2, 3, 4, 5, 6, 7, 8, 9, 10, 11, 12, 13, 14, 15, 16, 17, 18, 19, 20, 21, 22, 23, 24, 25, 26, 27, 28, 29, 30, 31, 32, 33, 34, 35, 36, 37, 38, 39, 40, 41, 42, 43, 44, 45, 46, 47, 48, 49, 50, 51, 52, 53, 54, 55, 56, 57, 58, 59, 60, 61, 62, 63, 64, 65, 66, 67, 68, 69, 70, 71, 72, 73, 74, 75, 76, 77, 78, 79, 80, 81, 82, 83, 84, 85, 86, 87, 88, 89, 90, 91, 92, 93, 94, 95, 96, 97, 98, 99, 100, 101, 102, 103, 104, 105, 106, 107, 108, 109, 110, 111, 112, 113, 114, 115, 116, 117, 118, 119, 120, 121, 122, 123, 124, 125, 126, 127, 128, 129, 130, 131, 132, 133, 134, 135, 136, 137, 138, 139, 140, 141, 142, 143, 144, 145, 146, 147, 148, 149, 150, 151, 152, 153, 154, 155, 156, 157, 158, 159, 160, 161, 162, 163, 164, 165, 166, 167, 168, 169, 170, 171, 172, 173, 174, 175, 176, 177, 178, 179, 180, 181, 182, 183, 184, 185, 186, 187, 188, 189, 190, 191, 192, 193, 194, 195, 196, 197, 198, 199, 200, 201, 202, 203, 204, 205, 206, 207, 208, 209, 210, 211, 212, 213, 214, 215, 216, 217, 218, 219, 220, 221, 222, 223, 224, 225, 226, 227, 228, 229, 230, 231, 232, 233, 234, 235, 236, 237, 238, 239, 240, 241, 242, 243, 244, 245, 246, 247, 248, 249, 250, 251, 252, 253, 254, 255, 256, 257, 258, 259, 260, 261, 262, 263, 264, 265, 266, 267, 268, 269, 270, 271, 272, 273, 274, 275, 276, 277, 278, 279, 280],
      "AcquisitionTime": ["141447.272500", "141448.522500", "141449.772500", "141451.022500", "141452.272500", "141453.522500", "141454.772500", "141456.022500", "141457.272500", "141458.522500", "141459.772500", "141501.022500", "141502.272500", "141503.522500", "141504.772500", "141506.022500", "141507.272500", "141508.522500", "141509.772500", "141511.022500", "141512.272500", "141513.522500", "141514.772500", "141516.022500", "141517.272500", "141518.522500", "141519.772500", "141521.022500", "141522.272500", "141523.522500", "141524.772500", "141526.022500", "141527.272500", "141528.522500", "141529.772500", "141531.022500", "141532.272500", "141533.522500", "141534.772500", "141536.022500", "141537.272500", "141538.522500", "141539.772500", "141541.022500", "141542.272500", "141543.522500", "141544.772500", "141546.022500", "141547.272500", "141548.522500", "141549.772500", "141551.022500", "141552.272500", "141553.522500", "141554.772500", "141556.022500", "141557.272500", "141558.522500", "141559.772500", "141601.022500", "141602.272500", "141603.522500", "141604.772500", "141606.022500", "141607.272500", "141608.522500", "141609.772500", "141611.022500", "141612.272500", "141613.522500", "141614.772500", "141616.022500", "141617.272500", "141618.522500", "141619.772500", "141621.022500", "141622.272500", "141623.522500", "141624.772500", "141626.022500", "141627.272500", "141628.522500", "141629.772500", "141631.022500", "141632.272500", "141633.522500", "141634.772500", "141636.022500", "141637.272500", "141638.522500", "141639.772500", "141641.022500", "141642.272500", "141643.522500", "141644.772500", "141646.022500", "141647.272500", "141648.522500", "141649.772500", "141651.022500", "141652.272500", "141653.522500", "141654.772500", "141656.022500", "141657.272500", "141658.522500", "141659.772500", "141701.022500", "141702.272500", "141703.522500", "141704.772500", "141706.022500", "141707.272500", "141708.522500", "141709.772500", "141711.022500", "141712.272500", "141713.522500", "141714.772500", "141716.022500", "141717.272500", "141718.522500", "141719.772500", "141721.022500", "141722.272500", "141723.522500", "141724.772500", "141726.022500", "141727.272500", "141728.522500", "141729.772500", "141731.022500", "141732.272500", "141733.522500", "141734.772500", "141736.022500", "141737.272500", "141738.522500", "141739.772500", "141741.022500", "141742.272500", "141743.522500", "141744.772500", "141746.022500", "141747.272500", "141748.522500", "141749.772500", "141751.022500", "141752.272500", "141753.522500", "141754.772500", "141756.022500", "141757.272500", "141758.522500", "141759.772500", "141801.022500", "141802.272500", "141803.522500", "141804.772500", "141806.022500", "141807.272500", "141808.522500", "141809.772500", "141811.022500", "141812.272500", "141813.522500", "141814.772500", "141816.022500", "141817.272500", "141818.522500", "141819.772500", "141821.022500", "141822.272500", "141823.522500", "141824.772500", "141826.022500", "141827.272500", "141828.522500", "141829.772500", "141831.022500", "141832.272500", "141833.522500", "141834.772500", "141836.022500", "141837.272500", "141838.522500", "141839.772500", "141841.022500", "141842.272500", "141843.522500", "141844.772500", "141846.022500", "141847.272500", "141848.522500", "141849.772500", "141851.022500", "141852.272500", "141853.522500", "141854.772500", "141856.022500", "141857.272500", "141858.522500", "141859.772500", "141901.022500", "141902.272500", "141903.522500", "141904.772500", "141906.022500", "141907.272500", "141908.522500", "141909.772500", "141911.022500", "141912.272500", "141913.522500", "141914.772500", "141916.022500", "141917.272500", "141918.522500", "141919.772500", "141921.022500", "141922.272500", "141923.522500", "141924.772500", "141926.022500", "141927.272500", "141928.522500", "141929.772500", "141931.022500", "141932.272500", "141933.522500", "141934.772500", "141936.022500", "141937.272500", "141938.522500", "141939.772500", "141941.022500", "141942.272500", "141943.522500", "141944.772500", "141946.022500", "141947.272500", "141948.522500", "141949.772500", "141951.022500", "141952.272500", "141953.522500", "141954.772500", "141956.022500", "141957.272500", "141958.522500", "141959.772500", "142001.022500", "142002.272500", "142003.522500", "142004.772500", "142006.022500", "142007.272500", "142008.522500", "142009.772500", "142011.022500", "142012.272500", "142013.522500", "142014.772500", "142016.022500", "142017.272500", "142018.522500", "142019.772500", "142021.022500", "142022.272500", "142023.522500", "142024.772500", "142026.022500", "142027.272500", "142028.522500", "142029.772500", "142031.022500", "142032.272500", "142033.522500", "142034.772500", "142036.022500"],
      "ContentTime": ["141449.096000", "141450.159000", "141451.415000", "141452.682000", "141453.912000", "141455.153000", "141456.417000", "141457.671000", "141458.884000", "141500.180000", "141501.456000", "141502.661000", "141503.901000", "141505.143000", "141506.401000", "141507.639000", "141508.952000", "141510.183000", "141511.376000", "141512.631000", "141513.883000", "141515.134000", "141516.399000", "141517.632000", "141518.890000", "141520.157000", "141521.371000", "141522.646000", "141523.885000", "141525.115000", "141526.384000", "141527.649000", "141528.900000", "141530.165000", "141531.456000", "141532.644000", "141533.903000", "141535.137000", "141536.404000", "141537.672000", "141538.875000", "141540.146000", "141541.379000", "141542.620000", "141543.894000", "141545.097000", "141546.419000", "141547.648000", "141548.902000", "141550.151000", "141551.412000", "141552.679000", "141553.884000", "141555.175000", "141556.405000", "141557.685000", "141558.924000", "141600.174000", "141601.425000", "141602.643000", "141603.891000", "141605.135000", "141606.379000", "141607.662000", "141608.915000", "141610.165000", "141611.381000", "141612.612000", "141613.903000", "141615.142000", "141616.392000", "141617.645000", "141618.890000", "141620.135000", "141621.396000", "141622.639000", "141623.882000", "141625.140000", "141626.356000", "141627.651000", "141628.902000", "141630.116000", "141631.427000", "141632.676000", "141633.865000", "141635.134000", "141636.399000", "141637.654000", "141638.875000", "141640.144000", "141641.407000", "141642.669000", "141643.920000", "141645.139000", "141646.391000", "141647.641000", "141648.873000", "141650.141000", "141651.405000", "141652.615000", "141653.949000", "141655.160000", "141656.392000", "141657.660000", "141658.921000", "141700.151000", "141701.419000", "141702.663000", "141703.891000", "141705.164000", "141706.382000", "141707.638000", "141708.898000", "141710.133000", "141711.396000", "141712.667000", "141713.900000", "141715.139000", "141716.416000", "141717.659000", "141718.906000", "141720.164000", "141721.408000", "141722.647000", "141723.932000", "141725.186000", "141726.410000", "141727.669000", "141728.912000", "141730.173000", "141731.430000", "141732.646000", "141733.920000", "141735.154000", "141736.410000", "141737.634000", "141738.883000", "141740.151000", "141741.394000", "141742.626000", "141743.901000", "141745.178000", "141746.416000", "141747.685000", "141748.904000", "141750.158000", "141751.371000", "141752.660000", "141753.883000", "141755.136000", "141756.421000", "141757.632000", "141758.909000", "141800.152000", "141801.397000", "141802.651000", "141803.918000", "141805.185000", "141806.393000", "141807.662000", "141808.911000", "141810.183000", "141811.382000", "141812.620000", "141813.917000", "141815.207000", "141816.380000", "141817.654000", "141818.889000", "141820.137000", "141821.474000", "141822.663000", "141823.857000", "141825.161000", "141826.393000", "141827.618000", "141828.884000", "141830.132000", "141831.363000", "141832.671000", "141833.909000", "141835.205000", "141836.427000", "141837.671000", "141838.871000", "141840.143000", "141841.404000", "141842.664000", "141843.924000", "141845.121000", "141846.402000", "141847.667000", "141848.889000", "141850.139000", "141851.379000", "141852.657000", "141853.862000", "141855.102000", "141856.409000", "141857.658000", "141858.891000", "141900.144000", "141901.372000", "141902.627000", "141903.922000", "141905.142000", "141906.404000", "141907.639000", "141908.893000", "141910.143000", "141911.406000", "141912.633000", "141913.923000", "141915.156000", "141916.394000", "141917.652000", "141918.887000", "141920.143000", "141921.387000", "141922.660000", "141923.895000", "141925.129000", "141926.412000", "141927.626000", "141928.899000", "141930.153000", "141931.404000", "141932.650000", "141933.891000", "141935.161000", "141936.394000", "141937.636000", "141938.889000", "141940.170000", "141941.380000", "141942.657000", "141943.920000", "141945.142000", "141946.371000", "141947.621000", "141948.900000", "141950.166000", "141951.387000", "141952.670000", "141953.914000", "141955.151000", "141956.389000", "141957.659000", "141958.880000", "142000.163000", "142001.398000", "142002.650000", "142003.916000", "142005.152000", "142006.418000", "142007.640000", "142008.894000", "142010.146000", "142011.398000", "142012.666000", "142013.872000", "142015.174000", "142016.393000", "142017.628000", "142018.918000", "142020.157000", "142021.477000", "142022.648000", "142023.915000", "142025.167000", "142026.400000", "142027.652000", "142028.867000", "142030.164000", "142031.404000", "142032.645000", "142033.882000", "142035.164000", "142036.405000", "142037.702000"],
      "InstanceCreationTime": ["141449.096000", "141450.159000", "141451.415000", "141452.682000", "141453.912000", "141455.153000", "141456.417000", "141457.671000", "141458.884000", "141500.180000", "141501.456000", "141502.661000", "141503.901000", "141505.143000", "141506.401000", "141507.639000", "141508.952000", "141510.183000", "141511.376000", "141512.631000", "141513.883000", "141515.134000", "141516.399000", "141517.632000", "141518.890000", "141520.157000", "141521.371000", "141522.646000", "141523.885000", "141525.115000", "141526.384000", "141527.649000", "141528.900000", "141530.165000", "141531.456000", "141532.644000", "141533.903000", "141535.137000", "141536.404000", "141537.672000", "141538.875000", "141540.146000", "141541.379000", "141542.620000", "141543.894000", "141545.097000", "141546.419000", "141547.648000", "141548.902000", "141550.151000", "141551.412000", "141552.679000", "141553.884000", "141555.175000", "141556.405000", "141557.685000", "141558.924000", "141600.174000", "141601.425000", "141602.643000", "141603.891000", "141605.135000", "141606.379000", "141607.662000", "141608.915000", "141610.165000", "141611.381000", "141612.612000", "141613.903000", "141615.142000", "141616.392000", "141617.645000", "141618.890000", "141620.135000", "141621.396000", "141622.639000", "141623.882000", "141625.140000", "141626.356000", "141627.651000", "141628.902000", "141630.116000", "141631.427000", "141632.676000", "141633.865000", "141635.134000", "141636.399000", "141637.654000", "141638.875000", "141640.144000", "141641.407000", "141642.669000", "141643.920000", "141645.139000", "141646.391000", "141647.641000", "141648.873000", "141650.141000", "141651.405000", "141652.615000", "141653.949000", "141655.160000", "141656.392000", "141657.660000", "141658.921000", "141700.151000", "141701.419000", "141702.663000", "141703.891000", "141705.164000", "141706.382000", "141707.638000", "141708.898000", "141710.133000", "141711.396000", "141712.667000", "141713.900000", "141715.139000", "141716.416000", "141717.659000", "141718.906000", "141720.164000", "141721.408000", "141722.647000", "141723.932000", "141725.186000", "141726.410000", "141727.669000", "141728.912000", "141730.173000", "141731.430000", "141732.646000", "141733.920000", "141735.154000", "141736.410000", "141737.634000", "141738.883000", "141740.151000", "141741.394000", "141742.626000", "141743.901000", "141745.178000", "141746.416000", "141747.685000", "141748.904000", "141750.158000", "141751.371000", "141752.660000", "141753.883000", "141755.136000", "141756.421000", "141757.632000", "141758.909000", "141800.152000", "141801.397000", "141802.651000", "141803.918000", "141805.185000", "141806.393000", "141807.662000", "141808.911000", "141810.183000", "141811.382000", "141812.620000", "141813.917000", "141815.207000", "141816.380000", "141817.654000", "141818.889000", "141820.137000", "141821.474000", "141822.663000", "141823.857000", "141825.161000", "141826.393000", "141827.618000", "141828.884000", "141830.132000", "141831.363000", "141832.671000", "141833.909000", "141835.205000", "141836.427000", "141837.671000", "141838.871000", "141840.143000", "141841.404000", "141842.664000", "141843.924000", "141845.121000", "141846.402000", "141847.667000", "141848.889000", "141850.139000", "141851.379000", "141852.657000", "141853.862000", "141855.102000", "141856.409000", "141857.658000", "141858.891000", "141900.144000", "141901.372000", "141902.627000", "141903.922000", "141905.142000", "141906.404000", "141907.639000", "141908.893000", "141910.143000", "141911.406000", "141912.633000", "141913.923000", "141915.156000", "141916.394000", "141917.652000", "141918.887000", "141920.143000", "141921.387000", "141922.660000", "141923.895000", "141925.129000", "141926.412000", "141927.626000", "141928.899000", "141930.153000", "141931.404000", "141932.650000", "141933.891000", "141935.161000", "141936.394000", "141937.636000", "141938.889000", "141940.170000", "141941.380000", "141942.657000", "141943.920000", "141945.142000", "141946.371000", "141947.621000", "141948.900000", "141950.166000", "141951.387000", "141952.670000", "141953.914000", "141955.151000", "141956.389000", "141957.659000", "141958.880000", "142000.163000", "142001.398000", "142002.650000", "142003.916000", "142005.152000", "142006.418000", "142007.640000", "142008.894000", "142010.146000", "142011.398000", "142012.666000", "142013.872000", "142015.174000", "142016.393000", "142017.628000", "142018.918000", "142020.157000", "142021.477000", "142022.648000", "142023.915000", "142025.167000", "142026.400000", "142027.652000", "142028.867000", "142030.164000", "142031.404000", "142032.645000", "142033.882000", "142035.164000", "142036.405000", "142037.702000"],
      "InstanceNumber": [1, 2, 3, 4, 5, 6, 7, 8, 9, 10, 11, 12, 13, 14, 15, 16, 17, 18, 19, 20, 21, 22, 23, 24, 25, 26, 27, 28, 29, 30, 31, 32, 33, 34, 35, 36, 37, 38, 39, 40, 41, 42, 43, 44, 45, 46, 47, 48, 49, 50, 51, 52, 53, 54, 55, 56, 57, 58, 59, 60, 61, 62, 63, 64, 65, 66, 67, 68, 69, 70, 71, 72, 73, 74, 75, 76, 77, 78, 79, 80, 81, 82, 83, 84, 85, 86, 87, 88, 89, 90, 91, 92, 93, 94, 95, 96, 97, 98, 99, 100, 101, 102, 103, 104, 105, 106, 107, 108, 109, 110, 111, 112, 113, 114, 115, 116, 117, 118, 119, 120, 121, 122, 123, 124, 125, 126, 127, 128, 129, 130, 131, 132, 133, 134, 135, 136, 137, 138, 139, 140, 141, 142, 143, 144, 145, 146, 147, 148, 149, 150, 151, 152, 153, 154, 155, 156, 157, 158, 159, 160, 161, 162, 163, 164, 165, 166, 167, 168, 169, 170, 171, 172, 173, 174, 175, 176, 177, 178, 179, 180, 181, 182, 183, 184, 185, 186, 187, 188, 189, 190, 191, 192, 193, 194, 195, 196, 197, 198, 199, 200, 201, 202, 203, 204, 205, 206, 207, 208, 209, 210, 211, 212, 213, 214, 215, 216, 217, 218, 219, 220, 221, 222, 223, 224, 225, 226, 227, 228, 229, 230, 231, 232, 233, 234, 235, 236, 237, 238, 239, 240, 241, 242, 243, 244, 245, 246, 247, 248, 249, 250, 251, 252, 253, 254, 255, 256, 257, 258, 259, 260, 261, 262, 263, 264, 265, 266, 267, 268, 269, 270, 271, 272, 273, 274, 275, 276, 277, 278, 279, 280],
      "LargestImagePixelValue": [852, 1349, 913, 920, 839, 1267, 895, 940, 993, 988, 830, 757, 1308, 900, 801, 878, 1031, 895, 911, 889, 1025, 892, 945, 872, 911, 894, 1017, 948, 879, 1169, 972, 841, 780, 1048, 945, 895, 932, 1317, 892, 771, 850, 1252, 923, 889, 1079, 880, 741, 1074, 978, 869, 678, 1247, 965, 1126, 1011, 1259, 824, 850, 1046, 924, 919, 898, 1013, 793, 976, 1177, 857, 856, 973, 997, 909, 1011, 992, 879, 947, 1083, 933, 925, 967, 952, 865, 903, 1014, 1104, 924, 978, 1308, 895, 854, 854, 1095, 923, 1016, 1024, 1079, 1189, 845, 958, 1000, 804, 835, 1364, 864, 882, 1075, 800, 946, 967, 928, 940, 898, 824, 890, 961, 1054, 1189, 880, 876, 866, 1275, 953, 808, 876, 1042, 1166, 916, 885, 815, 863, 1148, 996, 860, 782, 1032, 1171, 917, 966, 984, 1214, 910, 822, 726, 1013, 1024, 850, 849, 1025, 1054, 932, 950, 952, 1116, 906, 1013, 972, 1232, 927, 851, 915, 1280, 886, 778, 1206, 823, 823, 863, 1174, 893, 834, 1221, 892, 833, 886, 1194, 908, 929, 1273, 816, 886, 1065, 941, 765, 1089, 921, 824, 1201, 868, 883, 855, 893, 819, 1201, 809, 753, 1234, 847, 775, 1171, 904, 825, 836, 1077, 978, 972, 1088, 1037, 1014, 900, 853, 893, 933, 989, 919, 955, 1177, 1007, 981, 1038, 942, 961, 1022, 969, 780, 794, 1286, 960, 900, 992, 961, 1175, 895, 911, 805, 725, 900, 797, 1015, 1162, 989, 937, 954, 915, 1061, 908, 942, 783, 884, 1278, 970, 937, 1023, 984, 739, 934, 1258, 986, 948, 1020, 805, 1127, 909, 938, 844, 1353, 935, 802, 879, 975, 941, 998, 969, 946, 887, 1257, 874, 784, 754, 1285, 899, 911],
      "WindowCenter": [337.0, 340.0, 337.0, 337.0, 336.0, 339.0, 337.0, 337.0, 337.0, 337.0, 336.0, 335.0, 340.0, 337.0, 336.0, 337.0, 338.0, 337.0, 337.0, 336.0, 337.0, 336.0, 337.0, 336.0, 337.0, 337.0, 338.0, 337.0, 337.0, 339.0, 337.0, 336.0, 335.0, 338.0, 337.0, 337.0, 337.0, 339.0, 336.0, 335.0, 336.0, 340.0, 337.0, 336.0, 337.0, 335.0, 334.0, 338.0, 338.0, 337.0, 335.0, 341.0, 339.0, 340.0, 337.0, 339.0, 335.0, 336.0, 338.0, 337.0, 337.0, 336.0, 337.0, 335.0, 337.0, 338.0, 336.0, 336.0, 337.0, 337.0, 336.0, 337.0, 337.0, 336.0, 337.0, 338.0, 337.0, 336.0, 336.0, 336.0, 336.0, 337.0, 338.0, 339.0, 337.0, 337.0, 340.0, 337.0, 338.0, 338.0, 339.0, 337.0, 338.0, 338.0, 338.0, 339.0, 335.0, 337.0, 337.0, 335.0, 336.0, 340.0, 336.0, 337.0, 339.0, 336.0, 338.0, 337.0, 337.0, 337.0, 336.0, 336.0, 338.0, 337.0, 338.0, 338.0, 335.0, 335.0, 335.0, 339.0, 337.0, 336.0, 336.0, 338.0, 339.0, 337.0, 336.0, 336.0, 336.0, 339.0, 337.0, 336.0, 335.0, 338.0, 339.0, 338.0, 337.0, 337.0, 339.0, 336.0, 336.0, 334.0, 338.0, 338.0, 336.0, 336.0, 337.0, 339.0, 338.0, 337.0, 337.0, 339.0, 337.0, 337.0, 337.0, 339.0, 337.0, 336.0, 337.0, 340.0, 336.0, 335.0, 338.0, 335.0, 336.0, 336.0, 339.0, 337.0, 336.0, 339.0, 336.0, 336.0, 336.0, 339.0, 336.0, 336.0, 339.0, 336.0, 336.0, 338.0, 337.0, 335.0, 338.0, 337.0, 336.0, 340.0, 336.0, 336.0, 336.0, 338.0, 336.0, 339.0, 336.0, 335.0, 340.0, 337.0, 337.0, 340.0, 337.0, 336.0, 337.0, 340.0, 339.0, 339.0, 339.0, 337.0, 337.0, 336.0, 336.0, 337.0, 338.0, 338.0, 338.0, 338.0, 340.0, 338.0, 339.0, 340.0, 340.0, 339.0, 338.0, 337.0, 335.0, 336.0, 340.0, 337.0, 337.0, 337.0, 337.0, 338.0, 336.0, 337.0, 336.0, 335.0, 337.0, 336.0, 339.0, 340.0, 338.0, 338.0, 337.0, 336.0, 338.0, 337.0, 337.0, 336.0, 337.0, 340.0, 338.0, 338.0, 338.0, 337.0, 335.0, 338.0, 341.0, 338.0, 338.0, 337.0, 335.0, 339.0, 337.0, 338.0, 336.0, 340.0, 337.0, 336.0, 336.0, 338.0, 338.0, 337.0, 337.0, 337.0, 336.0, 339.0, 336.0, 336.0, 336.0, 341.0, 339.0, 338.0],
      "WindowWidth": [727.0, 730.0, 725.0, 725.0, 723.0, 728.0, 725.0, 726.0, 725.0, 724.0, 723.0, 723.0, 730.0, 725.0, 724.0, 725.0, 726.0, 725.0, 725.0, 723.0, 725.0, 723.0, 724.0, 723.0, 725.0, 725.0, 726.0, 725.0, 725.0, 728.0, 725.0, 723.0, 722.0, 726.0, 725.0, 725.0, 724.0, 728.0, 723.0, 722.0, 724.0, 729.0, 725.0, 724.0, 725.0, 723.0, 721.0, 727.0, 727.0, 725.0, 722.0, 731.0, 728.0, 730.0, 726.0, 727.0, 722.0, 723.0, 726.0, 725.0, 725.0, 724.0, 725.0, 722.0, 724.0, 726.0, 724.0, 724.0, 725.0, 726.0, 724.0, 725.0, 725.0, 724.0, 724.0, 725.0, 724.0, 723.0, 723.0, 724.0, 724.0, 725.0, 726.0, 727.0, 725.0, 725.0, 729.0, 725.0, 726.0, 726.0, 729.0, 725.0, 727.0, 726.0, 726.0, 727.0, 723.0, 724.0, 725.0, 722.0, 723.0, 730.0, 724.0, 725.0, 727.0, 725.0, 727.0, 726.0, 725.0, 725.0, 724.0, 723.0, 726.0, 726.0, 726.0, 727.0, 722.0, 721.0, 721.0, 727.0, 724.0, 723.0, 724.0, 726.0, 728.0, 725.0, 723.0, 723.0, 724.0, 727.0, 724.0, 724.0, 723.0, 726.0, 728.0, 726.0, 726.0, 725.0, 728.0, 724.0, 723.0, 721.0, 726.0, 727.0, 724.0, 724.0, 726.0, 728.0, 726.0, 726.0, 726.0, 727.0, 725.0, 725.0, 724.0, 727.0, 725.0, 724.0, 725.0, 729.0, 724.0, 722.0, 726.0, 722.0, 723.0, 724.0, 728.0, 725.0, 724.0, 728.0, 724.0, 723.0, 723.0, 728.0, 724.0, 724.0, 728.0, 723.0, 724.0, 726.0, 725.0, 722.0, 727.0, 726.0, 725.0, 729.0, 724.0, 724.0, 724.0, 726.0, 724.0, 728.0, 723.0, 723.0, 729.0, 726.0, 725.0, 730.0, 725.0, 725.0, 726.0, 730.0, 728.0, 728.0, 727.0, 725.0, 725.0, 723.0, 724.0, 725.0, 726.0, 727.0, 726.0, 727.0, 729.0, 727.0, 728.0, 731.0, 730.0, 729.0, 727.0, 725.0, 722.0, 723.0, 728.0, 725.0, 725.0, 725.0, 724.0, 727.0, 723.0, 724.0, 723.0, 722.0, 725.0, 724.0, 728.0, 729.0, 727.0, 726.0, 726.0, 724.0, 726.0, 725.0, 725.0, 724.0, 725.0, 730.0, 727.0, 726.0, 726.0, 726.0, 723.0, 726.0, 730.0, 727.0, 726.0, 725.0, 722.0, 727.0, 725.0, 726.0, 725.0, 730.0, 725.0, 724.0, 724.0, 726.0, 726.0, 725.0, 725.0, 725.0, 724.0, 727.0, 723.0, 723.0, 725.0, 732.0, 728.0, 727.0]
    },
    "slices": {}
  }
}