{
  "AcquisitionMatrixPE": 96,
  "AcquisitionNumber": 1,
  "AcquisitionTime": "18:01:49.982500",
  "BandwidthPerPixelPhaseEncode": 18.939,
  "BaseResolution": 96,
  "BodyPartExamined": "BRAIN",
  "ConsistencyInfo": "N4_VE11C_LATEST_20160120",
  "ConversionSoftware": "dcm2niix",
  "ConversionSoftwareVersion": "v1.0.20170923 (OpenJPEG build) GCC6.3.0",
  "DerivedVendorReportedEchoSpacing": 0.000550011,
  "DeviceSerialNumber": "66112",
  "DwellTime": 2.3e-06,
  "EchoTime": 0.033,
  "EchoTrainLength": 96,
  "EffectiveEchoSpacing": 0.000550011,
  "FlipAngle": 64,
  "ImageType": [
    "ORIGINAL",
    "PRIMARY",
    "FMRI",
    "NONE",
    "ND",
    "NORM",
    "MOSAIC"
],
  "InstitutionAddress": "Maynard_3_Hanover_NH_US_03755",
  "InstitutionName": "Dartmouth_College_-_PBS",
  "MagneticFieldStrength": 3,
  "Manufacturer": "Siemens",
  "ManufacturersModelName": "Prisma",
  "Modality": "MR",
  "MultibandAccelerationFactor": 4,
  "PartialFourier": 1,
  "PercentPhaseFOV": 100,
  "PhaseEncodingDirection": "j-",
  "PhaseEncodingSteps": 96,
  "PhaseResolution": 1,
  "ProcedureStepDescription": "Gobbini_Matteo_1017_famface-angles",
  "ProtocolName": "func_run-08_task-str1back",
  "PulseSequenceDetails": "%SiemensSeq%_ep2d_bold",
  "ReceiveCoilActiveElements": "HEA;HEP",
  "ReceiveCoilName": "Head_32",
  "ReconMatrixPE": 96,
  "RepetitionTime": 1.25,
  "ScanOptions": "FS",
  "ScanningSequence": "EP",
  "SequenceName": "_epfid2d1_96",
  "SequenceVariant": "SK",
  "SeriesDescription": "func_run-08_task-str1back",
  "SliceTiming": [0.88, 0, 0.615, 0.0875, 0.7025, 0.1775, 0.7925, 0.3525, 0.9675, 0.44, 1.055, 0.5275, 1.1425, 0.265, 0.88, 0, 0.615, 0.0875, 0.7025, 0.1775, 0.7925, 0.3525, 0.9675, 0.44, 1.055, 0.5275, 1.1425, 0.265, 0.88, 0, 0.615, 0.0875, 0.7025, 0.1775, 0.7925, 0.3525, 0.9675, 0.44, 1.055, 0.5275, 1.1425, 0.265, 0.88, 0, 0.615, 0.0875, 0.7025, 0.1775, 0.7925, 0.3525, 0.9675, 0.44, 1.055, 0.5275, 1.1425, 0.265],
  "SoftwareVersions": "syngo_MR_E11",
  "StationName": "AWP66112",
  "TaskName": "str1back",
  "TotalReadoutTime": 0.0522511,
  "dcmmeta_affine": [
    [-2.4995944499969482, -0.04275773838162422, -0.014108624309301376, 124.7601318359375],
    [-0.0443987213075161, 2.470911741256714, 0.3776552081108093, -94.64942932128906],
    [-0.007485393900424242, -0.37784454226493835, 2.4712703227996826, -55.4096565246582],
    [0.0, 0.0, 0.0, 1.0]
],
  "dcmmeta_reorient_transform": [
    [0.0, -1.0, 0.0, 95.0],
    [1.0, 0.0, 0.0, 0.0],
    [0.0, 0.0, 1.0, 0.0],
    [0.0, 0.0, 0.0, 1.0]
],
  "dcmmeta_shape": [96, 96, 56, 280],
  "dcmmeta_slice_dim": 2,
  "dcmmeta_version": 0.6,
  "global": {
    "const": {
      "AccessionNumber": "A000295",
      "AcquisitionMatrix": [96, 0, 0, 96],
      "AngioFlag": "N",
      "BitsAllocated": 16,
      "BitsStored": 12,
      "BodyPartExamined": "BRAIN",
      "Columns": 768,
      "EchoNumbers": 1,
      "EchoTime": 33.0,
      "EchoTrainLength": 96,
      "FlipAngle": 64.0,
      "HighBit": 11,
      "ImageOrientationPatient": [0.99983780463524, 0.01775948880109, -0.002994157597, -0.0171030960153, 0.98836473294099, 0.15113781388247],
      "ImagePositionPatient": [-946.19530356674, -985.23154016488, -215.74555895985],
      "ImageType": [
        "ORIGINAL",
        "PRIMARY",
        "FMRI",
        "NONE",
        "ND",
        "NORM",
        "MOSAIC"
],
      "ImagedNucleus": "1H",
      "ImagingFrequency": 123.252371,
      "InPlanePhaseEncodingDirection": "COL",
      "MRAcquisitionType": "2D",
      "MagneticFieldStrength": 3.0,
      "Manufacturer": "SIEMENS",
      "ManufacturerModelName": "Prisma",
      "Modality": "MR",
      "NumberOfAverages": 1.0,
      "NumberOfPhaseEncodingSteps": 96,
      "PercentPhaseFieldOfView": 100.0,
      "PercentSampling": 100.0,
      "PerformedProcedureStepStartTime": "165333.439000",
      "PhotometricInterpretation": "MONOCHROME2",
      "PixelBandwidth": 2265.0,
      "PixelRepresentation": 0,
      "PixelSpacing": [2.5, 2.5],
      "PositionReferenceIndicator": "",
      "ProtocolName": "func_run-08_task-str1back",
      "RepetitionTime": 1250.0,
      "Rows": 768,
      "SAR": 0.05259224264587,
      "SamplesPerPixel": 1,
      "ScanOptions": "FS",
      "ScanningSequence": "EP",
      "SequenceName": "*epfid2d1_96",
      "SequenceVariant": "SK",
      "SeriesDescription": "func_run-08_task-str1back",
      "SeriesNumber": 57,
      "SeriesTime": "180151.260000",
      "SliceLocation": -69.774916748694,
      "SliceThickness": 2.5,
      "SmallestImagePixelValue": 0,
      "SoftwareVersions": "syngo MR E11",
      "SpacingBetweenSlices": 2.4999999103724,
      "SpecificCharacterSet": "ISO_IR 100",
      "StudyID": "4",
      "StudyTime": "165333.388000",
      "TransmitCoilName": "Body",
      "VariableFlipAngleFlag": "N",
      "WindowCenterWidthExplanation": "Algo1",
      "dBdt": 0.0},
    "slices": {}
  },
  "time": {
    "samples": {
      "AcquisitionNumber": [1, 2, 3, 4, 5, 6, 7, 8, 9, 10, 11, 12, 13, 14, 15, 16, 17, 18, 19, 20, 21, 22, 23, 24, 25, 26, 27, 28, 29, 30, 31, 32, 33, 34, 35, 36, 37, 38, 39, 40, 41, 42, 43, 44, 45, 46, 47, 48, 49, 50, 51, 52, 53, 54, 55, 56, 57, 58, 59, 60, 61, 62, 63, 64, 65, 66, 67, 68, 69, 70, 71, 72, 73, 74, 75, 76, 77, 78, 79, 80, 81, 82, 83, 84, 85, 86, 87, 88, 89, 90, 91, 92, 93, 94, 95, 96, 97, 98, 99, 100, 101, 102, 103, 104, 105, 106, 107, 108, 109, 110, 111, 112, 113, 114, 115, 116, 117, 118, 119, 120, 121, 122, 123, 124, 125, 126, 127, 128, 129, 130, 131, 132, 133, 134, 135, 136, 137, 138, 139, 140, 141, 142, 143, 144, 145, 146, 147, 148, 149, 150, 151, 152, 153, 154, 155, 156, 157, 158, 159, 160, 161, 162, 163, 164, 165, 166, 167, 168, 169, 170, 171, 172, 173, 174, 175, 176, 177, 178, 179, 180, 181, 182, 183, 184, 185, 186, 187, 188, 189, 190, 191, 192, 193, 194, 195, 196, 197, 198, 199, 200, 201, 202, 203, 204, 205, 206, 207, 208, 209, 210, 211, 212, 213, 214, 215, 216, 217, 218, 219, 220, 221, 222, 223, 224, 225, 226, 227, 228, 229, 230, 231, 232, 233, 234, 235, 236, 237, 238, 239, 240, 241, 242, 243, 244, 245, 246, 247, 248, 249, 250, 251, 252, 253, 254, 255, 256, 257, 258, 259, 260, 261, 262, 263, 264, 265, 266, 267, 268, 269, 270, 271, 272, 273, 274, 275, 276, 277, 278, 279, 280],
      "AcquisitionTime": ["180149.982500", "180151.232500", "180152.482500", "180153.732500", "180154.982500", "180156.232500", "180157.482500", "180158.732500", "180159.982500", "180201.232500", "180202.482500", "180203.732500", "180204.982500", "180206.232500", "180207.482500", "180208.732500", "180209.982500", "180211.232500", "180212.482500", "180213.732500", "180214.982500", "180216.232500", "180217.482500", "180218.732500", "180219.982500", "180221.232500", "180222.482500", "180223.732500", "180224.982500", "180226.232500", "180227.482500", "180228.732500", "180229.982500", "180231.232500", "180232.482500", "180233.732500", "180234.982500", "180236.232500", "180237.482500", "180238.732500", "180239.982500", "180241.232500", "180242.482500", "180243.732500", "180244.982500", "180246.232500", "180247.482500", "180248.732500", "180249.982500", "180251.232500", "180252.482500", "180253.732500", "180254.982500", "180256.232500", "180257.482500", "180258.732500", "180259.982500", "180301.232500", "180302.482500", "180303.732500", "180304.982500", "180306.232500", "180307.482500", "180308.732500", "180309.982500", "180311.232500", "180312.482500", "180313.732500", "180314.982500", "180316.232500", "180317.482500", "180318.732500", "180319.982500", "180321.232500", "180322.482500", "180323.732500", "180324.982500", "180326.232500", "180327.482500", "180328.732500", "180329.982500", "180331.232500", "180332.482500", "180333.732500", "180334.982500", "180336.232500", "180337.482500", "180338.732500", "180339.982500", "180341.232500", "180342.482500", "180343.732500", "180344.982500", "180346.232500", "180347.482500", "180348.732500", "180349.982500", "180351.232500", "180352.482500", "180353.732500", "180354.982500", "180356.232500", "180357.482500", "180358.732500", "180359.982500", "180401.232500", "180402.482500", "180403.732500", "180404.982500", "180406.232500", "180407.482500", "180408.732500", "180409.982500", "180411.232500", "180412.482500", "180413.732500", "180414.982500", "180416.232500", "180417.482500", "180418.732500", "180419.982500", "180421.232500", "180422.482500", "180423.732500", "180424.982500", "180426.232500", "180427.482500", "180428.732500", "180429.982500", "180431.232500", "180432.482500", "180433.732500", "180434.982500", "180436.232500", "180437.482500", "180438.732500", "180439.982500", "180441.232500", "180442.482500", "180443.732500", "180444.982500", "180446.232500", "180447.482500", "180448.732500", "180449.982500", "180451.232500", "180452.482500", "180453.732500", "180454.982500", "180456.232500", "180457.482500", "180458.732500", "180459.982500", "180501.232500", "180502.482500", "180503.732500", "180504.982500", "180506.232500", "180507.482500", "180508.732500", "180509.982500", "180511.232500", "180512.482500", "180513.732500", "180514.982500", "180516.232500", "180517.482500", "180518.732500", "180519.982500", "180521.232500", "180522.482500", "180523.732500", "180524.982500", "180526.232500", "180527.482500", "180528.732500", "180529.982500", "180531.232500", "180532.482500", "180533.732500", "180534.982500", "180536.232500", "180537.482500", "180538.732500", "180539.982500", "180541.232500", "180542.482500", "180543.732500", "180544.982500", "180546.232500", "180547.482500", "180548.732500", "180549.982500", "180551.232500", "180552.482500", "180553.732500", "180554.982500", "180556.232500", "180557.482500", "180558.732500", "180559.982500", "180601.232500", "180602.482500", "180603.732500", "180604.982500", "180606.232500", "180607.482500", "180608.732500", "180609.982500", "180611.232500", "180612.482500", "180613.732500", "180614.982500", "180616.232500", "180617.482500", "180618.732500", "180619.982500", "180621.232500", "180622.482500", "180623.732500", "180624.982500", "180626.232500", "180627.482500", "180628.732500", "180629.982500", "180631.232500", "180632.482500", "180633.732500", "180634.982500", "180636.232500", "180637.482500", "180638.732500", "180639.982500", "180641.232500", "180642.482500", "180643.732500", "180644.982500", "180646.232500", "180647.482500", "180648.732500", "180649.982500", "180651.232500", "180652.482500", "180653.732500", "180654.982500", "180656.232500", "180657.482500", "180658.732500", "180659.982500", "180701.232500", "180702.482500", "180703.732500", "180704.982500", "180706.232500", "180707.482500", "180708.732500", "180709.982500", "180711.232500", "180712.482500", "180713.732500", "180714.982500", "180716.232500", "180717.482500", "180718.732500", "180719.982500", "180721.232500", "180722.482500", "180723.732500", "180724.982500", "180726.232500", "180727.482500", "180728.732500", "180729.982500", "180731.232500", "180732.482500", "180733.732500", "180734.982500", "180736.232500", "180737.482500", "180738.732500"],
      "ContentTime": ["180151.265000", "180152.326000", "180153.585000", "180154.835000", "180156.111000", "180157.335000", "180158.608000", "180159.872000", "180201.127000", "180202.358000", "180203.597000", "180204.845000", "180206.086000", "180207.347000", "180208.588000", "180209.829000", "180211.076000", "180212.347000", "180213.574000", "180214.844000", "180216.071000", "180217.349000", "180218.628000", "180219.858000", "180221.088000", "180222.327000", "180223.607000", "180224.866000", "180226.114000", "180227.346000", "180228.590000", "180229.874000", "180231.105000", "180232.313000", "180233.573000", "180234.848000", "180236.093000", "180237.371000", "180238.626000", "180239.831000", "180241.093000", "180242.329000", "180243.576000", "180244.845000", "180246.084000", "180247.317000", "180248.582000", "180249.855000", "180251.089000", "180252.353000", "180253.595000", "180254.861000", "180256.115000", "180257.331000", "180258.609000", "180259.862000", "180301.083000", "180302.358000", "180303.593000", "180304.827000", "180306.109000", "180307.366000", "180308.589000", "180309.798000", "180311.043000", "180312.354000", "180313.622000", "180314.845000", "180316.110000", "180317.321000", "180318.591000", "180319.830000", "180321.110000", "180322.330000", "180323.557000", "180324.813000", "180326.081000", "180327.329000", "180328.599000", "180329.850000", "180331.089000", "180332.334000", "180333.590000", "180334.861000", "180336.113000", "180337.363000", "180338.623000", "180339.849000", "180341.088000", "180342.337000", "180343.592000", "180344.845000", "180346.088000", "180347.326000", "180348.615000", "180349.835000", "180351.114000", "180352.363000", "180353.598000", "180354.833000", "180356.097000", "180357.365000", "180358.574000", "180359.852000", "180401.115000", "180402.350000", "180403.645000", "180404.871000", "180406.117000", "180407.328000", "180408.598000", "180409.861000", "180411.103000", "180412.340000", "180413.618000", "180414.856000", "180416.074000", "180417.390000", "180418.598000", "180419.831000", "180421.095000", "180422.394000", "180423.596000", "180424.849000", "180426.111000", "180427.355000", "180428.597000", "180429.848000", "180431.090000", "180432.344000", "180433.585000", "180434.843000", "180436.137000", "180437.372000", "180438.609000", "180439.855000", "180441.163000", "180442.347000", "180443.662000", "180444.847000", "180446.086000", "180447.330000", "180448.592000", "180449.874000", "180451.089000", "180452.373000", "180453.608000", "180454.847000", "180456.104000", "180457.364000", "180458.601000", "180459.826000", "180501.124000", "180502.348000", "180503.604000", "180504.852000", "180506.118000", "180507.355000", "180508.621000", "180509.813000", "180511.097000", "180512.406000", "180513.580000", "180514.864000", "180516.118000", "180517.353000", "180518.612000", "180519.848000", "180521.085000", "180522.337000", "180523.624000", "180524.837000", "180526.091000", "180527.343000", "180528.593000", "180529.827000", "180531.093000", "180532.385000", "180533.642000", "180534.852000", "180536.120000", "180537.310000", "180538.583000", "180539.854000", "180541.152000", "180542.358000", "180543.593000", "180544.893000", "180546.086000", "180547.332000", "180548.573000", "180549.858000", "180551.094000", "180552.368000", "180553.589000", "180554.839000", "180556.102000", "180557.355000", "180558.591000", "180559.869000", "180601.091000", "180602.328000", "180603.586000", "180604.835000", "180606.058000", "180607.335000", "180608.581000", "180609.863000", "180611.096000", "180612.333000", "180613.595000", "180614.848000", "180616.086000", "180617.346000", "180618.631000", "180619.845000", "180621.104000", "180622.348000", "180623.609000", "180624.845000", "180626.124000", "180627.318000", "180628.608000", "180629.857000", "180631.088000", "180632.353000", "180633.602000", "180634.852000", "180636.132000", "180637.371000", "180638.583000", "180639.861000", "180641.092000", "180642.349000", "180643.594000", "180644.844000", "180646.096000", "180647.308000", "180648.638000", "180649.838000", "180651.103000", "180652.343000", "180653.616000", "180654.845000", "180656.073000", "180657.362000", "180658.603000", "180659.893000", "180701.113000", "180702.346000", "180703.576000", "180704.871000", "180706.095000", "180707.350000", "180708.601000", "180709.867000", "180711.070000", "180712.347000", "180713.605000", "180714.846000", "180716.135000", "180717.348000", "180718.579000", "180719.872000", "180721.109000", "180722.351000", "180723.640000", "180724.848000", "180726.062000", "180727.316000", "180728.619000", "180729.893000", "180731.105000", "180732.339000", "180733.542000", "180734.889000", "180736.114000", "180737.372000", "180738.639000", "180739.922000"],
      "InstanceCreationTime": ["180151.265000", "180152.326000", "180153.585000", "180154.835000", "180156.111000", "180157.335000", "180158.608000", "180159.872000", "180201.127000", "180202.358000", "180203.597000", "180204.845000", "180206.086000", "180207.347000", "180208.588000", "180209.829000", "180211.076000", "180212.347000", "180213.574000", "180214.844000", "180216.071000", "180217.349000", "180218.628000", "180219.858000", "180221.088000", "180222.327000", "180223.607000", "180224.866000", "180226.114000", "180227.346000", "180228.590000", "180229.874000", "180231.105000", "180232.313000", "180233.573000", "180234.848000", "180236.093000", "180237.371000", "180238.626000", "180239.831000", "180241.093000", "180242.329000", "180243.576000", "180244.845000", "180246.084000", "180247.317000", "180248.582000", "180249.855000", "180251.089000", "180252.353000", "180253.595000", "180254.861000", "180256.115000", "180257.331000", "180258.609000", "180259.862000", "180301.083000", "180302.358000", "180303.593000", "180304.827000", "180306.109000", "180307.366000", "180308.589000", "180309.798000", "180311.043000", "180312.354000", "180313.622000", "180314.845000", "180316.110000", "180317.321000", "180318.591000", "180319.830000", "180321.110000", "180322.330000", "180323.557000", "180324.813000", "180326.081000", "180327.329000", "180328.599000", "180329.850000", "180331.089000", "180332.334000", "180333.590000", "180334.861000", "180336.113000", "180337.363000", "180338.623000", "180339.849000", "180341.088000", "180342.337000", "180343.592000", "180344.845000", "180346.088000", "180347.326000", "180348.615000", "180349.835000", "180351.114000", "180352.363000", "180353.598000", "180354.833000", "180356.097000", "180357.365000", "180358.574000", "180359.852000", "180401.115000", "180402.350000", "180403.645000", "180404.871000", "180406.117000", "180407.328000", "180408.598000", "180409.861000", "180411.103000", "180412.340000", "180413.618000", "180414.856000", "180416.074000", "180417.390000", "180418.598000", "180419.831000", "180421.095000", "180422.394000", "180423.596000", "180424.849000", "180426.111000", "180427.355000", "180428.597000", "180429.848000", "180431.090000", "180432.344000", "180433.585000", "180434.843000", "180436.137000", "180437.372000", "180438.609000", "180439.855000", "180441.163000", "180442.347000", "180443.662000", "180444.847000", "180446.086000", "180447.330000", "180448.592000", "180449.874000", "180451.089000", "180452.373000", "180453.608000", "180454.847000", "180456.104000", "180457.364000", "180458.601000", "180459.826000", "180501.124000", "180502.348000", "180503.604000", "180504.852000", "180506.118000", "180507.355000", "180508.621000", "180509.813000", "180511.097000", "180512.406000", "180513.580000", "180514.864000", "180516.118000", "180517.353000", "180518.612000", "180519.848000", "180521.085000", "180522.337000", "180523.624000", "180524.837000", "180526.091000", "180527.343000", "180528.593000", "180529.827000", "180531.093000", "180532.385000", "180533.642000", "180534.852000", "180536.120000", "180537.310000", "180538.583000", "180539.854000", "180541.152000", "180542.358000", "180543.593000", "180544.893000", "180546.086000", "180547.332000", "180548.573000", "180549.858000", "180551.094000", "180552.368000", "180553.589000", "180554.839000", "180556.102000", "180557.355000", "180558.591000", "180559.869000", "180601.091000", "180602.328000", "180603.586000", "180604.835000", "180606.058000", "180607.335000", "180608.581000", "180609.863000", "180611.096000", "180612.333000", "180613.595000", "180614.848000", "180616.086000", "180617.346000", "180618.631000", "180619.845000", "180621.104000", "180622.348000", "180623.609000", "180624.845000", "180626.124000", "180627.318000", "180628.608000", "180629.857000", "180631.088000", "180632.353000", "180633.602000", "180634.852000", "180636.132000", "180637.371000", "180638.583000", "180639.861000", "180641.092000", "180642.349000", "180643.594000", "180644.844000", "180646.096000", "180647.308000", "180648.638000", "180649.838000", "180651.103000", "180652.343000", "180653.616000", "180654.845000", "180656.073000", "180657.362000", "180658.603000", "180659.893000", "180701.113000", "180702.346000", "180703.576000", "180704.871000", "180706.095000", "180707.350000", "180708.601000", "180709.867000", "180711.070000", "180712.347000", "180713.605000", "180714.846000", "180716.135000", "180717.348000", "180718.579000", "180719.872000", "180721.109000", "180722.351000", "180723.640000", "180724.848000", "180726.062000", "180727.316000", "180728.619000", "180729.893000", "180731.105000", "180732.339000", "180733.542000", "180734.889000", "180736.114000", "180737.372000", "180738.639000", "180739.922000"],
      "InstanceNumber": [1, 2, 3, 4, 5, 6, 7, 8, 9, 10, 11, 12, 13, 14, 15, 16, 17, 18, 19, 20, 21, 22, 23, 24, 25, 26, 27, 28, 29, 30, 31, 32, 33, 34, 35, 36, 37, 38, 39, 40, 41, 42, 43, 44, 45, 46, 47, 48, 49, 50, 51, 52, 53, 54, 55, 56, 57, 58, 59, 60, 61, 62, 63, 64, 65, 66, 67, 68, 69, 70, 71, 72, 73, 74, 75, 76, 77, 78, 79, 80, 81, 82, 83, 84, 85, 86, 87, 88, 89, 90, 91, 92, 93, 94, 95, 96, 97, 98, 99, 100, 101, 102, 103, 104, 105, 106, 107, 108, 109, 110, 111, 112, 113, 114, 115, 116, 117, 118, 119, 120, 121, 122, 123, 124, 125, 126, 127, 128, 129, 130, 131, 132, 133, 134, 135, 136, 137, 138, 139, 140, 141, 142, 143, 144, 145, 146, 147, 148, 149, 150, 151, 152, 153, 154, 155, 156, 157, 158, 159, 160, 161, 162, 163, 164, 165, 166, 167, 168, 169, 170, 171, 172, 173, 174, 175, 176, 177, 178, 179, 180, 181, 182, 183, 184, 185, 186, 187, 188, 189, 190, 191, 192, 193, 194, 195, 196, 197, 198, 199, 200, 201, 202, 203, 204, 205, 206, 207, 208, 209, 210, 211, 212, 213, 214, 215, 216, 217, 218, 219, 220, 221, 222, 223, 224, 225, 226, 227, 228, 229, 230, 231, 232, 233, 234, 235, 236, 237, 238, 239, 240, 241, 242, 243, 244, 245, 246, 247, 248, 249, 250, 251, 252, 253, 254, 255, 256, 257, 258, 259, 260, 261, 262, 263, 264, 265, 266, 267, 268, 269, 270, 271, 272, 273, 274, 275, 276, 277, 278, 279, 280],
      "LargestImagePixelValue": [1467, 1107, 1042, 1194, 1144, 941, 956, 1055, 836, 1495, 949, 1034, 1125, 937, 900, 939, 1218, 959, 1070, 986, 1340, 931, 984, 1336, 930, 936, 882, 868, 858, 832, 927, 1206, 1271, 1152, 897, 1046, 969, 967, 1044, 1169, 1224, 944, 982, 857, 887, 863, 914, 1158, 821, 970, 1363, 1106, 1089, 897, 1260, 912, 999, 1245, 1239, 918, 968, 847, 959, 1103, 926, 987, 1336, 951, 972, 842, 1208, 941, 871, 1375, 1096, 991, 908, 1314, 930, 945, 1337, 1073, 1051, 1045, 1139, 1228, 946, 907, 1145, 930, 960, 978, 1448, 1103, 847, 1035, 1037, 1067, 1028, 1367, 943, 992, 1013, 882, 914, 952, 883, 1045, 1197, 1046, 1021, 1294, 872, 1026, 855, 913, 948, 1188, 1522, 937, 944, 978, 949, 967, 1237, 893, 866, 1547, 959, 1048, 839, 982, 1237, 860, 898, 879, 1096, 1063, 831, 1314, 927, 891, 1064, 875, 836, 1114, 936, 972, 1280, 964, 1077, 1053, 804, 1428, 965, 1059, 917, 1370, 965, 982, 1424, 1079, 969, 976, 912, 1461, 917, 1034, 821, 847, 885, 1079, 808, 1324, 941, 983, 930, 1068, 864, 974, 816, 1510, 1101, 1302, 1096, 970, 983, 925, 1141, 946, 981, 1369, 1310, 1042, 1028, 890, 1030, 1037, 857, 1301, 963, 852, 1405, 950, 1027, 882, 1295, 956, 1313, 1000, 1049, 889, 1184, 955, 1169, 928, 798, 1267, 979, 1404, 858, 909, 1121, 970, 1058, 1031, 992, 861, 879, 879, 1409, 897, 1192, 944, 968, 1065, 1002, 1031, 1009, 1014, 947, 1206, 1144, 937, 817, 1002, 973, 1016, 951, 1227, 924, 913, 982, 1326, 1006, 862, 1404, 927, 997, 821, 1243, 1059, 812, 1045, 976, 1320, 1146, 1445, 1059, 957, 1163, 1070, 1001, 967, 958, 1189, 976, 992, 973, 866],
      "WindowCenter": [387.0, 382.0, 381.0, 382.0, 381.0, 380.0, 381.0, 381.0, 379.0, 384.0, 380.0, 380.0, 381.0, 379.0, 379.0, 380.0, 382.0, 380.0, 381.0, 380.0, 382.0, 380.0, 380.0, 383.0, 380.0, 380.0, 380.0, 380.0, 380.0, 380.0, 381.0, 383.0, 383.0, 382.0, 379.0, 381.0, 379.0, 379.0, 380.0, 381.0, 381.0, 379.0, 379.0, 378.0, 379.0, 379.0, 380.0, 382.0, 379.0, 381.0, 383.0, 381.0, 380.0, 379.0, 381.0, 379.0, 380.0, 381.0, 382.0, 379.0, 379.0, 378.0, 380.0, 382.0, 380.0, 380.0, 383.0, 380.0, 381.0, 379.0, 382.0, 380.0, 380.0, 383.0, 382.0, 380.0, 379.0, 383.0, 380.0, 380.0, 384.0, 382.0, 381.0, 380.0, 381.0, 381.0, 379.0, 379.0, 381.0, 379.0, 379.0, 379.0, 382.0, 380.0, 378.0, 381.0, 381.0, 380.0, 380.0, 383.0, 379.0, 379.0, 380.0, 378.0, 379.0, 381.0, 380.0, 381.0, 382.0, 381.0, 381.0, 382.0, 379.0, 380.0, 380.0, 381.0, 381.0, 382.0, 384.0, 379.0, 379.0, 380.0, 379.0, 380.0, 382.0, 378.0, 379.0, 383.0, 380.0, 380.0, 378.0, 380.0, 382.0, 379.0, 379.0, 379.0, 380.0, 380.0, 378.0, 383.0, 379.0, 380.0, 381.0, 379.0, 380.0, 383.0, 381.0, 382.0, 384.0, 380.0, 381.0, 381.0, 378.0, 383.0, 379.0, 380.0, 379.0, 382.0, 379.0, 379.0, 382.0, 380.0, 378.0, 378.0, 378.0, 382.0, 378.0, 379.0, 377.0, 377.0, 379.0, 381.0, 378.0, 383.0, 380.0, 380.0, 380.0, 381.0, 380.0, 382.0, 380.0, 385.0, 382.0, 382.0, 381.0, 380.0, 380.0, 379.0, 382.0, 379.0, 379.0, 382.0, 381.0, 379.0, 379.0, 378.0, 380.0, 380.0, 379.0, 383.0, 380.0, 379.0, 383.0, 379.0, 380.0, 379.0, 383.0, 380.0, 383.0, 380.0, 380.0, 379.0, 382.0, 380.0, 381.0, 380.0, 378.0, 383.0, 381.0, 383.0, 379.0, 379.0, 382.0, 381.0, 381.0, 380.0, 380.0, 378.0, 379.0, 379.0, 383.0, 380.0, 382.0, 380.0, 380.0, 381.0, 380.0, 381.0, 380.0, 380.0, 379.0, 381.0, 381.0, 379.0, 377.0, 380.0, 379.0, 380.0, 379.0, 381.0, 379.0, 380.0, 380.0, 383.0, 380.0, 378.0, 382.0, 379.0, 381.0, 379.0, 383.0, 381.0, 379.0, 382.0, 382.0, 384.0, 382.0, 383.0, 380.0, 379.0, 381.0, 380.0, 379.0, 380.0, 379.0, 382.0, 381.0, 381.0, 381.0, 379.0],
      "WindowWidth": [821.0, 813.0, 810.0, 812.0, 811.0, 810.0, 811.0, 811.0, 808.0, 815.0, 810.0, 810.0, 810.0, 808.0, 808.0, 809.0, 812.0, 810.0, 810.0, 809.0, 813.0, 809.0, 809.0, 813.0, 809.0, 809.0, 809.0, 809.0, 809.0, 809.0, 811.0, 814.0, 813.0, 813.0, 809.0, 810.0, 808.0, 808.0, 809.0, 810.0, 811.0, 807.0, 807.0, 806.0, 807.0, 808.0, 810.0, 813.0, 809.0, 812.0, 815.0, 811.0, 810.0, 807.0, 811.0, 808.0, 809.0, 811.0, 812.0, 807.0, 808.0, 806.0, 809.0, 812.0, 809.0, 810.0, 813.0, 810.0, 810.0, 808.0, 813.0, 810.0, 810.0, 814.0, 812.0, 809.0, 808.0, 813.0, 809.0, 809.0, 815.0, 812.0, 811.0, 810.0, 810.0, 810.0, 807.0, 807.0, 810.0, 808.0, 808.0, 807.0, 811.0, 809.0, 806.0, 810.0, 810.0, 810.0, 809.0, 813.0, 807.0, 808.0, 808.0, 806.0, 808.0, 810.0, 809.0, 812.0, 813.0, 811.0, 810.0, 812.0, 808.0, 810.0, 809.0, 811.0, 811.0, 813.0, 815.0, 808.0, 808.0, 809.0, 808.0, 809.0, 812.0, 807.0, 807.0, 814.0, 809.0, 810.0, 807.0, 809.0, 812.0, 807.0, 808.0, 807.0, 810.0, 809.0, 807.0, 813.0, 808.0, 809.0, 810.0, 808.0, 809.0, 815.0, 812.0, 812.0, 815.0, 810.0, 811.0, 811.0, 807.0, 814.0, 808.0, 809.0, 808.0, 812.0, 807.0, 807.0, 810.0, 808.0, 806.0, 806.0, 805.0, 810.0, 805.0, 807.0, 804.0, 805.0, 807.0, 811.0, 807.0, 813.0, 810.0, 809.0, 808.0, 811.0, 809.0, 813.0, 810.0, 817.0, 812.0, 812.0, 811.0, 809.0, 809.0, 808.0, 811.0, 809.0, 808.0, 812.0, 811.0, 807.0, 807.0, 805.0, 808.0, 809.0, 808.0, 813.0, 809.0, 808.0, 813.0, 808.0, 809.0, 808.0, 813.0, 809.0, 813.0, 809.0, 810.0, 808.0, 811.0, 809.0, 811.0, 809.0, 807.0, 813.0, 810.0, 813.0, 808.0, 809.0, 812.0, 810.0, 811.0, 809.0, 809.0, 806.0, 808.0, 809.0, 814.0, 809.0, 812.0, 809.0, 809.0, 811.0, 810.0, 810.0, 808.0, 809.0, 808.0, 810.0, 810.0, 807.0, 805.0, 808.0, 808.0, 809.0, 808.0, 811.0, 808.0, 809.0, 810.0, 813.0, 809.0, 806.0, 812.0, 808.0, 810.0, 808.0, 813.0, 811.0, 809.0, 813.0, 813.0, 815.0, 812.0, 814.0, 809.0, 808.0, 810.0, 809.0, 808.0, 809.0, 807.0, 812.0, 810.0, 810.0, 810.0, 809.0]
    },
    "slices": {}
  }
}