{
  "AcquisitionMatrixPE": 96,
  "AcquisitionNumber": 1,
  "AcquisitionTime": "18:23:55.115000",
  "BandwidthPerPixelPhaseEncode": 18.939,
  "BaseResolution": 96,
  "BodyPartExamined": "BRAIN",
  "ConsistencyInfo": "N4_VE11C_LATEST_20160120",
  "ConversionSoftware": "dcm2niix",
  "ConversionSoftwareVersion": "v1.0.20170923 (OpenJPEG build) GCC6.3.0",
  "DerivedVendorReportedEchoSpacing": 0.000550011,
  "DeviceSerialNumber": "66112",
  "DwellTime": 2.3e-06,
  "EchoTime": 0.033,
  "EchoTrainLength": 96,
  "EffectiveEchoSpacing": 0.000550011,
  "FlipAngle": 64,
  "ImageType": [
    "ORIGINAL",
    "PRIMARY",
    "FMRI",
    "NONE",
    "ND",
    "NORM",
    "MOSAIC"
],
  "InstitutionAddress": "Maynard_3_Hanover_NH_US_03755",
  "InstitutionName": "Dartmouth_College_-_PBS",
  "MagneticFieldStrength": 3,
  "Manufacturer": "Siemens",
  "ManufacturersModelName": "Prisma",
  "Modality": "MR",
  "MultibandAccelerationFactor": 4,
  "PartialFourier": 1,
  "PercentPhaseFOV": 100,
  "PhaseEncodingDirection": "j-",
  "PhaseEncodingSteps": 96,
  "PhaseResolution": 1,
  "ProcedureStepDescription": "Gobbini_Matteo_1017_famface-angles",
  "ProtocolName": "func_run-06_task-localizer",
  "PulseSequenceDetails": "%SiemensSeq%_ep2d_bold",
  "ReceiveCoilActiveElements": "HEA;HEP",
  "ReceiveCoilName": "Head_32",
  "ReconMatrixPE": 96,
  "RepetitionTime": 1.25,
  "ScanOptions": "FS",
  "ScanningSequence": "EP",
  "SequenceName": "_epfid2d1_96",
  "SequenceVariant": "SK",
  "SeriesDescription": "func_run-06_task-localizer",
  "SliceTiming": [0.8775, 0, 0.615, 0.0875, 0.7025, 0.175, 0.79, 0.35, 0.965, 0.4375, 1.0525, 0.5275, 1.14, 0.2625, 0.8775, 0, 0.615, 0.0875, 0.7025, 0.175, 0.79, 0.35, 0.965, 0.4375, 1.0525, 0.5275, 1.14, 0.2625, 0.8775, 0, 0.615, 0.0875, 0.7025, 0.175, 0.79, 0.35, 0.965, 0.4375, 1.0525, 0.5275, 1.14, 0.2625, 0.8775, 0, 0.615, 0.0875, 0.7025, 0.175, 0.79, 0.35, 0.965, 0.4375, 1.0525, 0.5275, 1.14, 0.2625],
  "SoftwareVersions": "syngo_MR_E11",
  "StationName": "AWP66112",
  "TaskName": "localizer",
  "TotalReadoutTime": 0.0522511,
  "dcmmeta_affine": [
    [-2.4971632957458496, -0.0091524887830019, 0.11870690435171127, 119.09539031982422],
    [0.000586063542868942, 2.4916269779205322, 0.2044370025396347, -100.85292053222656],
    [0.11905777454376221, -0.20423287153244019, 2.488797664642334, -62.45531463623047],
    [0.0, 0.0, 0.0, 1.0]
],
  "dcmmeta_reorient_transform": [
    [0.0, -1.0, 0.0, 95.0],
    [1.0, 0.0, 0.0, 0.0],
    [0.0, 0.0, 1.0, 0.0],
    [0.0, 0.0, 0.0, 1.0]
],
  "dcmmeta_shape": [96, 96, 56, 325],
  "dcmmeta_slice_dim": 2,
  "dcmmeta_version": 0.6,
  "global": {
    "const": {
      "AccessionNumber": "A000312",
      "AcquisitionMatrix": [96, 0, 0, 96],
      "AngioFlag": "N",
      "BitsAllocated": 16,
      "BitsStored": 12,
      "BodyPartExamined": "BRAIN",
      "Columns": 768,
      "EchoNumbers": 1,
      "EchoTime": 33.0,
      "EchoTrainLength": 96,
      "FlipAngle": 64.0,
      "HighBit": 11,
      "ImageOrientationPatient": [0.99886534848893, -0.0002344254137, 0.04762311028085, -0.0036609953967, 0.99665080491849, 0.08169314639571],
      "ImagePositionPatient": [-954.19756079492, -972.84140157072, -190.48309157795],
      "ImageType": [
        "ORIGINAL",
        "PRIMARY",
        "FMRI",
        "NONE",
        "ND",
        "NORM",
        "MOSAIC"
],
      "ImagedNucleus": "1H",
      "ImagingFrequency": 123.252366,
      "InPlanePhaseEncodingDirection": "COL",
      "MRAcquisitionType": "2D",
      "MagneticFieldStrength": 3.0,
      "Manufacturer": "SIEMENS",
      "ManufacturerModelName": "Prisma",
      "Modality": "MR",
      "NumberOfAverages": 1.0,
      "NumberOfPhaseEncodingSteps": 96,
      "PercentPhaseFieldOfView": 100.0,
      "PercentSampling": 100.0,
      "PerformedProcedureStepStartTime": "174326.131000",
      "PhotometricInterpretation": "MONOCHROME2",
      "PixelBandwidth": 2265.0,
      "PixelRepresentation": 0,
      "PixelSpacing": [2.5, 2.5],
      "PositionReferenceIndicator": "",
      "ProtocolName": "func_run-06_task-localizer",
      "RepetitionTime": 1250.0,
      "Rows": 768,
      "SAR": 0.05667066245297,
      "SamplesPerPixel": 1,
      "ScanOptions": "FS",
      "ScanningSequence": "EP",
      "SequenceName": "*epfid2d1_96",
      "SequenceVariant": "SK",
      "SeriesDescription": "func_run-06_task-localizer",
      "SeriesNumber": 43,
      "SeriesTime": "182356.957000",
      "SliceLocation": -64.767707043399,
      "SliceThickness": 2.5,
      "SmallestImagePixelValue": 0,
      "SoftwareVersions": "syngo MR E11",
      "SpacingBetweenSlices": 2.4999999530028,
      "SpecificCharacterSet": "ISO_IR 100",
      "StudyID": "2",
      "StudyTime": "174326.083000",
      "TransmitCoilName": "Body",
      "VariableFlipAngleFlag": "N",
      "WindowCenterWidthExplanation": "Algo1",
      "dBdt": 0.0},
    "slices": {}
  },
  "time": {
    "samples": {
      "AcquisitionNumber": [1, 2, 3, 4, 5, 6, 7, 8, 9, 10, 11, 12, 13, 14, 15, 16, 17, 18, 19, 20, 21, 22, 23, 24, 25, 26, 27, 28, 29, 30, 31, 32, 33, 34, 35, 36, 37, 38, 39, 40, 41, 42, 43, 44, 45, 46, 47, 48, 49, 50, 51, 52, 53, 54, 55, 56, 57, 58, 59, 60, 61, 62, 63, 64, 65, 66, 67, 68, 69, 70, 71, 72, 73, 74, 75, 76, 77, 78, 79, 80, 81, 82, 83, 84, 85, 86, 87, 88, 89, 90, 91, 92, 93, 94, 95, 96, 97, 98, 99, 100, 101, 102, 103, 104, 105, 106, 107, 108, 109, 110, 111, 112, 113, 114, 115, 116, 117, 118, 119, 120, 121, 122, 123, 124, 125, 126, 127, 128, 129, 130, 131, 132, 133, 134, 135, 136, 137, 138, 139, 140, 141, 142, 143, 144, 145, 146, 147, 148, 149, 150, 151, 152, 153, 154, 155, 156, 157, 158, 159, 160, 161, 162, 163, 164, 165, 166, 167, 168, 169, 170, 171, 172, 173, 174, 175, 176, 177, 178, 179, 180, 181, 182, 183, 184, 185, 186, 187, 188, 189, 190, 191, 192, 193, 194, 195, 196, 197, 198, 199, 200, 201, 202, 203, 204, 205, 206, 207, 208, 209, 210, 211, 212, 213, 214, 215, 216, 217, 218, 219, 220, 221, 222, 223, 224, 225, 226, 227, 228, 229, 230, 231, 232, 233, 234, 235, 236, 237, 238, 239, 240, 241, 242, 243, 244, 245, 246, 247, 248, 249, 250, 251, 252, 253, 254, 255, 256, 257, 258, 259, 260, 261, 262, 263, 264, 265, 266, 267, 268, 269, 270, 271, 272, 273, 274, 275, 276, 277, 278, 279, 280, 281, 282, 283, 284, 285, 286, 287, 288, 289, 290, 291, 292, 293, 294, 295, 296, 297, 298, 299, 300, 301, 302, 303, 304, 305, 306, 307, 308, 309, 310, 311, 312, 313, 314, 315, 316, 317, 318, 319, 320, 321, 322, 323, 324, 325],
      "AcquisitionTime": ["182355.115000", "182356.365000", "182357.615000", "182358.865000", "182400.115000", "182401.365000", "182402.615000", "182403.865000", "182405.115000", "182406.365000", "182407.615000", "182408.865000", "182410.115000", "182411.365000", "182412.615000", "182413.865000", "182415.115000", "182416.365000", "182417.615000", "182418.865000", "182420.115000", "182421.365000", "182422.615000", "182423.865000", "182425.115000", "182426.365000", "182427.615000", "182428.865000", "182430.115000", "182431.365000", "182432.615000", "182433.865000", "182435.115000", "182436.365000", "182437.615000", "182438.865000", "182440.115000", "182441.365000", "182442.615000", "182443.865000", "182445.115000", "182446.365000", "182447.615000", "182448.865000", "182450.115000", "182451.365000", "182452.615000", "182453.865000", "182455.115000", "182456.365000", "182457.615000", "182458.865000", "182500.115000", "182501.365000", "182502.615000", "182503.865000", "182505.115000", "182506.365000", "182507.615000", "182508.865000", "182510.115000", "182511.365000", "182512.615000", "182513.865000", "182515.115000", "182516.365000", "182517.615000", "182518.865000", "182520.115000", "182521.365000", "182522.615000", "182523.865000", "182525.115000", "182526.365000", "182527.615000", "182528.865000", "182530.115000", "182531.365000", "182532.615000", "182533.865000", "182535.115000", "182536.365000", "182537.615000", "182538.865000", "182540.115000", "182541.365000", "182542.615000", "182543.865000", "182545.115000", "182546.365000", "182547.615000", "182548.865000", "182550.115000", "182551.365000", "182552.615000", "182553.865000", "182555.115000", "182556.365000", "182557.615000", "182558.865000", "182600.115000", "182601.365000", "182602.615000", "182603.865000", "182605.115000", "182606.365000", "182607.615000", "182608.865000", "182610.115000", "182611.365000", "182612.615000", "182613.865000", "182615.115000", "182616.365000", "182617.615000", "182618.865000", "182620.115000", "182621.365000", "182622.615000", "182623.865000", "182625.115000", "182626.365000", "182627.615000", "182628.865000", "182630.115000", "182631.365000", "182632.615000", "182633.865000", "182635.115000", "182636.365000", "182637.615000", "182638.865000", "182640.115000", "182641.365000", "182642.615000", "182643.865000", "182645.115000", "182646.365000", "182647.615000", "182648.865000", "182650.115000", "182651.365000", "182652.615000", "182653.865000", "182655.115000", "182656.365000", "182657.615000", "182658.865000", "182700.115000", "182701.365000", "182702.615000", "182703.865000", "182705.115000", "182706.365000", "182707.615000", "182708.865000", "182710.115000", "182711.365000", "182712.615000", "182713.865000", "182715.115000", "182716.365000", "182717.615000", "182718.865000", "182720.115000", "182721.365000", "182722.615000", "182723.865000", "182725.115000", "182726.365000", "182727.615000", "182728.865000", "182730.115000", "182731.365000", "182732.615000", "182733.865000", "182735.115000", "182736.365000", "182737.615000", "182738.865000", "182740.115000", "182741.365000", "182742.615000", "182743.865000", "182745.115000", "182746.365000", "182747.615000", "182748.865000", "182750.115000", "182751.365000", "182752.615000", "182753.865000", "182755.115000", "182756.365000", "182757.615000", "182758.865000", "182800.115000", "182801.365000", "182802.615000", "182803.865000", "182805.115000", "182806.365000", "182807.615000", "182808.865000", "182810.115000", "182811.365000", "182812.615000", "182813.865000", "182815.115000", "182816.365000", "182817.615000", "182818.865000", "182820.115000", "182821.365000", "182822.615000", "182823.865000", "182825.115000", "182826.365000", "182827.615000", "182828.865000", "182830.115000", "182831.365000", "182832.615000", "182833.865000", "182835.115000", "182836.365000", "182837.615000", "182838.865000", "182840.115000", "182841.365000", "182842.615000", "182843.865000", "182845.115000", "182846.365000", "182847.615000", "182848.865000", "182850.115000", "182851.365000", "182852.615000", "182853.865000", "182855.115000", "182856.365000", "182857.615000", "182858.865000", "182900.115000", "182901.365000", "182902.615000", "182903.865000", "182905.115000", "182906.365000", "182907.615000", "182908.865000", "182910.115000", "182911.365000", "182912.615000", "182913.865000", "182915.115000", "182916.365000", "182917.615000", "182918.865000", "182920.115000", "182921.365000", "182922.615000", "182923.865000", "182925.115000", "182926.365000", "182927.615000", "182928.865000", "182930.115000", "182931.365000", "182932.615000", "182933.865000", "182935.115000", "182936.365000", "182937.615000", "182938.865000", "182940.115000", "182941.365000", "182942.615000", "182943.865000", "182945.115000", "182946.365000", "182947.615000", "182948.865000", "182950.115000", "182951.365000", "182952.615000", "182953.865000", "182955.115000", "182956.365000", "182957.615000", "182958.865000", "183000.115000", "183001.365000", "183002.615000", "183003.865000", "183005.115000", "183006.365000", "183007.615000", "183008.865000", "183010.115000", "183011.365000", "183012.615000", "183013.865000", "183015.115000", "183016.365000", "183017.615000", "183018.865000", "183020.115000", "183021.365000", "183022.615000", "183023.865000", "183025.115000", "183026.365000", "183027.615000", "183028.865000", "183030.115000", "183031.365000", "183032.615000", "183033.865000", "183035.115000", "183036.365000", "183037.615000", "183038.865000", "183040.115000"],
      "ContentTime": ["182356.961000", "182358.061000", "182359.298000", "182400.609000", "182401.798000", "182403.049000", "182404.313000", "182405.570000", "182406.796000", "182408.028000", "182409.283000", "182410.546000", "182411.786000", "182413.033000", "182414.286000", "182415.551000", "182416.794000", "182418.065000", "182419.302000", "182420.538000", "182421.764000", "182423.038000", "182424.307000", "182425.552000", "182426.787000", "182428.042000", "182429.286000", "182430.580000", "182431.867000", "182433.057000", "182434.278000", "182435.525000", "182436.826000", "182438.030000", "182439.279000", "182440.535000", "182441.790000", "182443.073000", "182444.272000", "182445.533000", "182446.770000", "182448.017000", "182449.295000", "182450.548000", "182451.785000", "182453.008000", "182454.291000", "182455.541000", "182456.822000", "182458.015000", "182459.308000", "182500.534000", "182501.775000", "182503.045000", "182504.281000", "182505.550000", "182506.790000", "182508.038000", "182509.286000", "182510.547000", "182511.792000", "182513.050000", "182514.301000", "182515.528000", "182516.816000", "182518.050000", "182519.317000", "182520.554000", "182521.785000", "182523.032000", "182524.294000", "182525.553000", "182526.787000", "182528.055000", "182529.292000", "182530.544000", "182531.782000", "182533.081000", "182534.301000", "182535.555000", "182536.796000", "182538.052000", "182539.311000", "182540.540000", "182541.798000", "182543.036000", "182544.283000", "182545.505000", "182546.789000", "182548.039000", "182549.281000", "182550.535000", "182551.829000", "182553.057000", "182554.299000", "182555.584000", "182556.798000", "182558.054000", "182559.289000", "182600.537000", "182601.804000", "182603.047000", "182604.304000", "182605.541000", "182606.792000", "182608.060000", "182609.309000", "182610.545000", "182611.844000", "182613.050000", "182614.306000", "182615.561000", "182616.812000", "182618.056000", "182619.293000", "182620.562000", "182621.803000", "182623.058000", "182624.302000", "182625.613000", "182626.806000", "182628.052000", "182629.309000", "182630.559000", "182631.802000", "182633.076000", "182634.304000", "182635.555000", "182636.800000", "182638.050000", "182639.304000", "182640.552000", "182641.797000", "182643.060000", "182644.297000", "182645.549000", "182646.816000", "182648.050000", "182649.299000", "182650.546000", "182651.759000", "182653.020000", "182654.298000", "182655.604000", "182656.799000", "182658.050000", "182659.315000", "182700.562000", "182701.844000", "182703.055000", "182704.306000", "182705.587000", "182706.839000", "182708.033000", "182709.344000", "182710.558000", "182711.868000", "182713.060000", "182714.349000", "182715.570000", "182716.734000", "182718.035000", "182719.307000", "182720.552000", "182721.802000", "182723.068000", "182724.312000", "182725.569000", "182726.783000", "182728.061000", "182729.300000", "182730.603000", "182731.802000", "182733.045000", "182734.288000", "182735.565000", "182736.806000", "182738.057000", "182739.317000", "182740.624000", "182741.813000", "182743.055000", "182744.297000", "182745.554000", "182746.785000", "182748.047000", "182749.260000", "182750.547000", "182751.837000", "182753.067000", "182754.300000", "182755.563000", "182756.745000", "182758.077000", "182759.350000", "182800.552000", "182801.772000", "182803.041000", "182804.305000", "182805.573000", "182806.804000", "182808.061000", "182809.288000", "182810.578000", "182811.849000", "182813.036000", "182814.289000", "182815.552000", "182816.780000", "182818.059000", "182819.300000", "182820.545000", "182821.792000", "182823.072000", "182824.288000", "182825.536000", "182826.783000", "182828.075000", "182829.307000", "182830.535000", "182831.824000", "182833.053000", "182834.295000", "182835.537000", "182836.800000", "182838.099000", "182839.284000", "182840.525000", "182841.818000", "182843.055000", "182844.288000", "182845.547000", "182846.787000", "182848.021000", "182849.297000", "182850.557000", "182851.809000", "182853.056000", "182854.294000", "182855.558000", "182856.821000", "182858.066000", "182859.300000", "182900.556000", "182901.818000", "182903.160000", "182904.322000", "182905.541000", "182906.785000", "182908.049000", "182909.272000", "182910.559000", "182911.809000", "182913.041000", "182914.304000", "182915.537000", "182916.808000", "182918.024000", "182919.299000", "182920.518000", "182921.864000", "182923.059000", "182924.378000", "182925.552000", "182926.799000", "182928.045000", "182929.316000", "182930.544000", "182931.845000", "182933.052000", "182934.339000", "182935.559000", "182936.801000", "182938.081000", "182939.301000", "182940.523000", "182941.785000", "182943.051000", "182944.299000", "182945.562000", "182946.768000", "182948.055000", "182949.319000", "182950.555000", "182951.846000", "182953.055000", "182954.306000", "182955.555000", "182956.804000", "182958.078000", "182959.320000", "183000.556000", "183001.822000", "183003.094000", "183004.283000", "183005.569000", "183006.768000", "183008.060000", "183009.282000", "183010.551000", "183011.809000", "183013.045000", "183014.353000", "183015.567000", "183016.826000", "183018.018000", "183019.303000", "183020.548000", "183021.841000", "183023.044000", "183024.298000", "183025.554000", "183026.798000", "183028.054000", "183029.293000", "183030.597000", "183031.804000", "183033.036000", "183034.312000", "183035.554000", "183036.799000", "183038.032000", "183039.279000", "183040.550000", "183041.852000"],
      "InstanceCreationTime": ["182356.961000", "182358.061000", "182359.298000", "182400.609000", "182401.798000", "182403.049000", "182404.313000", "182405.570000", "182406.796000", "182408.028000", "182409.283000", "182410.546000", "182411.786000", "182413.033000", "182414.286000", "182415.551000", "182416.794000", "182418.065000", "182419.302000", "182420.538000", "182421.764000", "182423.038000", "182424.307000", "182425.552000", "182426.787000", "182428.042000", "182429.286000", "182430.580000", "182431.867000", "182433.057000", "182434.278000", "182435.525000", "182436.826000", "182438.030000", "182439.279000", "182440.535000", "182441.790000", "182443.073000", "182444.272000", "182445.533000", "182446.770000", "182448.017000", "182449.295000", "182450.548000", "182451.785000", "182453.008000", "182454.291000", "182455.541000", "182456.822000", "182458.015000", "182459.308000", "182500.534000", "182501.775000", "182503.045000", "182504.281000", "182505.550000", "182506.790000", "182508.038000", "182509.286000", "182510.547000", "182511.792000", "182513.050000", "182514.301000", "182515.528000", "182516.816000", "182518.050000", "182519.317000", "182520.554000", "182521.785000", "182523.032000", "182524.294000", "182525.553000", "182526.787000", "182528.055000", "182529.292000", "182530.544000", "182531.782000", "182533.081000", "182534.301000", "182535.555000", "182536.796000", "182538.052000", "182539.311000", "182540.540000", "182541.798000", "182543.036000", "182544.283000", "182545.505000", "182546.789000", "182548.039000", "182549.281000", "182550.535000", "182551.829000", "182553.057000", "182554.299000", "182555.584000", "182556.798000", "182558.054000", "182559.289000", "182600.537000", "182601.804000", "182603.047000", "182604.304000", "182605.541000", "182606.792000", "182608.060000", "182609.309000", "182610.545000", "182611.844000", "182613.050000", "182614.306000", "182615.561000", "182616.812000", "182618.056000", "182619.293000", "182620.562000", "182621.803000", "182623.058000", "182624.302000", "182625.613000", "182626.806000", "182628.052000", "182629.309000", "182630.559000", "182631.802000", "182633.076000", "182634.304000", "182635.555000", "182636.800000", "182638.050000", "182639.304000", "182640.552000", "182641.797000", "182643.060000", "182644.297000", "182645.549000", "182646.816000", "182648.050000", "182649.299000", "182650.546000", "182651.759000", "182653.020000", "182654.298000", "182655.604000", "182656.799000", "182658.050000", "182659.315000", "182700.562000", "182701.844000", "182703.055000", "182704.306000", "182705.587000", "182706.839000", "182708.033000", "182709.344000", "182710.558000", "182711.868000", "182713.060000", "182714.349000", "182715.570000", "182716.734000", "182718.035000", "182719.307000", "182720.552000", "182721.802000", "182723.068000", "182724.312000", "182725.569000", "182726.783000", "182728.061000", "182729.300000", "182730.603000", "182731.802000", "182733.045000", "182734.288000", "182735.565000", "182736.806000", "182738.057000", "182739.317000", "182740.624000", "182741.813000", "182743.055000", "182744.297000", "182745.554000", "182746.785000", "182748.047000", "182749.260000", "182750.547000", "182751.837000", "182753.067000", "182754.300000", "182755.563000", "182756.745000", "182758.077000", "182759.350000", "182800.552000", "182801.772000", "182803.041000", "182804.305000", "182805.573000", "182806.804000", "182808.061000", "182809.288000", "182810.578000", "182811.849000", "182813.036000", "182814.289000", "182815.552000", "182816.780000", "182818.059000", "182819.300000", "182820.545000", "182821.792000", "182823.072000", "182824.288000", "182825.536000", "182826.783000", "182828.075000", "182829.307000", "182830.535000", "182831.824000", "182833.053000", "182834.295000", "182835.537000", "182836.800000", "182838.099000", "182839.284000", "182840.525000", "182841.818000", "182843.055000", "182844.288000", "182845.547000", "182846.787000", "182848.021000", "182849.297000", "182850.557000", "182851.809000", "182853.056000", "182854.294000", "182855.558000", "182856.821000", "182858.066000", "182859.300000", "182900.556000", "182901.818000", "182903.160000", "182904.322000", "182905.541000", "182906.785000", "182908.049000", "182909.272000", "182910.559000", "182911.809000", "182913.041000", "182914.304000", "182915.537000", "182916.808000", "182918.024000", "182919.299000", "182920.518000", "182921.864000", "182923.059000", "182924.378000", "182925.552000", "182926.799000", "182928.045000", "182929.316000", "182930.544000", "182931.845000", "182933.052000", "182934.339000", "182935.559000", "182936.801000", "182938.081000", "182939.301000", "182940.523000", "182941.785000", "182943.051000", "182944.299000", "182945.562000", "182946.768000", "182948.055000", "182949.319000", "182950.555000", "182951.846000", "182953.055000", "182954.306000", "182955.555000", "182956.804000", "182958.078000", "182959.320000", "183000.556000", "183001.822000", "183003.094000", "183004.283000", "183005.569000", "183006.768000", "183008.060000", "183009.282000", "183010.551000", "183011.809000", "183013.045000", "183014.353000", "183015.567000", "183016.826000", "183018.018000", "183019.303000", "183020.548000", "183021.841000", "183023.044000", "183024.298000", "183025.554000", "183026.798000", "183028.054000", "183029.293000", "183030.597000", "183031.804000", "183033.036000", "183034.312000", "183035.554000", "183036.799000", "183038.032000", "183039.279000", "183040.550000", "183041.852000"],
      "InstanceNumber": [1, 2, 3, 4, 5, 6, 7, 8, 9, 10, 11, 12, 13, 14, 15, 16, 17, 18, 19, 20, 21, 22, 23, 24, 25, 26, 27, 28, 29, 30, 31, 32, 33, 34, 35, 36, 37, 38, 39, 40, 41, 42, 43, 44, 45, 46, 47, 48, 49, 50, 51, 52, 53, 54, 55, 56, 57, 58, 59, 60, 61, 62, 63, 64, 65, 66, 67, 68, 69, 70, 71, 72, 73, 74, 75, 76, 77, 78, 79, 80, 81, 82, 83, 84, 85, 86, 87, 88, 89, 90, 91, 92, 93, 94, 95, 96, 97, 98, 99, 100, 101, 102, 103, 104, 105, 106, 107, 108, 109, 110, 111, 112, 113, 114, 115, 116, 117, 118, 119, 120, 121, 122, 123, 124, 125, 126, 127, 128, 129, 130, 131, 132, 133, 134, 135, 136, 137, 138, 139, 140, 141, 142, 143, 144, 145, 146, 147, 148, 149, 150, 151, 152, 153, 154, 155, 156, 157, 158, 159, 160, 161, 162, 163, 164, 165, 166, 167, 168, 169, 170, 171, 172, 173, 174, 175, 176, 177, 178, 179, 180, 181, 182, 183, 184, 185, 186, 187, 188, 189, 190, 191, 192, 193, 194, 195, 196, 197, 198, 199, 200, 201, 202, 203, 204, 205, 206, 207, 208, 209, 210, 211, 212, 213, 214, 215, 216, 217, 218, 219, 220, 221, 222, 223, 224, 225, 226, 227, 228, 229, 230, 231, 232, 233, 234, 235, 236, 237, 238, 239, 240, 241, 242, 243, 244, 245, 246, 247, 248, 249, 250, 251, 252, 253, 254, 255, 256, 257, 258, 259, 260, 261, 262, 263, 264, 265, 266, 267, 268, 269, 270, 271, 272, 273, 274, 275, 276, 277, 278, 279, 280, 281, 282, 283, 284, 285, 286, 287, 288, 289, 290, 291, 292, 293, 294, 295, 296, 297, 298, 299, 300, 301, 302, 303, 304, 305, 306, 307, 308, 309, 310, 311, 312, 313, 314, 315, 316, 317, 318, 319, 320, 321, 322, 323, 324, 325],
      "LargestImagePixelValue": [1079, 1175, 798, 1072, 1087, 1081, 822, 1079, 1433, 909, 1047, 1065, 834, 1073, 829, 1156, 911, 879, 1427, 926, 1107, 1005, 1276, 942, 876, 1232, 1025, 938, 853, 826, 967, 1095, 1136, 1085, 1030, 857, 1186, 829, 831, 1036, 1009, 1173, 885, 1311, 950, 1131, 785, 1229, 1184, 1130, 782, 1302, 1284, 879, 1192, 897, 847, 914, 990, 1152, 903, 1195, 1010, 1085, 855, 1230, 896, 1471, 834, 1157, 1061, 833, 1015, 823, 1165, 865, 900, 1116, 926, 931, 908, 1298, 953, 1504, 939, 1079, 1022, 930, 1144, 790, 983, 1184, 795, 959, 1168, 808, 1022, 1344, 963, 1197, 868, 1197, 818, 879, 1370, 907, 1099, 795, 969, 819, 819, 1231, 1196, 829, 1243, 1198, 834, 1109, 978, 1409, 810, 1058, 1208, 1117, 858, 1221, 885, 1009, 793, 984, 1315, 847, 1014, 1230, 814, 1226, 1016, 1090, 780, 1159, 1241, 1238, 1307, 1032, 1456, 813, 961, 903, 809, 1233, 1135, 934, 954, 980, 1083, 834, 1337, 993, 920, 1170, 849, 1050, 1074, 1154, 1475, 941, 907, 1036, 822, 1054, 807, 953, 815, 987, 1197, 837, 1120, 887, 1101, 867, 1119, 1011, 1084, 1202, 811, 1085, 943, 815, 1102, 1046, 1189, 793, 933, 1390, 807, 1134, 1105, 1066, 902, 1214, 1379, 998, 891, 1175, 923, 1144, 828, 991, 1092, 807, 881, 914, 1271, 874, 1225, 1290, 922, 923, 977, 1200, 807, 1010, 894, 827, 1224, 826, 1020, 1350, 1153, 972, 1174, 1015, 1003, 832, 984, 939, 845, 1303, 1192, 1186, 1177, 973, 1078, 749, 877, 1189, 916, 1268, 1247, 1091, 999, 1088, 1241, 810, 1252, 844, 1173, 830, 1332, 981, 1038, 1219, 1227, 1190, 793, 1095, 1084, 998, 778, 1038, 1285, 837, 820, 1074, 1171, 852, 1155, 1055, 1073, 876, 1299, 790, 1125, 763, 1160, 859, 849, 1333, 1007, 1121, 884, 1320, 969, 1202, 788, 1192, 809, 886, 1190, 884, 1190, 1333, 892, 1235, 834, 947, 777, 1233, 901, 891, 1334, 873, 793, 1325, 968, 1070, 878, 1344, 855, 842, 1268, 1038, 1169, 805, 966],
      "WindowCenter": [390.0, 390.0, 387.0, 389.0, 388.0, 388.0, 387.0, 389.0, 391.0, 386.0, 387.0, 387.0, 386.0, 389.0, 388.0, 390.0, 388.0, 388.0, 391.0, 387.0, 388.0, 387.0, 389.0, 387.0, 386.0, 389.0, 387.0, 386.0, 386.0, 386.0, 389.0, 390.0, 389.0, 388.0, 388.0, 386.0, 388.0, 386.0, 386.0, 389.0, 388.0, 390.0, 387.0, 390.0, 387.0, 389.0, 386.0, 390.0, 390.0, 389.0, 386.0, 390.0, 389.0, 386.0, 389.0, 387.0, 386.0, 387.0, 388.0, 389.0, 387.0, 389.0, 387.0, 388.0, 386.0, 389.0, 386.0, 390.0, 386.0, 389.0, 388.0, 386.0, 388.0, 386.0, 389.0, 387.0, 387.0, 390.0, 388.0, 388.0, 388.0, 390.0, 387.0, 390.0, 387.0, 388.0, 387.0, 386.0, 388.0, 386.0, 387.0, 389.0, 386.0, 387.0, 389.0, 386.0, 388.0, 390.0, 387.0, 389.0, 386.0, 388.0, 386.0, 386.0, 390.0, 386.0, 388.0, 385.0, 387.0, 387.0, 387.0, 390.0, 389.0, 385.0, 389.0, 388.0, 385.0, 388.0, 387.0, 390.0, 386.0, 388.0, 388.0, 388.0, 386.0, 388.0, 386.0, 387.0, 386.0, 388.0, 391.0, 386.0, 388.0, 390.0, 386.0, 390.0, 388.0, 389.0, 387.0, 390.0, 390.0, 390.0, 389.0, 387.0, 389.0, 384.0, 387.0, 387.0, 387.0, 390.0, 389.0, 387.0, 387.0, 387.0, 388.0, 386.0, 390.0, 387.0, 387.0, 390.0, 386.0, 387.0, 386.0, 386.0, 388.0, 383.0, 382.0, 384.0, 383.0, 385.0, 383.0, 386.0, 385.0, 386.0, 388.0, 385.0, 388.0, 387.0, 389.0, 386.0, 388.0, 387.0, 388.0, 389.0, 386.0, 388.0, 387.0, 386.0, 389.0, 388.0, 389.0, 386.0, 387.0, 391.0, 386.0, 390.0, 389.0, 389.0, 387.0, 390.0, 390.0, 387.0, 386.0, 388.0, 386.0, 388.0, 385.0, 387.0, 388.0, 385.0, 387.0, 388.0, 390.0, 387.0, 390.0, 390.0, 386.0, 386.0, 387.0, 389.0, 385.0, 387.0, 386.0, 386.0, 390.0, 387.0, 389.0, 391.0, 388.0, 386.0, 388.0, 387.0, 387.0, 386.0, 388.0, 387.0, 386.0, 390.0, 389.0, 388.0, 387.0, 385.0, 386.0, 384.0, 386.0, 389.0, 387.0, 390.0, 389.0, 387.0, 386.0, 387.0, 388.0, 385.0, 390.0, 386.0, 390.0, 387.0, 390.0, 387.0, 387.0, 388.0, 388.0, 388.0, 385.0, 388.0, 388.0, 387.0, 385.0, 387.0, 389.0, 385.0, 386.0, 387.0, 388.0, 386.0, 388.0, 387.0, 388.0, 386.0, 389.0, 385.0, 388.0, 385.0, 388.0, 386.0, 386.0, 390.0, 387.0, 388.0, 387.0, 390.0, 387.0, 389.0, 385.0, 388.0, 385.0, 387.0, 390.0, 387.0, 390.0, 390.0, 386.0, 389.0, 386.0, 387.0, 386.0, 390.0, 386.0, 386.0, 389.0, 386.0, 386.0, 389.0, 387.0, 388.0, 386.0, 389.0, 385.0, 386.0, 389.0, 388.0, 389.0, 385.0, 387.0],
