{
  "AcquisitionMatrixPE": 96,
  "AcquisitionNumber": 1,
  "AcquisitionTime": "17:57:32.160000",
  "BandwidthPerPixelPhaseEncode": 18.939,
  "BaseResolution": 96,
  "BodyPartExamined": "BRAIN",
  "ConsistencyInfo": "N4_VE11C_LATEST_20160120",
  "ConversionSoftware": "dcm2niix",
  "ConversionSoftwareVersion": "v1.0.20170923 (OpenJPEG build) GCC6.3.0",
  "DerivedVendorReportedEchoSpacing": 0.000550011,
  "DeviceSerialNumber": "66112",
  "DwellTime": 2.3e-06,
  "EchoTime": 0.033,
  "EchoTrainLength": 96,
  "EffectiveEchoSpacing": 0.000550011,
  "FlipAngle": 64,
  "ImageType": [
    "ORIGINAL",
    "PRIMARY",
    "FMRI",
    "NONE",
    "ND",
    "NORM",
    "MOSAIC"
],
  "InstitutionAddress": "Maynard_3_Hanover_NH_US_03755",
  "InstitutionName": "Dartmouth_College_-_PBS",
  "MagneticFieldStrength": 3,
  "Manufacturer": "Siemens",
  "ManufacturersModelName": "Prisma",
  "Modality": "MR",
  "MultibandAccelerationFactor": 4,
  "PartialFourier": 1,
  "PercentPhaseFOV": 100,
  "PhaseEncodingDirection": "j-",
  "PhaseEncodingSteps": 96,
  "PhaseResolution": 1,
  "ProcedureStepDescription": "Gobbini_Matteo_1017_famface-angles",
  "ProtocolName": "func_run-02_task-fam1back",
  "PulseSequenceDetails": "%SiemensSeq%_ep2d_bold",
  "ReceiveCoilActiveElements": "HEA;HEP",
  "ReceiveCoilName": "Head_32",
  "ReconMatrixPE": 96,
  "RepetitionTime": 1.25,
  "ScanOptions": "FS",
  "ScanningSequence": "EP",
  "SequenceName": "_epfid2d1_96",
  "SequenceVariant": "SK",
  "SeriesDescription": "func_run-02_task-fam1back",
  "SliceTiming": [0.8775, 0, 0.615, 0.0875, 0.7025, 0.175, 0.79, 0.35, 0.965, 0.4375, 1.0525, 0.525, 1.14, 0.2625, 0.8775, 0, 0.615, 0.0875, 0.7025, 0.175, 0.79, 0.35, 0.965, 0.4375, 1.0525, 0.525, 1.14, 0.2625, 0.8775, 0, 0.615, 0.0875, 0.7025, 0.175, 0.79, 0.35, 0.965, 0.4375, 1.0525, 0.525, 1.14, 0.2625, 0.8775, 0, 0.615, 0.0875, 0.7025, 0.175, 0.79, 0.35, 0.965, 0.4375, 1.0525, 0.525, 1.14, 0.2625],
  "SoftwareVersions": "syngo_MR_E11",
  "StationName": "AWP66112",
  "TaskName": "fam1back",
  "TotalReadoutTime": 0.0522511,
  "dcmmeta_affine": [
    [-2.4971632957458496, -0.0091524887830019, 0.11870690435171127, 119.09539031982422],
    [0.000586063542868942, 2.4916269779205322, 0.2044370025396347, -100.85292053222656],
    [0.11905777454376221, -0.20423287153244019, 2.488797664642334, -62.45531463623047],
    [0.0, 0.0, 0.0, 1.0]
],
  "dcmmeta_reorient_transform": [
    [0.0, -1.0, 0.0, 95.0],
    [1.0, 0.0, 0.0, 0.0],
    [0.0, 0.0, 1.0, 0.0],
    [0.0, 0.0, 0.0, 1.0]
],
  "dcmmeta_shape": [96, 96, 56, 280],
  "dcmmeta_slice_dim": 2,
  "dcmmeta_version": 0.6,
  "global": {
    "const": {
      "AccessionNumber": "A000312",
      "AcquisitionMatrix": [96, 0, 0, 96],
      "AngioFlag": "N",
      "BitsAllocated": 16,
      "BitsStored": 12,
      "BodyPartExamined": "BRAIN",
      "Columns": 768,
      "EchoNumbers": 1,
      "EchoTime": 33.0,
      "EchoTrainLength": 96,
      "FlipAngle": 64.0,
      "HighBit": 11,
      "ImageOrientationPatient": [0.99886534848893, -0.0002344254137, 0.04762311028085, -0.0036609953967, 0.99665080491849, 0.08169314639571],
      "ImagePositionPatient": [-954.19756079492, -972.84140157072, -190.48309157795],
      "ImageType": [
        "ORIGINAL",
        "PRIMARY",
        "FMRI",
        "NONE",
        "ND",
        "NORM",
        "MOSAIC"
],
      "ImagedNucleus": "1H",
      "ImagingFrequency": 123.252363,
      "InPlanePhaseEncodingDirection": "COL",
      "MRAcquisitionType": "2D",
      "MagneticFieldStrength": 3.0,
      "Manufacturer": "SIEMENS",
      "ManufacturerModelName": "Prisma",
      "Modality": "MR",
      "NumberOfAverages": 1.0,
      "NumberOfPhaseEncodingSteps": 96,
      "PercentPhaseFieldOfView": 100.0,
      "PercentSampling": 100.0,
      "PerformedProcedureStepStartTime": "174326.131000",
      "PhotometricInterpretation": "MONOCHROME2",
      "PixelBandwidth": 2265.0,
      "PixelRepresentation": 0,
      "PixelSpacing": [2.5, 2.5],
      "PositionReferenceIndicator": "",
      "ProtocolName": "func_run-02_task-fam1back",
      "RepetitionTime": 1250.0,
      "Rows": 768,
      "SAR": 0.05659369429771,
      "SamplesPerPixel": 1,
      "ScanOptions": "FS",
      "ScanningSequence": "EP",
      "SequenceName": "*epfid2d1_96",
      "SequenceVariant": "SK",
      "SeriesDescription": "func_run-02_task-fam1back",
      "SeriesNumber": 15,
      "SeriesTime": "175734.146000",
      "SliceLocation": -64.767707043399,
      "SliceThickness": 2.5,
      "SmallestImagePixelValue": 0,
      "SoftwareVersions": "syngo MR E11",
      "SpacingBetweenSlices": 2.4999999530028,
      "SpecificCharacterSet": "ISO_IR 100",
      "StudyID": "2",
      "StudyTime": "174326.083000",
      "TransmitCoilName": "Body",
      "VariableFlipAngleFlag": "N",
      "WindowCenterWidthExplanation": "Algo1",
      "dBdt": 0.0},
    "slices": {}
  },
  "time": {
    "samples": {
      "AcquisitionNumber": [1, 2, 3, 4, 5, 6, 7, 8, 9, 10, 11, 12, 13, 14, 15, 16, 17, 18, 19, 20, 21, 22, 23, 24, 25, 26, 27, 28, 29, 30, 31, 32, 33, 34, 35, 36, 37, 38, 39, 40, 41, 42, 43, 44, 45, 46, 47, 48, 49, 50, 51, 52, 53, 54, 55, 56, 57, 58, 59, 60, 61, 62, 63, 64, 65, 66, 67, 68, 69, 70, 71, 72, 73, 74, 75, 76, 77, 78, 79, 80, 81, 82, 83, 84, 85, 86, 87, 88, 89, 90, 91, 92, 93, 94, 95, 96, 97, 98, 99, 100, 101, 102, 103, 104, 105, 106, 107, 108, 109, 110, 111, 112, 113, 114, 115, 116, 117, 118, 119, 120, 121, 122, 123, 124, 125, 126, 127, 128, 129, 130, 131, 132, 133, 134, 135, 136, 137, 138, 139, 140, 141, 142, 143, 144, 145, 146, 147, 148, 149, 150, 151, 152, 153, 154, 155, 156, 157, 158, 159, 160, 161, 162, 163, 164, 165, 166, 167, 168, 169, 170, 171, 172, 173, 174, 175, 176, 177, 178, 179, 180, 181, 182, 183, 184, 185, 186, 187, 188, 189, 190, 191, 192, 193, 194, 195, 196, 197, 198, 199, 200, 201, 202, 203, 204, 205, 206, 207, 208, 209, 210, 211, 212, 213, 214, 215, 216, 217, 218, 219, 220, 221, 222, 223, 224, 225, 226, 227, 228, 229, 230, 231, 232, 233, 234, 235, 236, 237, 238, 239, 240, 241, 242, 243, 244, 245, 246, 247, 248, 249, 250, 251, 252, 253, 254, 255, 256, 257, 258, 259, 260, 261, 262, 263, 264, 265, 266, 267, 268, 269, 270, 271, 272, 273, 274, 275, 276, 277, 278, 279, 280],
      "AcquisitionTime": ["175732.160000", "175733.410000", "175734.660000", "175735.910000", "175737.160000", "175738.410000", "175739.660000", "175740.910000", "175742.160000", "175743.410000", "175744.660000", "175745.910000", "175747.160000", "175748.410000", "175749.660000", "175750.910000", "175752.160000", "175753.410000", "175754.660000", "175755.910000", "175757.160000", "175758.410000", "175759.660000", "175800.910000", "175802.160000", "175803.410000", "175804.660000", "175805.910000", "175807.160000", "175808.410000", "175809.660000", "175810.910000", "175812.160000", "175813.410000", "175814.660000", "175815.910000", "175817.160000", "175818.410000", "175819.660000", "175820.910000", "175822.160000", "175823.410000", "175824.660000", "175825.910000", "175827.160000", "175828.410000", "175829.660000", "175830.910000", "175832.160000", "175833.410000", "175834.660000", "175835.910000", "175837.160000", "175838.410000", "175839.660000", "175840.910000", "175842.160000", "175843.410000", "175844.660000", "175845.910000", "175847.160000", "175848.410000", "175849.660000", "175850.910000", "175852.160000", "175853.410000", "175854.660000", "175855.910000", "175857.160000", "175858.410000", "175859.660000", "175900.910000", "175902.160000", "175903.410000", "175904.660000", "175905.910000", "175907.160000", "175908.410000", "175909.660000", "175910.910000", "175912.160000", "175913.410000", "175914.660000", "175915.910000", "175917.160000", "175918.410000", "175919.660000", "175920.910000", "175922.160000", "175923.410000", "175924.660000", "175925.910000", "175927.160000", "175928.410000", "175929.660000", "175930.910000", "175932.160000", "175933.410000", "175934.660000", "175935.910000", "175937.160000", "175938.410000", "175939.660000", "175940.910000", "175942.160000", "175943.410000", "175944.660000", "175945.910000", "175947.160000", "175948.410000", "175949.660000", "175950.910000", "175952.160000", "175953.410000", "175954.660000", "175955.910000", "175957.160000", "175958.410000", "175959.660000", "180000.910000", "180002.160000", "180003.410000", "180004.660000", "180005.910000", "180007.160000", "180008.410000", "180009.660000", "180010.910000", "180012.160000", "180013.410000", "180014.660000", "180015.910000", "180017.160000", "180018.410000", "180019.660000", "180020.910000", "180022.160000", "180023.410000", "180024.660000", "180025.910000", "180027.160000", "180028.410000", "180029.660000", "180030.910000", "180032.160000", "180033.410000", "180034.660000", "180035.910000", "180037.160000", "180038.410000", "180039.660000", "180040.910000", "180042.160000", "180043.410000", "180044.660000", "180045.910000", "180047.160000", "180048.410000", "180049.660000", "180050.910000", "180052.160000", "180053.410000", "180054.660000", "180055.910000", "180057.160000", "180058.410000", "180059.660000", "180100.910000", "180102.160000", "180103.410000", "180104.660000", "180105.910000", "180107.160000", "180108.410000", "180109.660000", "180110.910000", "180112.160000", "180113.410000", "180114.660000", "180115.910000", "180117.160000", "180118.410000", "180119.660000", "180120.910000", "180122.160000", "180123.410000", "180124.660000", "180125.910000", "180127.160000", "180128.410000", "180129.660000", "180130.910000", "180132.160000", "180133.410000", "180134.660000", "180135.910000", "180137.160000", "180138.410000", "180139.660000", "180140.910000", "180142.160000", "180143.410000", "180144.660000", "180145.910000", "180147.160000", "180148.410000", "180149.660000", "180150.910000", "180152.160000", "180153.410000", "180154.660000", "180155.910000", "180157.160000", "180158.410000", "180159.660000", "180200.910000", "180202.160000", "180203.410000", "180204.660000", "180205.910000", "180207.160000", "180208.410000", "180209.660000", "180210.910000", "180212.160000", "180213.410000", "180214.660000", "180215.910000", "180217.160000", "180218.410000", "180219.660000", "180220.910000", "180222.160000", "180223.410000", "180224.660000", "180225.910000", "180227.160000", "180228.410000", "180229.660000", "180230.910000", "180232.160000", "180233.410000", "180234.660000", "180235.910000", "180237.160000", "180238.410000", "180239.660000", "180240.910000", "180242.160000", "180243.410000", "180244.660000", "180245.910000", "180247.160000", "180248.410000", "180249.660000", "180250.910000", "180252.160000", "180253.410000", "180254.660000", "180255.910000", "180257.160000", "180258.410000", "180259.660000", "180300.910000", "180302.160000", "180303.410000", "180304.660000", "180305.910000", "180307.160000", "180308.410000", "180309.660000", "180310.910000", "180312.160000", "180313.410000", "180314.660000", "180315.910000", "180317.160000", "180318.410000", "180319.660000", "180320.910000"],
      "ContentTime": ["175734.150000", "175735.221000", "175736.472000", "175737.699000", "175738.962000", "175740.211000", "175741.505000", "175742.716000", "175743.969000", "175745.214000", "175746.478000", "175747.702000", "175748.981000", "175750.207000", "175751.451000", "175752.706000", "175753.962000", "175755.212000", "175756.460000", "175757.725000", "175758.969000", "175800.211000", "175801.467000", "175802.707000", "175804.035000", "175805.226000", "175806.437000", "175807.706000", "175808.966000", "175810.221000", "175811.463000", "175812.702000", "175813.970000", "175815.237000", "175816.463000", "175817.722000", "175819.032000", "175820.223000", "175821.467000", "175822.716000", "175823.967000", "175825.206000", "175826.480000", "175827.717000", "175828.965000", "175830.205000", "175831.479000", "175832.699000", "175833.951000", "175835.222000", "175836.475000", "175837.708000", "175838.951000", "175840.208000", "175841.467000", "175842.721000", "175843.942000", "175845.205000", "175846.461000", "175847.717000", "175848.959000", "175850.208000", "175851.455000", "175852.700000", "175853.976000", "175855.219000", "175856.453000", "175857.707000", "175858.964000", "175900.216000", "175901.453000", "175902.720000", "175903.968000", "175905.282000", "175906.458000", "175907.723000", "175909.020000", "175910.209000", "175911.477000", "175912.721000", "175913.967000", "175915.189000", "175916.482000", "175917.785000", "175918.963000", "175920.227000", "175921.479000", "175922.721000", "175923.956000", "175925.195000", "175926.474000", "175927.750000", "175928.962000", "175930.200000", "175931.482000", "175932.714000", "175933.968000", "175935.228000", "175936.472000", "175937.689000", "175938.957000", "175940.231000", "175941.495000", "175942.711000", "175944.001000", "175945.243000", "175946.482000", "175947.720000", "175948.967000", "175950.196000", "175951.467000", "175952.714000", "175953.992000", "175955.215000", "175956.482000", "175957.735000", "175958.991000", "180000.212000", "180001.468000", "180002.720000", "180003.967000", "180005.206000", "180006.465000", "180007.729000", "180008.970000", "180010.233000", "180011.470000", "180012.761000", "180013.966000", "180015.214000", "180016.441000", "180017.723000", "180018.977000", "180020.205000", "180021.466000", "180022.723000", "180023.960000", "180025.239000", "180026.476000", "180027.753000", "180028.984000", "180030.218000", "180031.463000", "180032.715000", "180033.981000", "180035.227000", "180036.486000", "180037.720000", "180038.991000", "180040.239000", "180041.490000", "180042.699000", "180043.959000", "180045.209000", "180046.473000", "180047.735000", "180048.946000", "180050.212000", "180051.466000", "180052.737000", "180053.933000", "180055.219000", "180056.499000", "180057.720000", "180058.964000", "180100.192000", "180101.478000", "180102.727000", "180103.958000", "180105.231000", "180106.464000", "180107.721000", "180108.958000", "180110.209000", "180111.494000", "180112.727000", "180113.974000", "180115.219000", "180116.489000", "180117.683000", "180118.961000", "180120.224000", "180121.474000", "180122.733000", "180123.976000", "180125.240000", "180126.481000", "180127.716000", "180129.004000", "180130.276000", "180131.487000", "180132.726000", "180133.975000", "180135.198000", "180136.473000", "180137.724000", "180138.989000", "180140.240000", "180141.460000", "180142.712000", "180143.975000", "180145.211000", "180146.419000", "180147.745000", "180148.968000", "180150.192000", "180151.465000", "180152.708000", "180153.981000", "180155.193000", "180156.467000", "180157.733000", "180158.973000", "180200.220000", "180201.472000", "180202.727000", "180203.965000", "180205.235000", "180206.467000", "180207.707000", "180209.018000", "180210.213000", "180211.455000", "180212.728000", "180214.001000", "180215.231000", "180216.470000", "180217.706000", "180218.965000", "180220.211000", "180221.464000", "180222.726000", "180223.964000", "180225.216000", "180226.492000", "180227.748000", "180228.964000", "180230.212000", "180231.471000", "180232.705000", "180233.978000", "180235.219000", "180236.455000", "180237.720000", "180238.961000", "180240.218000", "180241.474000", "180242.753000", "180243.977000", "180245.215000", "180246.444000", "180247.722000", "180248.959000", "180250.207000", "180251.468000", "180252.731000", "180253.972000", "180255.235000", "180256.474000", "180257.710000", "180258.969000", "180300.220000", "180301.475000", "180302.758000", "180303.950000", "180305.210000", "180306.449000", "180307.708000", "180308.968000", "180310.197000", "180311.499000", "180312.721000", "180313.962000", "180315.206000", "180316.468000", "180317.732000", "180318.969000", "180320.221000", "180321.477000", "180322.797000"],
      "InstanceCreationTime": ["175734.150000", "175735.221000", "175736.472000", "175737.699000", "175738.962000", "175740.211000", "175741.505000", "175742.716000", "175743.969000", "175745.214000", "175746.478000", "175747.702000", "175748.981000", "175750.207000", "175751.451000", "175752.706000", "175753.962000", "175755.212000", "175756.460000", "175757.725000", "175758.969000", "175800.211000", "175801.467000", "175802.707000", "175804.035000", "175805.226000", "175806.437000", "175807.706000", "175808.966000", "175810.221000", "175811.463000", "175812.702000", "175813.970000", "175815.237000", "175816.463000", "175817.722000", "175819.032000", "175820.223000", "175821.467000", "175822.716000", "175823.967000", "175825.206000", "175826.480000", "175827.717000", "175828.965000", "175830.205000", "175831.479000", "175832.699000", "175833.951000", "175835.222000", "175836.475000", "175837.708000", "175838.951000", "175840.208000", "175841.467000", "175842.721000", "175843.942000", "175845.205000", "175846.461000", "175847.717000", "175848.959000", "175850.208000", "175851.455000", "175852.700000", "175853.976000", "175855.219000", "175856.453000", "175857.707000", "175858.964000", "175900.216000", "175901.453000", "175902.720000", "175903.968000", "175905.282000", "175906.458000", "175907.723000", "175909.020000", "175910.209000", "175911.477000", "175912.721000", "175913.967000", "175915.189000", "175916.482000", "175917.785000", "175918.963000", "175920.227000", "175921.479000", "175922.721000", "175923.956000", "175925.195000", "175926.474000", "175927.750000", "175928.962000", "175930.200000", "175931.482000", "175932.714000", "175933.968000", "175935.228000", "175936.472000", "175937.689000", "175938.957000", "175940.231000", "175941.495000", "175942.711000", "175944.001000", "175945.243000", "175946.482000", "175947.720000", "175948.967000", "175950.196000", "175951.467000", "175952.714000", "175953.992000", "175955.215000", "175956.482000", "175957.735000", "175958.991000", "180000.212000", "180001.468000", "180002.720000", "180003.967000", "180005.206000", "180006.465000", "180007.729000", "180008.970000", "180010.233000", "180011.470000", "180012.761000", "180013.966000", "180015.214000", "180016.441000", "180017.723000", "180018.977000", "180020.205000", "180021.466000", "180022.723000", "180023.960000", "180025.239000", "180026.476000", "180027.753000", "180028.984000", "180030.218000", "180031.463000", "180032.715000", "180033.981000", "180035.227000", "180036.486000", "180037.720000", "180038.991000", "180040.239000", "180041.490000", "180042.699000", "180043.959000", "180045.209000", "180046.473000", "180047.735000", "180048.946000", "180050.212000", "180051.466000", "180052.737000", "180053.933000", "180055.219000", "180056.499000", "180057.720000", "180058.964000", "180100.192000", "180101.478000", "180102.727000", "180103.958000", "180105.231000", "180106.464000", "180107.721000", "180108.958000", "180110.209000", "180111.494000", "180112.727000", "180113.974000", "180115.219000", "180116.489000", "180117.683000", "180118.961000", "180120.224000", "180121.474000", "180122.733000", "180123.976000", "180125.240000", "180126.481000", "180127.716000", "180129.004000", "180130.276000", "180131.487000", "180132.726000", "180133.975000", "180135.198000", "180136.473000", "180137.724000", "180138.989000", "180140.240000", "180141.460000", "180142.712000", "180143.975000", "180145.211000", "180146.419000", "180147.745000", "180148.968000", "180150.192000", "180151.465000", "180152.708000", "180153.981000", "180155.193000", "180156.467000", "180157.733000", "180158.973000", "180200.220000", "180201.472000", "180202.727000", "180203.965000", "180205.235000", "180206.467000", "180207.707000", "180209.018000", "180210.213000", "180211.455000", "180212.728000", "180214.001000", "180215.231000", "180216.470000", "180217.706000", "180218.965000", "180220.211000", "180221.464000", "180222.726000", "180223.964000", "180225.216000", "180226.492000", "180227.748000", "180228.964000", "180230.212000", "180231.471000", "180232.705000", "180233.978000", "180235.219000", "180236.455000", "180237.720000", "180238.961000", "180240.218000", "180241.474000", "180242.753000", "180243.977000", "180245.215000", "180246.444000", "180247.722000", "180248.959000", "180250.207000", "180251.468000", "180252.731000", "180253.972000", "180255.235000", "180256.474000", "180257.710000", "180258.969000", "180300.220000", "180301.475000", "180302.758000", "180303.950000", "180305.210000", "180306.449000", "180307.708000", "180308.968000", "180310.197000", "180311.499000", "180312.721000", "180313.962000", "180315.206000", "180316.468000", "180317.732000", "180318.969000", "180320.221000", "180321.477000", "180322.797000"],
      "InstanceNumber": [1, 2, 3, 4, 5, 6, 7, 8, 9, 10, 11, 12, 13, 14, 15, 16, 17, 18, 19, 20, 21, 22, 23, 24, 25, 26, 27, 28, 29, 30, 31, 32, 33, 34, 35, 36, 37, 38, 39, 40, 41, 42, 43, 44, 45, 46, 47, 48, 49, 50, 51, 52, 53, 54, 55, 56, 57, 58, 59, 60, 61, 62, 63, 64, 65, 66, 67, 68, 69, 70, 71, 72, 73, 74, 75, 76, 77, 78, 79, 80, 81, 82, 83, 84, 85, 86, 87, 88, 89, 90, 91, 92, 93, 94, 95, 96, 97, 98, 99, 100, 101, 102, 103, 104, 105, 106, 107, 108, 109, 110, 111, 112, 113, 114, 115, 116, 117, 118, 119, 120, 121, 122, 123, 124, 125, 126, 127, 128, 129, 130, 131, 132, 133, 134, 135, 136, 137, 138, 139, 140, 141, 142, 143, 144, 145, 146, 147, 148, 149, 150, 151, 152, 153, 154, 155, 156, 157, 158, 159, 160, 161, 162, 163, 164, 165, 166, 167, 168, 169, 170, 171, 172, 173, 174, 175, 176, 177, 178, 179, 180, 181, 182, 183, 184, 185, 186, 187, 188, 189, 190, 191, 192, 193, 194, 195, 196, 197, 198, 199, 200, 201, 202, 203, 204, 205, 206, 207, 208, 209, 210, 211, 212, 213, 214, 215, 216, 217, 218, 219, 220, 221, 222, 223, 224, 225, 226, 227, 228, 229, 230, 231, 232, 233, 234, 235, 236, 237, 238, 239, 240, 241, 242, 243, 244, 245, 246, 247, 248, 249, 250, 251, 252, 253, 254, 255, 256, 257, 258, 259, 260, 261, 262, 263, 264, 265, 266, 267, 268, 269, 270, 271, 272, 273, 274, 275, 276, 277, 278, 279, 280],
      "LargestImagePixelValue": [1125, 849, 873, 1312, 899, 1164, 975, 1493, 797, 924, 1261, 858, 921, 951, 1177, 823, 1070, 1355, 846, 1120, 1044, 916, 792, 1092, 968, 852, 1310, 1201, 1221, 829, 1346, 943, 1065, 852, 1312, 1010, 900, 1425, 913, 1090, 836, 1075, 1164, 921, 1194, 1244, 1114, 847, 1104, 821, 1026, 1389, 960, 1251, 981, 1065, 831, 1154, 904, 929, 1277, 903, 1160, 1098, 906, 1015, 1151, 1073, 841, 1341, 841, 1005, 981, 860, 1230, 1376, 1473, 1009, 1167, 804, 980, 1281, 970, 801, 1077, 820, 1501, 1112, 1069, 763, 971, 816, 831, 802, 1178, 998, 931, 1413, 1103, 1010, 897, 1222, 827, 874, 1151, 1261, 962, 809, 1326, 1263, 865, 1255, 949, 1008, 916, 1001, 775, 1096, 1462, 898, 1114, 1130, 857, 1492, 1024, 1066, 936, 876, 1083, 933, 1345, 1010, 998, 1244, 1165, 1017, 836, 1384, 916, 1118, 1043, 863, 1259, 923, 1225, 888, 1150, 808, 1084, 1269, 845, 1367, 989, 1124, 1016, 968, 781, 933, 999, 905, 1028, 1372, 989, 865, 1511, 1073, 1048, 983, 977, 812, 965, 1022, 845, 960, 1126, 854, 1039, 1404, 907, 1294, 1000, 960, 1010, 1428, 1468, 1068, 1041, 815, 856, 1161, 1046, 815, 936, 1378, 851, 1114, 785, 919, 804, 995, 836, 929, 1259, 943, 1090, 1098, 1146, 858, 1234, 829, 1019, 807, 1026, 799, 1091, 1139, 866, 1529, 944, 1020, 1062, 822, 995, 979, 1319, 907, 1303, 945, 1038, 903, 1003, 913, 937, 1423, 774, 1130, 922, 1016, 1325, 916, 795, 1171, 902, 900, 1214, 892, 1253, 1320, 1148, 862, 1398, 845, 1060, 776, 891, 775, 1205, 1025, 909, 1497, 1104, 1023, 782, 971, 817, 1067, 1177, 925, 1372, 1056, 1162, 800, 866, 1248, 879, 1077, 863, 1279, 894, 981],
      "WindowCenter": [390.0, 387.0, 388.0, 391.0, 388.0, 390.0, 388.0, 391.0, 386.0, 387.0, 389.0, 386.0, 388.0, 387.0, 390.0, 387.0, 389.0, 391.0, 387.0, 389.0, 388.0, 387.0, 387.0, 390.0, 389.0, 387.0, 390.0, 389.0, 390.0, 386.0, 389.0, 387.0, 389.0, 386.0, 390.0, 387.0, 386.0, 390.0, 386.0, 388.0, 387.0, 389.0, 389.0, 387.0, 389.0, 389.0, 388.0, 386.0, 389.0, 386.0, 389.0, 391.0, 388.0, 390.0, 388.0, 388.0, 386.0, 389.0, 387.0, 388.0, 390.0, 387.0, 388.0, 388.0, 386.0, 387.0, 389.0, 389.0, 387.0, 390.0, 386.0, 388.0, 388.0, 387.0, 390.0, 391.0, 392.0, 389.0, 390.0, 385.0, 386.0, 388.0, 385.0, 384.0, 387.0, 384.0, 389.0, 386.0, 386.0, 383.0, 385.0, 385.0, 386.0, 387.0, 391.0, 388.0, 388.0, 391.0, 389.0, 388.0, 387.0, 390.0, 387.0, 388.0, 390.0, 390.0, 388.0, 386.0, 390.0, 390.0, 386.0, 390.0, 388.0, 388.0, 389.0, 389.0, 387.0, 389.0, 391.0, 387.0, 389.0, 389.0, 386.0, 391.0, 388.0, 388.0, 387.0, 386.0, 388.0, 387.0, 390.0, 387.0, 387.0, 389.0, 389.0, 387.0, 386.0, 391.0, 388.0, 389.0, 388.0, 386.0, 390.0, 387.0, 389.0, 387.0, 389.0, 386.0, 388.0, 389.0, 386.0, 390.0, 388.0, 388.0, 387.0, 387.0, 385.0, 388.0, 388.0, 388.0, 389.0, 391.0, 388.0, 387.0, 391.0, 388.0, 388.0, 387.0, 387.0, 385.0, 386.0, 388.0, 387.0, 388.0, 390.0, 387.0, 388.0, 390.0, 387.0, 390.0, 387.0, 388.0, 388.0, 392.0, 392.0, 389.0, 389.0, 386.0, 386.0, 388.0, 386.0, 384.0, 384.0, 387.0, 383.0, 386.0, 383.0, 385.0, 385.0, 388.0, 387.0, 388.0, 390.0, 387.0, 389.0, 388.0, 389.0, 387.0, 389.0, 385.0, 388.0, 387.0, 389.0, 388.0, 390.0, 390.0, 387.0, 391.0, 386.0, 387.0, 388.0, 386.0, 389.0, 388.0, 391.0, 387.0, 389.0, 387.0, 388.0, 387.0, 388.0, 387.0, 387.0, 390.0, 385.0, 389.0, 387.0, 388.0, 391.0, 387.0, 385.0, 389.0, 387.0, 387.0, 390.0, 387.0, 390.0, 390.0, 388.0, 386.0, 390.0, 386.0, 388.0, 386.0, 387.0, 387.0, 390.0, 388.0, 387.0, 391.0, 388.0, 387.0, 385.0, 388.0, 387.0, 390.0, 390.0, 388.0, 390.0, 388.0, 388.0, 385.0, 386.0, 389.0, 387.0, 389.0, 387.0, 389.0, 387.0, 388.0],
      "WindowWidth": [829.0, 825.0, 825.0, 829.0, 825.0, 828.0, 825.0, 828.0, 821.0, 823.0, 825.0, 822.0, 824.0, 824.0, 829.0, 825.0, 827.0, 829.0, 823.0, 827.0, 825.0, 823.0, 823.0, 828.0, 826.0, 824.0, 828.0, 826.0, 827.0, 822.0, 826.0, 823.0, 825.0, 822.0, 827.0, 823.0, 822.0, 827.0, 822.0, 825.0, 823.0, 825.0, 826.0, 823.0, 826.0, 826.0, 824.0, 822.0, 826.0, 823.0, 826.0, 829.0, 824.0, 827.0, 824.0, 825.0, 823.0, 826.0, 824.0, 825.0, 828.0, 823.0, 825.0, 824.0, 822.0, 823.0, 825.0, 825.0, 823.0, 828.0, 822.0, 825.0, 825.0, 824.0, 828.0, 829.0, 831.0, 827.0, 828.0, 821.0, 821.0, 824.0, 820.0, 819.0, 823.0, 819.0, 825.0, 821.0, 820.0, 817.0, 820.0, 820.0, 822.0, 823.0, 829.0, 826.0, 824.0, 829.0, 826.0, 825.0, 823.0, 827.0, 823.0, 825.0, 828.0, 828.0, 824.0, 822.0, 828.0, 827.0, 822.0, 827.0, 824.0, 825.0, 826.0, 827.0, 824.0, 827.0, 829.0, 823.0, 825.0, 825.0, 821.0, 828.0, 824.0, 824.0, 822.0, 822.0, 825.0, 823.0, 827.0, 824.0, 824.0, 826.0, 825.0, 823.0, 822.0, 829.0, 824.0, 826.0, 825.0, 821.0, 827.0, 823.0, 826.0, 823.0, 826.0, 822.0, 825.0, 826.0, 822.0, 828.0, 824.0, 824.0, 823.0, 823.0, 821.0, 825.0, 825.0, 825.0, 827.0, 829.0, 824.0, 823.0, 829.0, 824.0, 824.0, 823.0, 823.0, 820.0, 822.0, 824.0, 823.0, 825.0, 827.0, 823.0, 825.0, 828.0, 823.0, 827.0, 823.0, 824.0, 825.0, 830.0, 831.0, 827.0, 826.0, 822.0, 821.0, 824.0, 821.0, 817.0, 818.0, 821.0, 815.0, 820.0, 816.0, 819.0, 820.0, 824.0, 823.0, 825.0, 827.0, 824.0, 826.0, 825.0, 826.0, 823.0, 827.0, 821.0, 824.0, 823.0, 827.0, 825.0, 828.0, 828.0, 823.0, 829.0, 822.0, 823.0, 825.0, 822.0, 826.0, 826.0, 828.0, 822.0, 826.0, 822.0, 824.0, 823.0, 824.0, 823.0, 823.0, 828.0, 821.0, 827.0, 824.0, 826.0, 829.0, 824.0, 821.0, 825.0, 822.0, 824.0, 828.0, 824.0, 827.0, 827.0, 825.0, 822.0, 827.0, 822.0, 825.0, 822.0, 824.0, 824.0, 828.0, 825.0, 823.0, 829.0, 824.0, 823.0, 821.0, 825.0, 824.0, 828.0, 827.0, 824.0, 828.0, 824.0, 824.0, 820.0, 821.0, 826.0, 823.0, 825.0, 823.0, 826.0, 824.0, 824.0]
    },
    "slices": {}
  }
}