{
  "AcquisitionMatrixPE": 96,
  "AcquisitionNumber": 1,
  "AcquisitionTime": "18:10:48.435000",
  "BandwidthPerPixelPhaseEncode": 18.939,
  "BaseResolution": 96,
  "BodyPartExamined": "BRAIN",
  "ConsistencyInfo": "N4_VE11C_LATEST_20160120",
  "ConversionSoftware": "dcm2niix",
  "ConversionSoftwareVersion": "v1.0.20170923 (OpenJPEG build) GCC6.3.0",
  "DerivedVendorReportedEchoSpacing": 0.000550011,
  "DeviceSerialNumber": "66112",
  "DwellTime": 2.3e-06,
  "EchoTime": 0.033,
  "EchoTrainLength": 96,
  "EffectiveEchoSpacing": 0.000550011,
  "FlipAngle": 64,
  "ImageType": [
    "ORIGINAL",
    "PRIMARY",
    "FMRI",
    "NONE",
    "ND",
    "NORM",
    "MOSAIC"
],
  "InstitutionAddress": "Maynard_3_Hanover_NH_US_03755",
  "InstitutionName": "Dartmouth_College_-_PBS",
  "MagneticFieldStrength": 3,
  "Manufacturer": "Siemens",
  "ManufacturersModelName": "Prisma",
  "Modality": "MR",
  "MultibandAccelerationFactor": 4,
  "PartialFourier": 1,
  "PercentPhaseFOV": 100,
  "PhaseEncodingDirection": "j-",
  "PhaseEncodingSteps": 96,
  "PhaseResolution": 1,
  "ProcedureStepDescription": "Gobbini_Matteo_1017_famface-angles",
  "ProtocolName": "func_run-04_task-fam1back",
  "PulseSequenceDetails": "%SiemensSeq%_ep2d_bold",
  "ReceiveCoilActiveElements": "HEA;HEP",
  "ReceiveCoilName": "Head_32",
  "ReconMatrixPE": 96,
  "RepetitionTime": 1.25,
  "ScanOptions": "FS",
  "ScanningSequence": "EP",
  "SequenceName": "_epfid2d1_96",
  "SequenceVariant": "SK",
  "SeriesDescription": "func_run-04_task-fam1back",
  "SliceTiming": [0.88, 0, 0.615, 0.0875, 0.7025, 0.175, 0.79, 0.3525, 0.9675, 0.44, 1.055, 0.5275, 1.1425, 0.265, 0.88, 0, 0.615, 0.0875, 0.7025, 0.175, 0.79, 0.3525, 0.9675, 0.44, 1.055, 0.5275, 1.1425, 0.265, 0.88, 0, 0.615, 0.0875, 0.7025, 0.175, 0.79, 0.3525, 0.9675, 0.44, 1.055, 0.5275, 1.1425, 0.265, 0.88, 0, 0.615, 0.0875, 0.7025, 0.175, 0.79, 0.3525, 0.9675, 0.44, 1.055, 0.5275, 1.1425, 0.265],
  "SoftwareVersions": "syngo_MR_E11",
  "StationName": "AWP66112",
  "TaskName": "fam1back",
  "TotalReadoutTime": 0.0522511,
  "dcmmeta_affine": [
    [-2.4971632957458496, -0.0091524887830019, 0.11870690435171127, 119.09539031982422],
    [0.000586063542868942, 2.4916269779205322, 0.2044370025396347, -100.85292053222656],
    [0.11905777454376221, -0.20423287153244019, 2.488797664642334, -62.45531463623047],
    [0.0, 0.0, 0.0, 1.0]
],
  "dcmmeta_reorient_transform": [
    [0.0, -1.0, 0.0, 95.0],
    [1.0, 0.0, 0.0, 0.0],
    [0.0, 0.0, 1.0, 0.0],
    [0.0, 0.0, 0.0, 1.0]
],
  "dcmmeta_shape": [96, 96, 56, 280],
  "dcmmeta_slice_dim": 2,
  "dcmmeta_version": 0.6,
  "global": {
    "const": {
      "AccessionNumber": "A000312",
      "AcquisitionMatrix": [96, 0, 0, 96],
      "AngioFlag": "N",
      "BitsAllocated": 16,
      "BitsStored": 12,
      "BodyPartExamined": "BRAIN",
      "Columns": 768,
      "EchoNumbers": 1,
      "EchoTime": 33.0,
      "EchoTrainLength": 96,
      "FlipAngle": 64.0,
      "HighBit": 11,
      "ImageOrientationPatient": [0.99886534848893, -0.0002344254137, 0.04762311028085, -0.0036609953967, 0.99665080491849, 0.08169314639571],
      "ImagePositionPatient": [-954.19756079492, -972.84140157072, -190.48309157795],
      "ImageType": [
        "ORIGINAL",
        "PRIMARY",
        "FMRI",
        "NONE",
        "ND",
        "NORM",
        "MOSAIC"
],
      "ImagedNucleus": "1H",
      "ImagingFrequency": 123.252365,
      "InPlanePhaseEncodingDirection": "COL",
      "MRAcquisitionType": "2D",
      "MagneticFieldStrength": 3.0,
      "Manufacturer": "SIEMENS",
      "ManufacturerModelName": "Prisma",
      "Modality": "MR",
      "NumberOfAverages": 1.0,
      "NumberOfPhaseEncodingSteps": 96,
      "PercentPhaseFieldOfView": 100.0,
      "PercentSampling": 100.0,
      "PerformedProcedureStepStartTime": "174326.131000",
      "PhotometricInterpretation": "MONOCHROME2",
      "PixelBandwidth": 2265.0,
      "PixelRepresentation": 0,
      "PixelSpacing": [2.5, 2.5],
      "PositionReferenceIndicator": "",
      "ProtocolName": "func_run-04_task-fam1back",
      "RepetitionTime": 1250.0,
      "Rows": 768,
      "SAR": 0.05659369429771,
      "SamplesPerPixel": 1,
      "ScanOptions": "FS",
      "ScanningSequence": "EP",
      "SequenceName": "*epfid2d1_96",
      "SequenceVariant": "SK",
      "SeriesDescription": "func_run-04_task-fam1back",
      "SeriesNumber": 29,
      "SeriesTime": "181049.619000",
      "SliceLocation": -64.767707043399,
      "SliceThickness": 2.5,
      "SmallestImagePixelValue": 0,
      "SoftwareVersions": "syngo MR E11",
      "SpacingBetweenSlices": 2.4999999530028,
      "SpecificCharacterSet": "ISO_IR 100",
      "StudyID": "2",
      "StudyTime": "174326.083000",
      "TransmitCoilName": "Body",
      "VariableFlipAngleFlag": "N",
      "WindowCenterWidthExplanation": "Algo1",
      "dBdt": 0.0},
    "slices": {}
  },
  "time": {
    "samples": {
      "AcquisitionNumber": [1, 2, 3, 4, 5, 6, 7, 8, 9, 10, 11, 12, 13, 14, 15, 16, 17, 18, 19, 20, 21, 22, 23, 24, 25, 26, 27, 28, 29, 30, 31, 32, 33, 34, 35, 36, 37, 38, 39, 40, 41, 42, 43, 44, 45, 46, 47, 48, 49, 50, 51, 52, 53, 54, 55, 56, 57, 58, 59, 60, 61, 62, 63, 64, 65, 66, 67, 68, 69, 70, 71, 72, 73, 74, 75, 76, 77, 78, 79, 80, 81, 82, 83, 84, 85, 86, 87, 88, 89, 90, 91, 92, 93, 94, 95, 96, 97, 98, 99, 100, 101, 102, 103, 104, 105, 106, 107, 108, 109, 110, 111, 112, 113, 114, 115, 116, 117, 118, 119, 120, 121, 122, 123, 124, 125, 126, 127, 128, 129, 130, 131, 132, 133, 134, 135, 136, 137, 138, 139, 140, 141, 142, 143, 144, 145, 146, 147, 148, 149, 150, 151, 152, 153, 154, 155, 156, 157, 158, 159, 160, 161, 162, 163, 164, 165, 166, 167, 168, 169, 170, 171, 172, 173, 174, 175, 176, 177, 178, 179, 180, 181, 182, 183, 184, 185, 186, 187, 188, 189, 190, 191, 192, 193, 194, 195, 196, 197, 198, 199, 200, 201, 202, 203, 204, 205, 206, 207, 208, 209, 210, 211, 212, 213, 214, 215, 216, 217, 218, 219, 220, 221, 222, 223, 224, 225, 226, 227, 228, 229, 230, 231, 232, 233, 234, 235, 236, 237, 238, 239, 240, 241, 242, 243, 244, 245, 246, 247, 248, 249, 250, 251, 252, 253, 254, 255, 256, 257, 258, 259, 260, 261, 262, 263, 264, 265, 266, 267, 268, 269, 270, 271, 272, 273, 274, 275, 276, 277, 278, 279, 280],
      "AcquisitionTime": ["181048.435000", "181049.685000", "181050.935000", "181052.185000", "181053.435000", "181054.685000", "181055.935000", "181057.185000", "181058.435000", "181059.685000", "181100.935000", "181102.185000", "181103.435000", "181104.685000", "181105.935000", "181107.185000", "181108.435000", "181109.685000", "181110.935000", "181112.185000", "181113.435000", "181114.685000", "181115.935000", "181117.185000", "181118.435000", "181119.685000", "181120.935000", "181122.185000", "181123.435000", "181124.685000", "181125.935000", "181127.185000", "181128.435000", "181129.685000", "181130.935000", "181132.185000", "181133.435000", "181134.685000", "181135.935000", "181137.185000", "181138.435000", "181139.685000", "181140.935000", "181142.185000", "181143.435000", "181144.685000", "181145.935000", "181147.185000", "181148.435000", "181149.685000", "181150.935000", "181152.185000", "181153.435000", "181154.685000", "181155.935000", "181157.185000", "181158.435000", "181159.685000", "181200.935000", "181202.185000", "181203.435000", "181204.685000", "181205.935000", "181207.185000", "181208.435000", "181209.685000", "181210.935000", "181212.185000", "181213.435000", "181214.685000", "181215.935000", "181217.185000", "181218.435000", "181219.685000", "181220.935000", "181222.185000", "181223.435000", "181224.685000", "181225.935000", "181227.185000", "181228.435000", "181229.685000", "181230.935000", "181232.185000", "181233.435000", "181234.685000", "181235.935000", "181237.185000", "181238.435000", "181239.685000", "181240.935000", "181242.185000", "181243.435000", "181244.685000", "181245.935000", "181247.185000", "181248.435000", "181249.685000", "181250.935000", "181252.185000", "181253.435000", "181254.685000", "181255.935000", "181257.185000", "181258.435000", "181259.685000", "181300.935000", "181302.185000", "181303.435000", "181304.685000", "181305.935000", "181307.185000", "181308.435000", "181309.685000", "181310.935000", "181312.185000", "181313.435000", "181314.685000", "181315.935000", "181317.185000", "181318.435000", "181319.685000", "181320.935000", "181322.185000", "181323.435000", "181324.685000", "181325.935000", "181327.185000", "181328.435000", "181329.685000", "181330.935000", "181332.185000", "181333.435000", "181334.685000", "181335.935000", "181337.185000", "181338.435000", "181339.685000", "181340.935000", "181342.185000", "181343.435000", "181344.685000", "181345.935000", "181347.185000", "181348.435000", "181349.685000", "181350.935000", "181352.185000", "181353.435000", "181354.685000", "181355.935000", "181357.185000", "181358.435000", "181359.685000", "181400.935000", "181402.185000", "181403.435000", "181404.685000", "181405.935000", "181407.185000", "181408.435000", "181409.685000", "181410.935000", "181412.185000", "181413.435000", "181414.685000", "181415.935000", "181417.185000", "181418.435000", "181419.685000", "181420.935000", "181422.185000", "181423.435000", "181424.685000", "181425.935000", "181427.185000", "181428.435000", "181429.685000", "181430.935000", "181432.185000", "181433.435000", "181434.685000", "181435.935000", "181437.185000", "181438.435000", "181439.685000", "181440.935000", "181442.185000", "181443.435000", "181444.685000", "181445.935000", "181447.185000", "181448.435000", "181449.685000", "181450.935000", "181452.185000", "181453.435000", "181454.685000", "181455.935000", "181457.185000", "181458.435000", "181459.685000", "181500.935000", "181502.185000", "181503.435000", "181504.685000", "181505.935000", "181507.185000", "181508.435000", "181509.685000", "181510.935000", "181512.185000", "181513.435000", "181514.685000", "181515.935000", "181517.185000", "181518.435000", "181519.685000", "181520.935000", "181522.185000", "181523.435000", "181524.685000", "181525.935000", "181527.185000", "181528.435000", "181529.685000", "181530.935000", "181532.185000", "181533.435000", "181534.685000", "181535.935000", "181537.185000", "181538.435000", "181539.685000", "181540.935000", "181542.185000", "181543.435000", "181544.685000", "181545.935000", "181547.185000", "181548.435000", "181549.685000", "181550.935000", "181552.185000", "181553.435000", "181554.685000", "181555.935000", "181557.185000", "181558.435000", "181559.685000", "181600.935000", "181602.185000", "181603.435000", "181604.685000", "181605.935000", "181607.185000", "181608.435000", "181609.685000", "181610.935000", "181612.185000", "181613.435000", "181614.685000", "181615.935000", "181617.185000", "181618.435000", "181619.685000", "181620.935000", "181622.185000", "181623.435000", "181624.685000", "181625.935000", "181627.185000", "181628.435000", "181629.685000", "181630.935000", "181632.185000", "181633.435000", "181634.685000", "181635.935000", "181637.185000"],
      "ContentTime": ["181049.623000", "181050.668000", "181051.902000", "181053.137000", "181054.410000", "181055.650000", "181056.905000", "181058.173000", "181059.399000", "181100.662000", "181101.860000", "181103.169000", "181104.393000", "181105.676000", "181106.894000", "181108.154000", "181109.416000", "181110.646000", "181111.891000", "181113.150000", "181114.407000", "181115.656000", "181116.913000", "181118.211000", "181119.412000", "181120.663000", "181121.906000", "181123.171000", "181124.410000", "181125.640000", "181126.906000", "181128.141000", "181129.388000", "181130.664000", "181131.918000", "181133.139000", "181134.414000", "181135.658000", "181136.904000", "181138.155000", "181139.384000", "181140.640000", "181141.911000", "181143.130000", "181144.426000", "181145.655000", "181146.882000", "181148.157000", "181149.405000", "181150.633000", "181151.905000", "181153.147000", "181154.393000", "181155.638000", "181156.887000", "181158.140000", "181159.413000", "181200.665000", "181201.890000", "181203.156000", "181204.398000", "181205.634000", "181206.898000", "181208.153000", "181209.404000", "181210.680000", "181211.911000", "181213.160000", "181214.408000", "181215.693000", "181216.900000", "181218.160000", "181219.424000", "181220.664000", "181221.896000", "181223.154000", "181224.400000", "181225.669000", "181226.912000", "181228.151000", "181229.384000", "181230.660000", "181231.888000", "181233.161000", "181234.405000", "181235.705000", "181237.013000", "181238.151000", "181239.401000", "181240.659000", "181241.896000", "181243.136000", "181244.396000", "181245.645000", "181246.866000", "181248.150000", "181249.401000", "181250.639000", "181251.883000", "181253.181000", "181254.381000", "181255.682000", "181256.894000", "181258.158000", "181259.409000", "181300.671000", "181301.918000", "181303.159000", "181304.376000", "181305.670000", "181306.914000", "181308.178000", "181309.421000", "181310.672000", "181311.913000", "181313.155000", "181314.407000", "181315.692000", "181316.915000", "181318.164000", "181319.426000", "181320.672000", "181321.901000", "181323.182000", "181324.379000", "181325.669000", "181326.908000", "181328.180000", "181329.419000", "181330.705000", "181331.967000", "181333.166000", "181334.386000", "181335.663000", "181336.888000", "181338.138000", "181339.440000", "181340.660000", "181341.909000", "181343.178000", "181344.431000", "181345.673000", "181346.910000", "181348.178000", "181349.412000", "181350.669000", "181351.937000", "181353.167000", "181354.457000", "181355.675000", "181356.907000", "181358.190000", "181359.411000", "181400.660000", "181401.902000", "181403.157000", "181404.412000", "181405.649000", "181406.905000", "181408.152000", "181409.437000", "181410.681000", "181411.943000", "181413.166000", "181414.472000", "181415.705000", "181416.901000", "181418.186000", "181419.423000", "181420.668000", "181421.948000", "181423.193000", "181424.413000", "181425.652000", "181426.910000", "181428.176000", "181429.409000", "181430.665000", "181431.909000", "181433.149000", "181434.397000", "181435.624000", "181436.900000", "181438.163000", "181439.408000", "181440.621000", "181441.897000", "181443.203000", "181444.425000", "181445.657000", "181446.936000", "181448.163000", "181449.398000", "181450.672000", "181451.928000", "181453.196000", "181454.403000", "181455.667000", "181456.912000", "181458.193000", "181459.417000", "181500.639000", "181501.911000", "181503.167000", "181504.439000", "181505.684000", "181506.897000", "181508.173000", "181509.415000", "181510.651000", "181511.970000", "181513.163000", "181514.390000", "181515.655000", "181516.912000", "181518.150000", "181519.413000", "181520.669000", "181521.939000", "181523.164000", "181524.437000", "181525.664000", "181526.925000", "181528.178000", "181529.403000", "181530.630000", "181531.990000", "181533.159000", "181534.414000", "181535.676000", "181536.912000", "181538.168000", "181539.397000", "181540.670000", "181541.910000", "181543.158000", "181544.415000", "181545.676000", "181546.955000", "181548.164000", "181549.395000", "181550.670000", "181551.918000", "181553.152000", "181554.405000", "181555.693000", "181556.908000", "181558.155000", "181559.420000", "181600.664000", "181601.887000", "181603.157000", "181604.389000", "181605.690000", "181606.923000", "181608.170000", "181609.430000", "181610.644000", "181611.895000", "181613.173000", "181614.416000", "181615.644000", "181616.900000", "181618.168000", "181619.415000", "181620.655000", "181621.900000", "181623.196000", "181624.404000", "181625.659000", "181626.918000", "181628.159000", "181629.412000", "181630.646000", "181631.914000", "181633.158000", "181634.397000", "181635.669000", "181636.916000", "181638.224000"],
      "InstanceCreationTime": ["181049.623000", "181050.668000", "181051.902000", "181053.137000", "181054.410000", "181055.650000", "181056.905000", "181058.173000", "181059.399000", "181100.662000", "181101.860000", "181103.169000", "181104.393000", "181105.676000", "181106.894000", "181108.154000", "181109.416000", "181110.646000", "181111.891000", "181113.150000", "181114.407000", "181115.656000", "181116.913000", "181118.211000", "181119.412000", "181120.663000", "181121.906000", "181123.171000", "181124.410000", "181125.640000", "181126.906000", "181128.141000", "181129.388000", "181130.664000", "181131.918000", "181133.139000", "181134.414000", "181135.658000", "181136.904000", "181138.155000", "181139.384000", "181140.640000", "181141.911000", "181143.130000", "181144.426000", "181145.655000", "181146.882000", "181148.157000", "181149.405000", "181150.633000", "181151.905000", "181153.147000", "181154.393000", "181155.638000", "181156.887000", "181158.140000", "181159.413000", "181200.665000", "181201.890000", "181203.156000", "181204.398000", "181205.634000", "181206.898000", "181208.153000", "181209.404000", "181210.680000", "181211.911000", "181213.160000", "181214.408000", "181215.693000", "181216.900000", "181218.160000", "181219.424000", "181220.664000", "181221.896000", "181223.154000", "181224.400000", "181225.669000", "181226.912000", "181228.151000", "181229.384000", "181230.660000", "181231.888000", "181233.161000", "181234.405000", "181235.705000", "181237.013000", "181238.151000", "181239.401000", "181240.659000", "181241.896000", "181243.136000", "181244.396000", "181245.645000", "181246.866000", "181248.150000", "181249.401000", "181250.639000", "181251.883000", "181253.181000", "181254.381000", "181255.682000", "181256.894000", "181258.158000", "181259.409000", "181300.671000", "181301.918000", "181303.159000", "181304.376000", "181305.670000", "181306.914000", "181308.178000", "181309.421000", "181310.672000", "181311.913000", "181313.155000", "181314.407000", "181315.692000", "181316.915000", "181318.164000", "181319.426000", "181320.672000", "181321.901000", "181323.182000", "181324.379000", "181325.669000", "181326.908000", "181328.180000", "181329.419000", "181330.705000", "181331.967000", "181333.166000", "181334.386000", "181335.663000", "181336.888000", "181338.138000", "181339.440000", "181340.660000", "181341.909000", "181343.178000", "181344.431000", "181345.673000", "181346.910000", "181348.178000", "181349.412000", "181350.669000", "181351.937000", "181353.167000", "181354.457000", "181355.675000", "181356.907000", "181358.190000", "181359.411000", "181400.660000", "181401.902000", "181403.157000", "181404.412000", "181405.649000", "181406.905000", "181408.152000", "181409.437000", "181410.681000", "181411.943000", "181413.166000", "181414.472000", "181415.705000", "181416.901000", "181418.186000", "181419.423000", "181420.668000", "181421.948000", "181423.193000", "181424.413000", "181425.652000", "181426.910000", "181428.176000", "181429.409000", "181430.665000", "181431.909000", "181433.149000", "181434.397000", "181435.624000", "181436.900000", "181438.163000", "181439.408000", "181440.621000", "181441.897000", "181443.203000", "181444.425000", "181445.657000", "181446.936000", "181448.163000", "181449.398000", "181450.672000", "181451.928000", "181453.196000", "181454.403000", "181455.667000", "181456.912000", "181458.193000", "181459.417000", "181500.639000", "181501.911000", "181503.167000", "181504.439000", "181505.684000", "181506.897000", "181508.173000", "181509.415000", "181510.651000", "181511.970000", "181513.163000", "181514.390000", "181515.655000", "181516.912000", "181518.150000", "181519.413000", "181520.669000", "181521.939000", "181523.164000", "181524.437000", "181525.664000", "181526.925000", "181528.178000", "181529.403000", "181530.630000", "181531.990000", "181533.159000", "181534.414000", "181535.676000", "181536.912000", "181538.168000", "181539.397000", "181540.670000", "181541.910000", "181543.158000", "181544.415000", "181545.676000", "181546.955000", "181548.164000", "181549.395000", "181550.670000", "181551.918000", "181553.152000", "181554.405000", "181555.693000", "181556.908000", "181558.155000", "181559.420000", "181600.664000", "181601.887000", "181603.157000", "181604.389000", "181605.690000", "181606.923000", "181608.170000", "181609.430000", "181610.644000", "181611.895000", "181613.173000", "181614.416000", "181615.644000", "181616.900000", "181618.168000", "181619.415000", "181620.655000", "181621.900000", "181623.196000", "181624.404000", "181625.659000", "181626.918000", "181628.159000", "181629.412000", "181630.646000", "181631.914000", "181633.158000", "181634.397000", "181635.669000", "181636.916000", "181638.224000"],
      "InstanceNumber": [1, 2, 3, 4, 5, 6, 7, 8, 9, 10, 11, 12, 13, 14, 15, 16, 17, 18, 19, 20, 21, 22, 23, 24, 25, 26, 27, 28, 29, 30, 31, 32, 33, 34, 35, 36, 37, 38, 39, 40, 41, 42, 43, 44, 45, 46, 47, 48, 49, 50, 51, 52, 53, 54, 55, 56, 57, 58, 59, 60, 61, 62, 63, 64, 65, 66, 67, 68, 69, 70, 71, 72, 73, 74, 75, 76, 77, 78, 79, 80, 81, 82, 83, 84, 85, 86, 87, 88, 89, 90, 91, 92, 93, 94, 95, 96, 97, 98, 99, 100, 101, 102, 103, 104, 105, 106, 107, 108, 109, 110, 111, 112, 113, 114, 115, 116, 117, 118, 119, 120, 121, 122, 123, 124, 125, 126, 127, 128, 129, 130, 131, 132, 133, 134, 135, 136, 137, 138, 139, 140, 141, 142, 143, 144, 145, 146, 147, 148, 149, 150, 151, 152, 153, 154, 155, 156, 157, 158, 159, 160, 161, 162, 163, 164, 165, 166, 167, 168, 169, 170, 171, 172, 173, 174, 175, 176, 177, 178, 179, 180, 181, 182, 183, 184, 185, 186, 187, 188, 189, 190, 191, 192, 193, 194, 195, 196, 197, 198, 199, 200, 201, 202, 203, 204, 205, 206, 207, 208, 209, 210, 211, 212, 213, 214, 215, 216, 217, 218, 219, 220, 221, 222, 223, 224, 225, 226, 227, 228, 229, 230, 231, 232, 233, 234, 235, 236, 237, 238, 239, 240, 241, 242, 243, 244, 245, 246, 247, 248, 249, 250, 251, 252, 253, 254, 255, 256, 257, 258, 259, 260, 261, 262, 263, 264, 265, 266, 267, 268, 269, 270, 271, 272, 273, 274, 275, 276, 277, 278, 279, 280],
      "LargestImagePixelValue": [1218, 1105, 1030, 915, 1359, 1356, 972, 805, 955, 1322, 1304, 1505, 854, 1091, 864, 1138, 1050, 1428, 1225, 1010, 1327, 1075, 1195, 805, 1126, 884, 1012, 885, 980, 882, 1378, 1037, 937, 1286, 1068, 960, 943, 1281, 834, 1193, 1128, 1001, 1030, 1181, 1017, 845, 1179, 944, 1008, 1212, 1420, 1120, 830, 1089, 1055, 858, 1112, 1183, 1103, 809, 1053, 867, 904, 1265, 1015, 1159, 1227, 848, 1203, 967, 986, 799, 1088, 981, 850, 1490, 1052, 1010, 1381, 954, 1179, 823, 920, 800, 1150, 831, 951, 1464, 1004, 1114, 1280, 864, 818, 1166, 822, 1050, 1364, 1119, 1100, 1076, 1181, 817, 1169, 1011, 1107, 845, 1115, 855, 1140, 940, 876, 794, 1156, 819, 1184, 1295, 906, 1354, 969, 1215, 801, 983, 769, 1123, 1024, 1128, 1328, 885, 1226, 1440, 934, 934, 1277, 946, 795, 1249, 880, 1093, 1152, 916, 757, 953, 1243, 1317, 879, 803, 892, 1193, 965, 1468, 1087, 1194, 919, 1133, 807, 1181, 803, 829, 924, 873, 937, 792, 962, 851, 973, 805, 1218, 978, 1115, 1134, 846, 1373, 1085, 933, 1002, 1040, 816, 957, 892, 870, 856, 968, 1016, 1068, 828, 1117, 912, 1067, 830, 1148, 927, 883, 883, 1383, 1013, 1104, 916, 1118, 810, 1151, 922, 1122, 896, 1109, 891, 1423, 925, 1207, 987, 981, 943, 1204, 842, 881, 1004, 816, 1092, 886, 837, 1175, 909, 984, 868, 1202, 856, 1151, 1278, 1153, 779, 1419, 1144, 1082, 934, 950, 874, 952, 847, 882, 1139, 869, 1156, 884, 1026, 918, 1082, 945, 1453, 941, 1121, 763, 1106, 789, 1245, 895, 1153, 1023, 987, 762, 1175, 1008, 1228, 909, 885, 1130, 788, 957, 779, 1080, 1084, 924, 1143, 1261, 1037, 927, 1170, 929, 1005, 778, 1148, 1054],
      "WindowCenter": [392.0, 390.0, 390.0, 388.0, 391.0, 391.0, 389.0, 387.0, 388.0, 390.0, 390.0, 391.0, 387.0, 390.0, 388.0, 390.0, 389.0, 391.0, 389.0, 388.0, 390.0, 388.0, 389.0, 386.0, 388.0, 386.0, 387.0, 387.0, 389.0, 388.0, 391.0, 389.0, 388.0, 390.0, 389.0, 388.0, 388.0, 391.0, 387.0, 390.0, 389.0, 388.0, 389.0, 389.0, 388.0, 386.0, 390.0, 388.0, 389.0, 390.0, 390.0, 388.0, 386.0, 388.0, 388.0, 386.0, 389.0, 389.0, 389.0, 385.0, 388.0, 386.0, 388.0, 390.0, 388.0, 388.0, 389.0, 386.0, 389.0, 387.0, 388.0, 387.0, 389.0, 388.0, 387.0, 391.0, 388.0, 387.0, 390.0, 387.0, 388.0, 385.0, 386.0, 386.0, 390.0, 387.0, 388.0, 391.0, 387.0, 388.0, 389.0, 386.0, 386.0, 389.0, 387.0, 389.0, 390.0, 388.0, 388.0, 388.0, 389.0, 386.0, 388.0, 387.0, 388.0, 386.0, 389.0, 387.0, 389.0, 387.0, 387.0, 387.0, 390.0, 387.0, 390.0, 390.0, 386.0, 390.0, 386.0, 389.0, 385.0, 387.0, 386.0, 390.0, 389.0, 389.0, 390.0, 386.0, 389.0, 390.0, 386.0, 386.0, 389.0, 387.0, 385.0, 389.0, 386.0, 388.0, 388.0, 386.0, 385.0, 388.0, 390.0, 391.0, 389.0, 388.0, 387.0, 389.0, 386.0, 389.0, 385.0, 385.0, 383.0, 385.0, 383.0, 386.0, 383.0, 384.0, 385.0, 385.0, 386.0, 385.0, 387.0, 386.0, 388.0, 387.0, 390.0, 389.0, 390.0, 390.0, 387.0, 392.0, 389.0, 388.0, 388.0, 388.0, 386.0, 387.0, 387.0, 387.0, 387.0, 388.0, 388.0, 389.0, 387.0, 389.0, 387.0, 388.0, 386.0, 389.0, 387.0, 387.0, 387.0, 391.0, 388.0, 388.0, 386.0, 388.0, 386.0, 389.0, 388.0, 389.0, 387.0, 388.0, 387.0, 390.0, 386.0, 389.0, 387.0, 387.0, 386.0, 388.0, 385.0, 386.0, 388.0, 386.0, 389.0, 387.0, 386.0, 388.0, 387.0, 388.0, 388.0, 391.0, 387.0, 389.0, 390.0, 388.0, 385.0, 390.0, 388.0, 388.0, 386.0, 387.0, 386.0, 387.0, 386.0, 387.0, 389.0, 387.0, 389.0, 386.0, 388.0, 388.0, 390.0, 388.0, 391.0, 387.0, 388.0, 385.0, 389.0, 386.0, 390.0, 386.0, 389.0, 387.0, 387.0, 385.0, 390.0, 389.0, 390.0, 386.0, 386.0, 388.0, 385.0, 387.0, 386.0, 389.0, 388.0, 387.0, 389.0, 389.0, 387.0, 386.0, 388.0, 386.0, 387.0, 385.0, 389.0, 388.0],
      "WindowWidth": [832.0, 829.0, 828.0, 826.0, 829.0, 828.0, 826.0, 824.0, 826.0, 828.0, 828.0, 829.0, 823.0, 829.0, 825.0, 828.0, 826.0, 829.0, 827.0, 825.0, 827.0, 824.0, 826.0, 822.0, 825.0, 821.0, 823.0, 822.0, 826.0, 825.0, 829.0, 826.0, 825.0, 828.0, 826.0, 825.0, 825.0, 829.0, 824.0, 828.0, 827.0, 825.0, 825.0, 826.0, 824.0, 822.0, 827.0, 825.0, 826.0, 827.0, 827.0, 824.0, 821.0, 825.0, 824.0, 822.0, 826.0, 826.0, 825.0, 820.0, 824.0, 822.0, 824.0, 828.0, 825.0, 825.0, 826.0, 821.0, 826.0, 824.0, 824.0, 823.0, 827.0, 826.0, 824.0, 829.0, 824.0, 824.0, 827.0, 822.0, 824.0, 820.0, 822.0, 822.0, 827.0, 823.0, 825.0, 829.0, 823.0, 825.0, 825.0, 822.0, 821.0, 826.0, 823.0, 826.0, 827.0, 825.0, 825.0, 824.0, 826.0, 821.0, 825.0, 823.0, 825.0, 822.0, 825.0, 823.0, 827.0, 823.0, 823.0, 823.0, 828.0, 824.0, 828.0, 828.0, 822.0, 827.0, 822.0, 825.0, 820.0, 824.0, 822.0, 828.0, 826.0, 827.0, 827.0, 822.0, 825.0, 827.0, 822.0, 822.0, 825.0, 823.0, 820.0, 826.0, 822.0, 824.0, 823.0, 821.0, 820.0, 825.0, 828.0, 829.0, 826.0, 825.0, 824.0, 826.0, 822.0, 825.0, 819.0, 819.0, 816.0, 818.0, 815.0, 820.0, 817.0, 818.0, 820.0, 819.0, 821.0, 820.0, 824.0, 822.0, 825.0, 823.0, 829.0, 827.0, 828.0, 828.0, 824.0, 830.0, 827.0, 825.0, 825.0, 825.0, 821.0, 824.0, 823.0, 824.0, 824.0, 824.0, 825.0, 826.0, 823.0, 826.0, 823.0, 825.0, 823.0, 825.0, 824.0, 824.0, 824.0, 829.0, 824.0, 824.0, 822.0, 824.0, 821.0, 826.0, 824.0, 827.0, 824.0, 825.0, 823.0, 828.0, 822.0, 825.0, 822.0, 823.0, 821.0, 824.0, 820.0, 822.0, 825.0, 822.0, 826.0, 823.0, 821.0, 825.0, 823.0, 825.0, 825.0, 829.0, 824.0, 826.0, 826.0, 825.0, 820.0, 827.0, 825.0, 824.0, 821.0, 822.0, 821.0, 823.0, 822.0, 823.0, 825.0, 822.0, 826.0, 822.0, 824.0, 824.0, 827.0, 825.0, 829.0, 823.0, 825.0, 821.0, 826.0, 821.0, 828.0, 822.0, 825.0, 823.0, 823.0, 821.0, 827.0, 826.0, 828.0, 822.0, 821.0, 824.0, 821.0, 823.0, 822.0, 827.0, 825.0, 823.0, 825.0, 825.0, 823.0, 822.0, 825.0, 821.0, 822.0, 820.0, 825.0, 824.0]
    },
    "slices": {}
  }
}