{
  "AcquisitionMatrixPE": 96,
  "AcquisitionNumber": 1,
  "AcquisitionTime": "18:45:4.697500",
  "BandwidthPerPixelPhaseEncode": 18.939,
  "BaseResolution": 96,
  "BodyPartExamined": "BRAIN",
  "ConsistencyInfo": "N4_VE11C_LATEST_20160120",
  "ConversionSoftware": "dcm2niix",
  "ConversionSoftwareVersion": "v1.0.20170923 (OpenJPEG build) GCC6.3.0",
  "DerivedVendorReportedEchoSpacing": 0.000550011,
  "DeviceSerialNumber": "66112",
  "DwellTime": 2.3e-06,
  "EchoTime": 0.033,
  "EchoTrainLength": 96,
  "EffectiveEchoSpacing": 0.000550011,
  "FlipAngle": 64,
  "ImageType": [
    "ORIGINAL",
    "PRIMARY",
    "FMRI",
    "NONE",
    "ND",
    "NORM",
    "MOSAIC"
],
  "InstitutionAddress": "Maynard_3_Hanover_NH_US_03755",
  "InstitutionName": "Dartmouth_College_-_PBS",
  "MagneticFieldStrength": 3,
  "Manufacturer": "Siemens",
  "ManufacturersModelName": "Prisma",
  "Modality": "MR",
  "MultibandAccelerationFactor": 4,
  "PartialFourier": 1,
  "PercentPhaseFOV": 100,
  "PhaseEncodingDirection": "j-",
  "PhaseEncodingSteps": 96,
  "PhaseResolution": 1,
  "ProcedureStepDescription": "Gobbini_Matteo_1017_famface-angles",
  "ProtocolName": "func_run-09_task-fam1back",
  "PulseSequenceDetails": "%SiemensSeq%_ep2d_bold",
  "ReceiveCoilActiveElements": "HEA;HEP",
  "ReceiveCoilName": "Head_32",
  "ReconMatrixPE": 96,
  "RepetitionTime": 1.25,
  "ScanOptions": "FS",
  "ScanningSequence": "EP",
  "SequenceName": "_epfid2d1_96",
  "SequenceVariant": "SK",
  "SeriesDescription": "func_run-09_task-fam1back",
  "SliceTiming": [0.8775, 0, 0.6125, 0.0875, 0.7025, 0.175, 0.79, 0.35, 0.965, 0.4375, 1.0525, 0.525, 1.14, 0.2625, 0.8775, 0, 0.6125, 0.0875, 0.7025, 0.175, 0.79, 0.35, 0.965, 0.4375, 1.0525, 0.525, 1.14, 0.2625, 0.8775, 0, 0.6125, 0.0875, 0.7025, 0.175, 0.79, 0.35, 0.965, 0.4375, 1.0525, 0.525, 1.14, 0.2625, 0.8775, 0, 0.6125, 0.0875, 0.7025, 0.175, 0.79, 0.35, 0.965, 0.4375, 1.0525, 0.525, 1.14, 0.2625],
  "SoftwareVersions": "syngo_MR_E11",
  "StationName": "AWP66112",
  "TaskName": "fam1back",
  "TotalReadoutTime": 0.0522511,
  "dcmmeta_affine": [
    [-2.4971632957458496, -0.0091524887830019, 0.11870690435171127, 119.09539031982422],
    [0.000586063542868942, 2.4916269779205322, 0.2044370025396347, -100.85292053222656],
    [0.11905777454376221, -0.20423287153244019, 2.488797664642334, -62.45531463623047],
    [0.0, 0.0, 0.0, 1.0]
],
  "dcmmeta_reorient_transform": [
    [0.0, -1.0, 0.0, 95.0],
    [1.0, 0.0, 0.0, 0.0],
    [0.0, 0.0, 1.0, 0.0],
    [0.0, 0.0, 0.0, 1.0]
],
  "dcmmeta_shape": [96, 96, 56, 280],
  "dcmmeta_slice_dim": 2,
  "dcmmeta_version": 0.6,
  "global": {
    "const": {
      "AccessionNumber": "A000312",
      "AcquisitionMatrix": [96, 0, 0, 96],
      "AngioFlag": "N",
      "BitsAllocated": 16,
      "BitsStored": 12,
      "BodyPartExamined": "BRAIN",
      "Columns": 768,
      "EchoNumbers": 1,
      "EchoTime": 33.0,
      "EchoTrainLength": 96,
      "FlipAngle": 64.0,
      "HighBit": 11,
      "ImageOrientationPatient": [0.99886534848893, -0.0002344254137, 0.04762311028085, -0.0036609953967, 0.99665080491849, 0.08169314639571],
      "ImagePositionPatient": [-954.19756079492, -972.84140157072, -190.48309157795],
      "ImageType": [
        "ORIGINAL",
        "PRIMARY",
        "FMRI",
        "NONE",
        "ND",
        "NORM",
        "MOSAIC"
],
      "ImagedNucleus": "1H",
      "ImagingFrequency": 123.252369,
      "InPlanePhaseEncodingDirection": "COL",
      "MRAcquisitionType": "2D",
      "MagneticFieldStrength": 3.0,
      "Manufacturer": "SIEMENS",
      "ManufacturerModelName": "Prisma",
      "Modality": "MR",
      "NumberOfAverages": 1.0,
      "NumberOfPhaseEncodingSteps": 96,
      "PercentPhaseFieldOfView": 100.0,
      "PercentSampling": 100.0,
      "PerformedProcedureStepStartTime": "174326.131000",
      "PhotometricInterpretation": "MONOCHROME2",
      "PixelBandwidth": 2265.0,
      "PixelRepresentation": 0,
      "PixelSpacing": [2.5, 2.5],
      "PositionReferenceIndicator": "",
      "ProtocolName": "func_run-09_task-fam1back",
      "RepetitionTime": 1250.0,
      "Rows": 768,
      "SAR": 0.05659369429771,
      "SamplesPerPixel": 1,
      "ScanOptions": "FS",
      "ScanningSequence": "EP",
      "SequenceName": "*epfid2d1_96",
      "SequenceVariant": "SK",
      "SeriesDescription": "func_run-09_task-fam1back",
      "SeriesNumber": 64,
      "SeriesTime": "184506.338000",
      "SliceLocation": -64.767707043399,
      "SliceThickness": 2.5,
      "SmallestImagePixelValue": 0,
      "SoftwareVersions": "syngo MR E11",
      "SpacingBetweenSlices": 2.4999999530028,
      "SpecificCharacterSet": "ISO_IR 100",
      "StudyID": "2",
      "StudyTime": "174326.083000",
      "TransmitCoilName": "Body",
      "VariableFlipAngleFlag": "N",
      "WindowCenterWidthExplanation": "Algo1",
      "dBdt": 0.0},
    "slices": {}
  },
  "time": {
    "samples": {
      "AcquisitionNumber": [1, 2, 3, 4, 5, 6, 7, 8, 9, 10, 11, 12, 13, 14, 15, 16, 17, 18, 19, 20, 21, 22, 23, 24, 25, 26, 27, 28, 29, 30, 31, 32, 33, 34, 35, 36, 37, 38, 39, 40, 41, 42, 43, 44, 45, 46, 47, 48, 49, 50, 51, 52, 53, 54, 55, 56, 57, 58, 59, 60, 61, 62, 63, 64, 65, 66, 67, 68, 69, 70, 71, 72, 73, 74, 75, 76, 77, 78, 79, 80, 81, 82, 83, 84, 85, 86, 87, 88, 89, 90, 91, 92, 93, 94, 95, 96, 97, 98, 99, 100, 101, 102, 103, 104, 105, 106, 107, 108, 109, 110, 111, 112, 113, 114, 115, 116, 117, 118, 119, 120, 121, 122, 123, 124, 125, 126, 127, 128, 129, 130, 131, 132, 133, 134, 135, 136, 137, 138, 139, 140, 141, 142, 143, 144, 145, 146, 147, 148, 149, 150, 151, 152, 153, 154, 155, 156, 157, 158, 159, 160, 161, 162, 163, 164, 165, 166, 167, 168, 169, 170, 171, 172, 173, 174, 175, 176, 177, 178, 179, 180, 181, 182, 183, 184, 185, 186, 187, 188, 189, 190, 191, 192, 193, 194, 195, 196, 197, 198, 199, 200, 201, 202, 203, 204, 205, 206, 207, 208, 209, 210, 211, 212, 213, 214, 215, 216, 217, 218, 219, 220, 221, 222, 223, 224, 225, 226, 227, 228, 229, 230, 231, 232, 233, 234, 235, 236, 237, 238, 239, 240, 241, 242, 243, 244, 245, 246, 247, 248, 249, 250, 251, 252, 253, 254, 255, 256, 257, 258, 259, 260, 261, 262, 263, 264, 265, 266, 267, 268, 269, 270, 271, 272, 273, 274, 275, 276, 277, 278, 279, 280],
      "AcquisitionTime": ["184504.697500", "184505.947500", "184507.197500", "184508.447500", "184509.697500", "184510.947500", "184512.197500", "184513.447500", "184514.697500", "184515.947500", "184517.197500", "184518.447500", "184519.697500", "184520.947500", "184522.197500", "184523.447500", "184524.697500", "184525.947500", "184527.197500", "184528.447500", "184529.697500", "184530.947500", "184532.197500", "184533.447500", "184534.697500", "184535.947500", "184537.197500", "184538.447500", "184539.697500", "184540.947500", "184542.197500", "184543.447500", "184544.697500", "184545.947500", "184547.197500", "184548.447500", "184549.697500", "184550.947500", "184552.197500", "184553.447500", "184554.697500", "184555.947500", "184557.197500", "184558.447500", "184559.697500", "184600.947500", "184602.197500", "184603.447500", "184604.697500", "184605.947500", "184607.197500", "184608.447500", "184609.697500", "184610.947500", "184612.197500", "184613.447500", "184614.697500", "184615.947500", "184617.197500", "184618.447500", "184619.697500", "184620.947500", "184622.197500", "184623.447500", "184624.697500", "184625.947500", "184627.197500", "184628.447500", "184629.697500", "184630.947500", "184632.197500", "184633.447500", "184634.697500", "184635.947500", "184637.197500", "184638.447500", "184639.697500", "184640.947500", "184642.197500", "184643.447500", "184644.697500", "184645.947500", "184647.197500", "184648.447500", "184649.697500", "184650.947500", "184652.197500", "184653.447500", "184654.697500", "184655.947500", "184657.197500", "184658.447500", "184659.697500", "184700.947500", "184702.197500", "184703.447500", "184704.697500", "184705.947500", "184707.197500", "184708.447500", "184709.697500", "184710.947500", "184712.197500", "184713.447500", "184714.697500", "184715.947500", "184717.197500", "184718.447500", "184719.697500", "184720.947500", "184722.197500", "184723.447500", "184724.697500", "184725.947500", "184727.197500", "184728.447500", "184729.697500", "184730.947500", "184732.197500", "184733.447500", "184734.697500", "184735.947500", "184737.197500", "184738.447500", "184739.697500", "184740.947500", "184742.197500", "184743.447500", "184744.697500", "184745.947500", "184747.197500", "184748.447500", "184749.697500", "184750.947500", "184752.197500", "184753.447500", "184754.697500", "184755.947500", "184757.197500", "184758.447500", "184759.697500", "184800.947500", "184802.197500", "184803.447500", "184804.697500", "184805.947500", "184807.197500", "184808.447500", "184809.697500", "184810.947500", "184812.197500", "184813.447500", "184814.697500", "184815.947500", "184817.197500", "184818.447500", "184819.697500", "184820.947500", "184822.197500", "184823.447500", "184824.697500", "184825.947500", "184827.197500", "184828.447500", "184829.697500", "184830.947500", "184832.197500", "184833.447500", "184834.697500", "184835.947500", "184837.197500", "184838.447500", "184839.697500", "184840.947500", "184842.197500", "184843.447500", "184844.697500", "184845.947500", "184847.197500", "184848.447500", "184849.697500", "184850.947500", "184852.197500", "184853.447500", "184854.697500", "184855.947500", "184857.197500", "184858.447500", "184859.697500", "184900.947500", "184902.197500", "184903.447500", "184904.697500", "184905.947500", "184907.197500", "184908.447500", "184909.697500", "184910.947500", "184912.197500", "184913.447500", "184914.697500", "184915.947500", "184917.197500", "184918.447500", "184919.697500", "184920.947500", "184922.197500", "184923.447500", "184924.697500", "184925.947500", "184927.197500", "184928.447500", "184929.697500", "184930.947500", "184932.197500", "184933.447500", "184934.697500", "184935.947500", "184937.197500", "184938.447500", "184939.697500", "184940.947500", "184942.197500", "184943.447500", "184944.697500", "184945.947500", "184947.197500", "184948.447500", "184949.697500", "184950.947500", "184952.197500", "184953.447500", "184954.697500", "184955.947500", "184957.197500", "184958.447500", "184959.697500", "185000.947500", "185002.197500", "185003.447500", "185004.697500", "185005.947500", "185007.197500", "185008.447500", "185009.697500", "185010.947500", "185012.197500", "185013.447500", "185014.697500", "185015.947500", "185017.197500", "185018.447500", "185019.697500", "185020.947500", "185022.197500", "185023.447500", "185024.697500", "185025.947500", "185027.197500", "185028.447500", "185029.697500", "185030.947500", "185032.197500", "185033.447500", "185034.697500", "185035.947500", "185037.197500", "185038.447500", "185039.697500", "185040.947500", "185042.197500", "185043.447500", "185044.697500", "185045.947500", "185047.197500", "185048.447500", "185049.697500", "185050.947500", "185052.197500", "185053.447500"],
      "ContentTime": ["184506.343000", "184507.409000", "184508.647000", "184509.894000", "184511.160000", "184512.392000", "184513.648000", "184514.885000", "184516.156000", "184517.398000", "184518.633000", "184519.894000", "184521.148000", "184522.363000", "184523.637000", "184524.900000", "184526.157000", "184527.414000", "184528.633000", "184529.868000", "184531.144000", "184532.410000", "184533.699000", "184534.900000", "184536.121000", "184537.380000", "184538.648000", "184539.895000", "184541.126000", "184542.383000", "184543.635000", "184544.880000", "184546.149000", "184547.390000", "184548.651000", "184549.862000", "184551.135000", "184552.391000", "184553.641000", "184554.881000", "184556.153000", "184557.383000", "184558.632000", "184559.868000", "184601.136000", "184602.411000", "184603.650000", "184604.890000", "184606.142000", "184607.387000", "184608.636000", "184609.894000", "184611.142000", "184612.490000", "184613.631000", "184614.909000", "184616.115000", "184617.455000", "184618.609000", "184619.909000", "184621.127000", "184622.398000", "184623.664000", "184624.898000", "184626.116000", "184627.401000", "184628.652000", "184629.876000", "184631.147000", "184632.397000", "184633.634000", "184634.889000", "184636.169000", "184637.415000", "184638.622000", "184639.891000", "184641.141000", "184642.415000", "184643.663000", "184644.877000", "184646.139000", "184647.397000", "184648.636000", "184649.904000", "184651.141000", "184652.381000", "184653.645000", "184654.897000", "184656.139000", "184657.391000", "184658.626000", "184659.885000", "184701.106000", "184702.389000", "184703.659000", "184704.880000", "184706.143000", "184707.397000", "184708.632000", "184709.909000", "184711.174000", "184712.428000", "184713.669000", "184714.885000", "184716.152000", "184717.399000", "184718.662000", "184719.973000", "184721.140000", "184722.390000", "184723.677000", "184724.895000", "184726.162000", "184727.396000", "184728.666000", "184729.906000", "184731.150000", "184732.412000", "184733.669000", "184734.901000", "184736.153000", "184737.448000", "184738.660000", "184739.901000", "184741.227000", "184742.406000", "184743.628000", "184744.904000", "184746.158000", "184747.405000", "184748.659000", "184749.912000", "184751.138000", "184752.392000", "184753.648000", "184754.896000", "184756.143000", "184757.382000", "184758.629000", "184759.904000", "184801.139000", "184802.381000", "184803.643000", "184804.942000", "184806.152000", "184807.426000", "184808.650000", "184809.924000", "184811.127000", "184812.394000", "184813.629000", "184814.897000", "184816.161000", "184817.399000", "184818.675000", "184819.894000", "184821.159000", "184822.406000", "184823.633000", "184824.875000", "184826.147000", "184827.405000", "184828.632000", "184829.873000", "184831.160000", "184832.392000", "184833.653000", "184834.905000", "184836.148000", "184837.395000", "184838.629000", "184839.884000", "184841.136000", "184842.391000", "184843.650000", "184844.901000", "184846.152000", "184847.409000", "184848.625000", "184849.900000", "184851.138000", "184852.444000", "184853.631000", "184854.897000", "184856.147000", "184857.409000", "184858.649000", "184859.875000", "184901.156000", "184902.408000", "184903.653000", "184904.924000", "184906.170000", "184907.400000", "184908.650000", "184909.898000", "184911.151000", "184912.394000", "184913.658000", "184914.919000", "184916.145000", "184917.404000", "184918.675000", "184919.895000", "184921.113000", "184922.394000", "184923.649000", "184924.874000", "184926.137000", "184927.385000", "184928.720000", "184929.952000", "184931.211000", "184932.405000", "184933.666000", "184934.921000", "184936.122000", "184937.407000", "184938.651000", "184939.903000", "184941.141000", "184942.401000", "184943.627000", "184944.886000", "184946.123000", "184947.399000", "184948.643000", "184949.877000", "184951.152000", "184952.391000", "184953.669000", "184954.910000", "184956.166000", "184957.387000", "184958.659000", "184959.897000", "185001.143000", "185002.397000", "185003.646000", "185004.911000", "185006.152000", "185007.398000", "185008.650000", "185009.894000", "185011.145000", "185012.392000", "185013.636000", "185014.907000", "185016.156000", "185017.374000", "185018.666000", "185019.908000", "185021.145000", "185022.371000", "185023.659000", "185024.901000", "185026.165000", "185027.403000", "185028.665000", "185029.891000", "185031.184000", "185032.396000", "185033.673000", "185034.910000", "185036.185000", "185037.383000", "185038.643000", "185039.914000", "185041.165000", "185042.413000", "185043.708000", "185044.901000", "185046.107000", "185047.383000", "185048.683000", "185049.913000", "185051.174000", "185052.391000", "185053.643000", "185054.943000"],
      "InstanceCreationTime": ["184506.343000", "184507.409000", "184508.647000", "184509.894000", "184511.160000", "184512.392000", "184513.648000", "184514.885000", "184516.156000", "184517.398000", "184518.633000", "184519.894000", "184521.148000", "184522.363000", "184523.637000", "184524.900000", "184526.157000", "184527.414000", "184528.633000", "184529.868000", "184531.144000", "184532.410000", "184533.699000", "184534.900000", "184536.121000", "184537.380000", "184538.648000", "184539.895000", "184541.126000", "184542.383000", "184543.635000", "184544.880000", "184546.149000", "184547.390000", "184548.651000", "184549.862000", "184551.135000", "184552.391000", "184553.641000", "184554.881000", "184556.153000", "184557.383000", "184558.632000", "184559.868000", "184601.136000", "184602.411000", "184603.650000", "184604.890000", "184606.142000", "184607.387000", "184608.636000", "184609.894000", "184611.142000", "184612.490000", "184613.631000", "184614.909000", "184616.115000", "184617.455000", "184618.609000", "184619.909000", "184621.127000", "184622.398000", "184623.664000", "184624.898000", "184626.116000", "184627.401000", "184628.652000", "184629.876000", "184631.147000", "184632.397000", "184633.634000", "184634.889000", "184636.169000", "184637.415000", "184638.622000", "184639.891000", "184641.141000", "184642.415000", "184643.663000", "184644.877000", "184646.139000", "184647.397000", "184648.636000", "184649.904000", "184651.141000", "184652.381000", "184653.645000", "184654.897000", "184656.139000", "184657.391000", "184658.626000", "184659.885000", "184701.106000", "184702.389000", "184703.659000", "184704.880000", "184706.143000", "184707.397000", "184708.632000", "184709.909000", "184711.174000", "184712.428000", "184713.669000", "184714.885000", "184716.152000", "184717.399000", "184718.662000", "184719.973000", "184721.140000", "184722.390000", "184723.677000", "184724.895000", "184726.162000", "184727.396000", "184728.666000", "184729.906000", "184731.150000", "184732.412000", "184733.669000", "184734.901000", "184736.153000", "184737.448000", "184738.660000", "184739.901000", "184741.227000", "184742.406000", "184743.628000", "184744.904000", "184746.158000", "184747.405000", "184748.659000", "184749.912000", "184751.138000", "184752.392000", "184753.648000", "184754.896000", "184756.143000", "184757.382000", "184758.629000", "184759.904000", "184801.139000", "184802.381000", "184803.643000", "184804.942000", "184806.152000", "184807.426000", "184808.650000", "184809.924000", "184811.127000", "184812.394000", "184813.629000", "184814.897000", "184816.161000", "184817.399000", "184818.675000", "184819.894000", "184821.159000", "184822.406000", "184823.633000", "184824.875000", "184826.147000", "184827.405000", "184828.632000", "184829.873000", "184831.160000", "184832.392000", "184833.653000", "184834.905000", "184836.148000", "184837.395000", "184838.629000", "184839.884000", "184841.136000", "184842.391000", "184843.650000", "184844.901000", "184846.152000", "184847.409000", "184848.625000", "184849.900000", "184851.138000", "184852.444000", "184853.631000", "184854.897000", "184856.147000", "184857.409000", "184858.649000", "184859.875000", "184901.156000", "184902.408000", "184903.653000", "184904.924000", "184906.170000", "184907.400000", "184908.650000", "184909.898000", "184911.151000", "184912.394000", "184913.658000", "184914.919000", "184916.145000", "184917.404000", "184918.675000", "184919.895000", "184921.113000", "184922.394000", "184923.649000", "184924.874000", "184926.137000", "184927.385000", "184928.720000", "184929.952000", "184931.211000", "184932.405000", "184933.666000", "184934.921000", "184936.122000", "184937.407000", "184938.651000", "184939.903000", "184941.141000", "184942.401000", "184943.627000", "184944.886000", "184946.123000", "184947.399000", "184948.643000", "184949.877000", "184951.152000", "184952.391000", "184953.669000", "184954.910000", "184956.166000", "184957.387000", "184958.659000", "184959.897000", "185001.143000", "185002.397000", "185003.646000", "185004.911000", "185006.152000", "185007.398000", "185008.650000", "185009.894000", "185011.145000", "185012.392000", "185013.636000", "185014.907000", "185016.156000", "185017.374000", "185018.666000", "185019.908000", "185021.145000", "185022.371000", "185023.659000", "185024.901000", "185026.165000", "185027.403000", "185028.665000", "185029.891000", "185031.184000", "185032.396000", "185033.673000", "185034.910000", "185036.185000", "185037.383000", "185038.643000", "185039.914000", "185041.165000", "185042.413000", "185043.708000", "185044.901000", "185046.107000", "185047.383000", "185048.683000", "185049.913000", "185051.174000", "185052.391000", "185053.643000", "185054.943000"],
      "InstanceNumber": [1, 2, 3, 4, 5, 6, 7, 8, 9, 10, 11, 12, 13, 14, 15, 16, 17, 18, 19, 20, 21, 22, 23, 24, 25, 26, 27, 28, 29, 30, 31, 32, 33, 34, 35, 36, 37, 38, 39, 40, 41, 42, 43, 44, 45, 46, 47, 48, 49, 50, 51, 52, 53, 54, 55, 56, 57, 58, 59, 60, 61, 62, 63, 64, 65, 66, 67, 68, 69, 70, 71, 72, 73, 74, 75, 76, 77, 78, 79, 80, 81, 82, 83, 84, 85, 86, 87, 88, 89, 90, 91, 92, 93, 94, 95, 96, 97, 98, 99, 100, 101, 102, 103, 104, 105, 106, 107, 108, 109, 110, 111, 112, 113, 114, 115, 116, 117, 118, 119, 120, 121, 122, 123, 124, 125, 126, 127, 128, 129, 130, 131, 132, 133, 134, 135, 136, 137, 138, 139, 140, 141, 142, 143, 144, 145, 146, 147, 148, 149, 150, 151, 152, 153, 154, 155, 156, 157, 158, 159, 160, 161, 162, 163, 164, 165, 166, 167, 168, 169, 170, 171, 172, 173, 174, 175, 176, 177, 178, 179, 180, 181, 182, 183, 184, 185, 186, 187, 188, 189, 190, 191, 192, 193, 194, 195, 196, 197, 198, 199, 200, 201, 202, 203, 204, 205, 206, 207, 208, 209, 210, 211, 212, 213, 214, 215, 216, 217, 218, 219, 220, 221, 222, 223, 224, 225, 226, 227, 228, 229, 230, 231, 232, 233, 234, 235, 236, 237, 238, 239, 240, 241, 242, 243, 244, 245, 246, 247, 248, 249, 250, 251, 252, 253, 254, 255, 256, 257, 258, 259, 260, 261, 262, 263, 264, 265, 266, 267, 268, 269, 270, 271, 272, 273, 274, 275, 276, 277, 278, 279, 280],
      "LargestImagePixelValue": [903, 1168, 886, 1370, 824, 954, 1189, 967, 1234, 846, 951, 1292, 918, 1405, 1016, 1232, 829, 1040, 840, 874, 1131, 1321, 921, 945, 1420, 1063, 954, 860, 1135, 809, 914, 801, 1347, 1061, 1167, 955, 1398, 938, 1151, 1122, 1151, 829, 1168, 961, 1062, 851, 1110, 1316, 926, 1029, 1300, 849, 1235, 1024, 1109, 827, 1101, 984, 939, 778, 1080, 845, 1323, 1097, 805, 1026, 859, 884, 1312, 943, 1262, 1065, 1034, 794, 914, 1152, 846, 1298, 857, 945, 776, 829, 1116, 983, 1007, 923, 1435, 1148, 1140, 858, 1487, 1081, 952, 1223, 867, 1068, 869, 930, 1019, 1122, 925, 887, 1119, 958, 985, 816, 1153, 1032, 938, 1181, 1238, 1009, 843, 1164, 842, 933, 837, 1103, 1237, 978, 791, 1098, 1341, 847, 1330, 923, 975, 785, 847, 919, 851, 1178, 890, 1336, 999, 907, 1291, 912, 1161, 980, 948, 870, 1294, 1029, 1006, 859, 1152, 946, 832, 1144, 935, 957, 929, 1119, 1458, 883, 991, 1135, 906, 1172, 925, 1463, 865, 974, 1088, 833, 1253, 1137, 1231, 842, 1064, 870, 834, 1332, 897, 1026, 838, 1269, 998, 849, 1524, 1051, 1042, 881, 990, 801, 1108, 941, 985, 1127, 1000, 940, 871, 1188, 865, 1125, 863, 1436, 1148, 1129, 874, 1460, 824, 930, 1094, 1032, 790, 853, 1394, 868, 1106, 1098, 1009, 801, 1139, 1000, 866, 1094, 1067, 1012, 850, 1146, 1341, 939, 1006, 938, 1454, 883, 1117, 847, 1247, 1002, 1136, 1011, 1407, 1211, 1193, 830, 813, 855, 1297, 1078, 1095, 852, 1136, 873, 843, 1116, 868, 818, 903, 1014, 811, 919, 793, 1125, 1161, 904, 882, 1248, 1006, 875, 1240, 840, 916, 825, 1107, 1025, 851, 1095, 1174, 871, 1184, 971, 1140, 863, 832, 1265, 908, 895],
      "WindowCenter": [388.0, 390.0, 388.0, 391.0, 388.0, 388.0, 390.0, 388.0, 390.0, 389.0, 390.0, 393.0, 389.0, 393.0, 390.0, 391.0, 387.0, 389.0, 387.0, 388.0, 390.0, 391.0, 389.0, 388.0, 391.0, 388.0, 388.0, 388.0, 390.0, 387.0, 388.0, 387.0, 391.0, 390.0, 391.0, 389.0, 392.0, 388.0, 390.0, 389.0, 389.0, 387.0, 390.0, 388.0, 389.0, 388.0, 390.0, 390.0, 387.0, 388.0, 389.0, 386.0, 390.0, 388.0, 389.0, 387.0, 389.0, 387.0, 388.0, 387.0, 389.0, 387.0, 390.0, 389.0, 387.0, 390.0, 388.0, 387.0, 390.0, 387.0, 389.0, 387.0, 387.0, 385.0, 386.0, 388.0, 385.0, 389.0, 386.0, 386.0, 385.0, 387.0, 390.0, 389.0, 389.0, 388.0, 392.0, 389.0, 390.0, 387.0, 392.0, 389.0, 387.0, 389.0, 386.0, 389.0, 387.0, 388.0, 390.0, 390.0, 389.0, 388.0, 389.0, 388.0, 389.0, 388.0, 390.0, 389.0, 388.0, 390.0, 390.0, 388.0, 387.0, 389.0, 387.0, 388.0, 387.0, 389.0, 390.0, 388.0, 387.0, 389.0, 390.0, 387.0, 391.0, 387.0, 387.0, 385.0, 387.0, 389.0, 389.0, 391.0, 388.0, 390.0, 388.0, 387.0, 390.0, 387.0, 389.0, 389.0, 389.0, 388.0, 391.0, 388.0, 389.0, 387.0, 389.0, 388.0, 387.0, 391.0, 389.0, 389.0, 389.0, 390.0, 391.0, 387.0, 389.0, 390.0, 388.0, 390.0, 387.0, 391.0, 387.0, 388.0, 389.0, 387.0, 391.0, 389.0, 390.0, 387.0, 389.0, 387.0, 387.0, 392.0, 388.0, 388.0, 387.0, 390.0, 388.0, 387.0, 392.0, 389.0, 388.0, 387.0, 388.0, 387.0, 389.0, 388.0, 388.0, 389.0, 388.0, 387.0, 388.0, 391.0, 388.0, 390.0, 388.0, 391.0, 389.0, 390.0, 387.0, 391.0, 386.0, 387.0, 389.0, 388.0, 387.0, 387.0, 392.0, 387.0, 390.0, 390.0, 389.0, 387.0, 389.0, 388.0, 387.0, 390.0, 389.0, 389.0, 388.0, 390.0, 391.0, 388.0, 388.0, 387.0, 391.0, 387.0, 390.0, 387.0, 391.0, 389.0, 389.0, 388.0, 390.0, 390.0, 390.0, 388.0, 387.0, 387.0, 389.0, 387.0, 387.0, 384.0, 386.0, 384.0, 383.0, 386.0, 385.0, 385.0, 387.0, 388.0, 386.0, 387.0, 387.0, 389.0, 389.0, 387.0, 387.0, 389.0, 387.0, 386.0, 389.0, 386.0, 387.0, 387.0, 389.0, 388.0, 387.0, 389.0, 389.0, 387.0, 389.0, 387.0, 388.0, 386.0, 386.0, 389.0, 386.0, 386.0],
      "WindowWidth": [827.0, 828.0, 826.0, 830.0, 825.0, 826.0, 827.0, 825.0, 827.0, 828.0, 829.0, 832.0, 828.0, 833.0, 828.0, 829.0, 823.0, 826.0, 823.0, 825.0, 828.0, 830.0, 826.0, 825.0, 829.0, 825.0, 825.0, 825.0, 828.0, 823.0, 825.0, 823.0, 830.0, 828.0, 829.0, 827.0, 830.0, 826.0, 828.0, 827.0, 827.0, 824.0, 828.0, 825.0, 827.0, 826.0, 828.0, 828.0, 823.0, 824.0, 826.0, 822.0, 827.0, 825.0, 826.0, 823.0, 826.0, 823.0, 824.0, 823.0, 826.0, 823.0, 828.0, 827.0, 825.0, 828.0, 825.0, 824.0, 828.0, 823.0, 825.0, 823.0, 823.0, 820.0, 821.0, 824.0, 820.0, 825.0, 821.0, 822.0, 820.0, 823.0, 827.0, 827.0, 827.0, 825.0, 830.0, 827.0, 828.0, 824.0, 830.0, 826.0, 823.0, 826.0, 822.0, 826.0, 824.0, 826.0, 827.0, 828.0, 826.0, 825.0, 827.0, 825.0, 827.0, 825.0, 828.0, 827.0, 826.0, 828.0, 828.0, 825.0, 823.0, 827.0, 823.0, 825.0, 825.0, 827.0, 828.0, 826.0, 823.0, 826.0, 828.0, 823.0, 829.0, 824.0, 824.0, 821.0, 824.0, 826.0, 827.0, 830.0, 825.0, 828.0, 825.0, 824.0, 827.0, 823.0, 826.0, 827.0, 828.0, 826.0, 829.0, 825.0, 827.0, 824.0, 827.0, 825.0, 824.0, 829.0, 827.0, 827.0, 826.0, 828.0, 830.0, 824.0, 826.0, 828.0, 825.0, 827.0, 824.0, 829.0, 823.0, 825.0, 827.0, 823.0, 828.0, 827.0, 828.0, 823.0, 826.0, 824.0, 824.0, 830.0, 825.0, 826.0, 823.0, 827.0, 824.0, 823.0, 830.0, 826.0, 825.0, 824.0, 825.0, 823.0, 827.0, 824.0, 825.0, 827.0, 824.0, 824.0, 825.0, 829.0, 826.0, 829.0, 825.0, 829.0, 827.0, 827.0, 824.0, 828.0, 822.0, 823.0, 826.0, 825.0, 823.0, 824.0, 830.0, 824.0, 828.0, 828.0, 827.0, 824.0, 827.0, 825.0, 824.0, 827.0, 827.0, 827.0, 826.0, 829.0, 829.0, 825.0, 824.0, 824.0, 828.0, 824.0, 827.0, 823.0, 829.0, 826.0, 827.0, 824.0, 828.0, 827.0, 828.0, 825.0, 824.0, 823.0, 826.0, 823.0, 822.0, 819.0, 820.0, 817.0, 816.0, 820.0, 820.0, 821.0, 823.0, 824.0, 822.0, 824.0, 824.0, 826.0, 826.0, 823.0, 823.0, 827.0, 823.0, 822.0, 826.0, 822.0, 824.0, 824.0, 827.0, 825.0, 823.0, 825.0, 826.0, 823.0, 827.0, 824.0, 825.0, 822.0, 822.0, 827.0, 822.0, 822.0]
    },
    "slices": {}
  }
}