{
  "AcquisitionMatrixPE": 96,
  "AcquisitionNumber": 1,
  "AcquisitionTime": "18:37:48.732500",
  "BandwidthPerPixelPhaseEncode": 18.939,
  "BaseResolution": 96,
  "BodyPartExamined": "BRAIN",
  "ConsistencyInfo": "N4_VE11C_LATEST_20160120",
  "ConversionSoftware": "dcm2niix",
  "ConversionSoftwareVersion": "v1.0.20170923 (OpenJPEG build) GCC6.3.0",
  "DerivedVendorReportedEchoSpacing": 0.000550011,
  "DeviceSerialNumber": "66112",
  "DwellTime": 2.3e-06,
  "EchoTime": 0.033,
  "EchoTrainLength": 96,
  "EffectiveEchoSpacing": 0.000550011,
  "FlipAngle": 64,
  "ImageType": [
    "ORIGINAL",
    "PRIMARY",
    "FMRI",
    "NONE",
    "ND",
    "NORM",
    "MOSAIC"
],
  "InstitutionAddress": "Maynard_3_Hanover_NH_US_03755",
  "InstitutionName": "Dartmouth_College_-_PBS",
  "MagneticFieldStrength": 3,
  "Manufacturer": "Siemens",
  "ManufacturersModelName": "Prisma",
  "Modality": "MR",
  "MultibandAccelerationFactor": 4,
  "PartialFourier": 1,
  "PercentPhaseFOV": 100,
  "PhaseEncodingDirection": "j-",
  "PhaseEncodingSteps": 96,
  "PhaseResolution": 1,
  "ProcedureStepDescription": "Gobbini_Matteo_1017_famface-angles",
  "ProtocolName": "func_run-08_task-str1back",
  "PulseSequenceDetails": "%SiemensSeq%_ep2d_bold",
  "ReceiveCoilActiveElements": "HEA;HEP",
  "ReceiveCoilName": "Head_32",
  "ReconMatrixPE": 96,
  "RepetitionTime": 1.25,
  "ScanOptions": "FS",
  "ScanningSequence": "EP",
  "SequenceName": "_epfid2d1_96",
  "SequenceVariant": "SK",
  "SeriesDescription": "func_run-08_task-str1back",
  "SliceTiming": [0.88, 0, 0.615, 0.09, 0.705, 0.1775, 0.7925, 0.3525, 0.9675, 0.44, 1.055, 0.5275, 1.1425, 0.265, 0.88, 0, 0.615, 0.09, 0.705, 0.1775, 0.7925, 0.3525, 0.9675, 0.44, 1.055, 0.5275, 1.1425, 0.265, 0.88, 0, 0.615, 0.09, 0.705, 0.1775, 0.7925, 0.3525, 0.9675, 0.44, 1.055, 0.5275, 1.1425, 0.265, 0.88, 0, 0.615, 0.09, 0.705, 0.1775, 0.7925, 0.3525, 0.9675, 0.44, 1.055, 0.5275, 1.1425, 0.265],
  "SoftwareVersions": "syngo_MR_E11",
  "StationName": "AWP66112",
  "TaskName": "str1back",
  "TotalReadoutTime": 0.0522511,
  "dcmmeta_affine": [
    [-2.4971632957458496, -0.0091524887830019, 0.11870690435171127, 119.09539031982422],
    [0.000586063542868942, 2.4916269779205322, 0.2044370025396347, -100.85292053222656],
    [0.11905777454376221, -0.20423287153244019, 2.488797664642334, -62.45531463623047],
    [0.0, 0.0, 0.0, 1.0]
],
  "dcmmeta_reorient_transform": [
    [0.0, -1.0, 0.0, 95.0],
    [1.0, 0.0, 0.0, 0.0],
    [0.0, 0.0, 1.0, 0.0],
    [0.0, 0.0, 0.0, 1.0]
],
  "dcmmeta_shape": [96, 96, 56, 280],
  "dcmmeta_slice_dim": 2,
  "dcmmeta_version": 0.6,
  "global": {
    "const": {
      "AccessionNumber": "A000312",
      "AcquisitionMatrix": [96, 0, 0, 96],
      "AngioFlag": "N",
      "BitsAllocated": 16,
      "BitsStored": 12,
      "BodyPartExamined": "BRAIN",
      "Columns": 768,
      "EchoNumbers": 1,
      "EchoTime": 33.0,
      "EchoTrainLength": 96,
      "FlipAngle": 64.0,
      "HighBit": 11,
      "ImageOrientationPatient": [0.99886534848893, -0.0002344254137, 0.04762311028085, -0.0036609953967, 0.99665080491849, 0.08169314639571],
      "ImagePositionPatient": [-954.19756079492, -972.84140157072, -190.48309157795],
      "ImageType": [
        "ORIGINAL",
        "PRIMARY",
        "FMRI",
        "NONE",
        "ND",
        "NORM",
        "MOSAIC"
],
      "ImagedNucleus": "1H",
      "ImagingFrequency": 123.252368,
      "InPlanePhaseEncodingDirection": "COL",
      "MRAcquisitionType": "2D",
      "MagneticFieldStrength": 3.0,
      "Manufacturer": "SIEMENS",
      "ManufacturerModelName": "Prisma",
      "Modality": "MR",
      "NumberOfAverages": 1.0,
      "NumberOfPhaseEncodingSteps": 96,
      "PercentPhaseFieldOfView": 100.0,
      "PercentSampling": 100.0,
      "PerformedProcedureStepStartTime": "174326.131000",
      "PhotometricInterpretation": "MONOCHROME2",
      "PixelBandwidth": 2265.0,
      "PixelRepresentation": 0,
      "PixelSpacing": [2.5, 2.5],
      "PositionReferenceIndicator": "",
      "ProtocolName": "func_run-08_task-str1back",
      "RepetitionTime": 1250.0,
      "Rows": 768,
      "SAR": 0.05659369429771,
      "SamplesPerPixel": 1,
      "ScanOptions": "FS",
      "ScanningSequence": "EP",
      "SequenceName": "*epfid2d1_96",
      "SequenceVariant": "SK",
      "SeriesDescription": "func_run-08_task-str1back",
      "SeriesNumber": 57,
      "SeriesTime": "183750.626000",
      "SliceLocation": -64.767707043399,
      "SliceThickness": 2.5,
      "SmallestImagePixelValue": 0,
      "SoftwareVersions": "syngo MR E11",
      "SpacingBetweenSlices": 2.4999999530028,
      "SpecificCharacterSet": "ISO_IR 100",
      "StudyID": "2",
      "StudyTime": "174326.083000",
      "TransmitCoilName": "Body",
      "VariableFlipAngleFlag": "N",
      "WindowCenterWidthExplanation": "Algo1",
      "dBdt": 0.0},
    "slices": {}
  },
  "time": {
    "samples": {
      "AcquisitionNumber": [1, 2, 3, 4, 5, 6, 7, 8, 9, 10, 11, 12, 13, 14, 15, 16, 17, 18, 19, 20, 21, 22, 23, 24, 25, 26, 27, 28, 29, 30, 31, 32, 33, 34, 35, 36, 37, 38, 39, 40, 41, 42, 43, 44, 45, 46, 47, 48, 49, 50, 51, 52, 53, 54, 55, 56, 57, 58, 59, 60, 61, 62, 63, 64, 65, 66, 67, 68, 69, 70, 71, 72, 73, 74, 75, 76, 77, 78, 79, 80, 81, 82, 83, 84, 85, 86, 87, 88, 89, 90, 91, 92, 93, 94, 95, 96, 97, 98, 99, 100, 101, 102, 103, 104, 105, 106, 107, 108, 109, 110, 111, 112, 113, 114, 115, 116, 117, 118, 119, 120, 121, 122, 123, 124, 125, 126, 127, 128, 129, 130, 131, 132, 133, 134, 135, 136, 137, 138, 139, 140, 141, 142, 143, 144, 145, 146, 147, 148, 149, 150, 151, 152, 153, 154, 155, 156, 157, 158, 159, 160, 161, 162, 163, 164, 165, 166, 167, 168, 169, 170, 171, 172, 173, 174, 175, 176, 177, 178, 179, 180, 181, 182, 183, 184, 185, 186, 187, 188, 189, 190, 191, 192, 193, 194, 195, 196, 197, 198, 199, 200, 201, 202, 203, 204, 205, 206, 207, 208, 209, 210, 211, 212, 213, 214, 215, 216, 217, 218, 219, 220, 221, 222, 223, 224, 225, 226, 227, 228, 229, 230, 231, 232, 233, 234, 235, 236, 237, 238, 239, 240, 241, 242, 243, 244, 245, 246, 247, 248, 249, 250, 251, 252, 253, 254, 255, 256, 257, 258, 259, 260, 261, 262, 263, 264, 265, 266, 267, 268, 269, 270, 271, 272, 273, 274, 275, 276, 277, 278, 279, 280],
      "AcquisitionTime": ["183748.732500", "183749.982500", "183751.232500", "183752.482500", "183753.732500", "183754.982500", "183756.232500", "183757.482500", "183758.732500", "183759.982500", "183801.232500", "183802.482500", "183803.732500", "183804.982500", "183806.232500", "183807.482500", "183808.732500", "183809.982500", "183811.232500", "183812.482500", "183813.732500", "183814.982500", "183816.232500", "183817.482500", "183818.732500", "183819.982500", "183821.232500", "183822.482500", "183823.732500", "183824.982500", "183826.232500", "183827.482500", "183828.732500", "183829.982500", "183831.232500", "183832.482500", "183833.732500", "183834.982500", "183836.232500", "183837.482500", "183838.732500", "183839.982500", "183841.232500", "183842.482500", "183843.732500", "183844.982500", "183846.232500", "183847.482500", "183848.732500", "183849.982500", "183851.232500", "183852.482500", "183853.732500", "183854.982500", "183856.232500", "183857.482500", "183858.732500", "183859.982500", "183901.232500", "183902.482500", "183903.732500", "183904.982500", "183906.232500", "183907.482500", "183908.732500", "183909.982500", "183911.232500", "183912.482500", "183913.732500", "183914.982500", "183916.232500", "183917.482500", "183918.732500", "183919.982500", "183921.232500", "183922.482500", "183923.732500", "183924.982500", "183926.232500", "183927.482500", "183928.732500", "183929.982500", "183931.232500", "183932.482500", "183933.732500", "183934.982500", "183936.232500", "183937.482500", "183938.732500", "183939.982500", "183941.232500", "183942.482500", "183943.732500", "183944.982500", "183946.232500", "183947.482500", "183948.732500", "183949.982500", "183951.232500", "183952.482500", "183953.732500", "183954.982500", "183956.232500", "183957.482500", "183958.732500", "183959.982500", "184001.232500", "184002.482500", "184003.732500", "184004.982500", "184006.232500", "184007.482500", "184008.732500", "184009.982500", "184011.232500", "184012.482500", "184013.732500", "184014.982500", "184016.232500", "184017.482500", "184018.732500", "184019.982500", "184021.232500", "184022.482500", "184023.732500", "184024.982500", "184026.232500", "184027.482500", "184028.732500", "184029.982500", "184031.232500", "184032.482500", "184033.732500", "184034.982500", "184036.232500", "184037.482500", "184038.732500", "184039.982500", "184041.232500", "184042.482500", "184043.732500", "184044.982500", "184046.232500", "184047.482500", "184048.732500", "184049.982500", "184051.232500", "184052.482500", "184053.732500", "184054.982500", "184056.232500", "184057.482500", "184058.732500", "184059.982500", "184101.232500", "184102.482500", "184103.732500", "184104.982500", "184106.232500", "184107.482500", "184108.732500", "184109.982500", "184111.232500", "184112.482500", "184113.732500", "184114.982500", "184116.232500", "184117.482500", "184118.732500", "184119.982500", "184121.232500", "184122.482500", "184123.732500", "184124.982500", "184126.232500", "184127.482500", "184128.732500", "184129.982500", "184131.232500", "184132.482500", "184133.732500", "184134.982500", "184136.232500", "184137.482500", "184138.732500", "184139.982500", "184141.232500", "184142.482500", "184143.732500", "184144.982500", "184146.232500", "184147.482500", "184148.732500", "184149.982500", "184151.232500", "184152.482500", "184153.732500", "184154.982500", "184156.232500", "184157.482500", "184158.732500", "184159.982500", "184201.232500", "184202.482500", "184203.732500", "184204.982500", "184206.232500", "184207.482500", "184208.732500", "184209.982500", "184211.232500", "184212.482500", "184213.732500", "184214.982500", "184216.232500", "184217.482500", "184218.732500", "184219.982500", "184221.232500", "184222.482500", "184223.732500", "184224.982500", "184226.232500", "184227.482500", "184228.732500", "184229.982500", "184231.232500", "184232.482500", "184233.732500", "184234.982500", "184236.232500", "184237.482500", "184238.732500", "184239.982500", "184241.232500", "184242.482500", "184243.732500", "184244.982500", "184246.232500", "184247.482500", "184248.732500", "184249.982500", "184251.232500", "184252.482500", "184253.732500", "184254.982500", "184256.232500", "184257.482500", "184258.732500", "184259.982500", "184301.232500", "184302.482500", "184303.732500", "184304.982500", "184306.232500", "184307.482500", "184308.732500", "184309.982500", "184311.232500", "184312.482500", "184313.732500", "184314.982500", "184316.232500", "184317.482500", "184318.732500", "184319.982500", "184321.232500", "184322.482500", "184323.732500", "184324.982500", "184326.232500", "184327.482500", "184328.732500", "184329.982500", "184331.232500", "184332.482500", "184333.732500", "184334.982500", "184336.232500", "184337.482500"],
      "ContentTime": ["183750.630000", "183751.714000", "183752.946000", "183754.186000", "183755.459000", "183756.684000", "183757.963000", "183759.204000", "183800.453000", "183801.690000", "183803.011000", "183804.177000", "183805.454000", "183806.705000", "183807.962000", "183809.190000", "183810.426000", "183811.683000", "183812.978000", "183814.188000", "183815.464000", "183816.707000", "183817.924000", "183819.187000", "183820.454000", "183821.713000", "183822.926000", "183824.202000", "183825.446000", "183826.712000", "183827.945000", "183829.199000", "183830.431000", "183831.709000", "183832.950000", "183834.201000", "183835.466000", "183836.672000", "183837.942000", "183839.182000", "183840.434000", "183841.707000", "183842.990000", "183844.195000", "183845.457000", "183846.696000", "183847.946000", "183849.174000", "183850.442000", "183851.716000", "183852.960000", "183854.197000", "183855.445000", "183856.698000", "183857.955000", "183859.189000", "183900.440000", "183901.654000", "183902.939000", "183904.225000", "183905.430000", "183906.692000", "183907.947000", "183909.183000", "183910.499000", "183911.713000", "183912.934000", "183914.201000", "183915.458000", "183916.711000", "183917.961000", "183919.196000", "183920.450000", "183921.694000", "183923.024000", "183924.191000", "183925.430000", "183926.692000", "183927.957000", "183929.203000", "183930.470000", "183931.719000", "183932.972000", "183934.229000", "183935.437000", "183936.693000", "183937.942000", "183939.170000", "183940.459000", "183941.674000", "183942.926000", "183944.202000", "183945.447000", "183946.715000", "183947.952000", "183949.176000", "183950.460000", "183951.695000", "183952.952000", "183954.171000", "183955.442000", "183956.689000", "183957.967000", "183959.213000", "184000.462000", "184001.731000", "184002.949000", "184004.192000", "184005.461000", "184006.719000", "184007.969000", "184009.211000", "184010.449000", "184011.702000", "184012.993000", "184014.221000", "184015.463000", "184016.712000", "184017.963000", "184019.258000", "184020.455000", "184021.687000", "184022.974000", "184024.228000", "184025.447000", "184026.712000", "184027.938000", "184029.183000", "184030.447000", "184031.700000", "184032.929000", "184034.214000", "184035.455000", "184036.707000", "184037.941000", "184039.195000", "184040.447000", "184041.690000", "184042.950000", "184044.214000", "184045.451000", "184046.668000", "184047.960000", "184049.208000", "184050.543000", "184051.725000", "184052.975000", "184054.207000", "184055.460000", "184056.704000", "184057.950000", "184059.213000", "184100.494000", "184101.720000", "184102.954000", "184104.219000", "184105.472000", "184106.712000", "184107.922000", "184109.204000", "184110.458000", "184111.702000", "184112.956000", "184114.205000", "184115.445000", "184116.710000", "184117.969000", "184119.243000", "184120.450000", "184121.713000", "184122.961000", "184124.212000", "184125.458000", "184126.700000", "184127.932000", "184129.209000", "184130.451000", "184131.714000", "184132.954000", "184134.197000", "184135.443000", "184136.737000", "184137.939000", "184139.191000", "184140.438000", "184141.693000", "184142.979000", "184144.206000", "184145.454000", "184146.692000", "184148.013000", "184149.227000", "184150.470000", "184151.707000", "184152.955000", "184154.224000", "184155.465000", "184156.703000", "184157.956000", "184159.242000", "184200.458000", "184201.720000", "184202.948000", "184204.278000", "184205.446000", "184206.703000", "184207.947000", "184209.207000", "184210.456000", "184211.707000", "184213.001000", "184214.189000", "184215.452000", "184216.688000", "184217.953000", "184219.258000", "184220.459000", "184221.720000", "184222.959000", "184224.205000", "184225.458000", "184226.711000", "184227.931000", "184229.214000", "184230.440000", "184231.699000", "184232.953000", "184234.209000", "184235.468000", "184236.708000", "184237.940000", "184239.251000", "184240.496000", "184241.703000", "184242.948000", "184244.197000", "184245.475000", "184246.723000", "184247.948000", "184249.207000", "184250.477000", "184251.685000", "184252.968000", "184254.212000", "184255.440000", "184256.690000", "184257.961000", "184259.217000", "184300.454000", "184301.708000", "184302.953000", "184304.207000", "184305.452000", "184306.673000", "184307.950000", "184309.199000", "184310.455000", "184311.729000", "184312.946000", "184314.218000", "184315.472000", "184316.711000", "184317.955000", "184319.198000", "184320.441000", "184321.687000", "184323.022000", "184324.169000", "184325.444000", "184326.711000", "184327.964000", "184329.255000", "184330.494000", "184331.685000", "184332.948000", "184334.217000", "184335.444000", "184336.712000", "184337.947000", "184339.264000"],
      "InstanceCreationTime": ["183750.630000", "183751.714000", "183752.946000", "183754.186000", "183755.459000", "183756.684000", "183757.963000", "183759.204000", "183800.453000", "183801.690000", "183803.011000", "183804.177000", "183805.454000", "183806.705000", "183807.962000", "183809.190000", "183810.426000", "183811.683000", "183812.978000", "183814.188000", "183815.464000", "183816.707000", "183817.924000", "183819.187000", "183820.454000", "183821.713000", "183822.926000", "183824.202000", "183825.446000", "183826.712000", "183827.945000", "183829.199000", "183830.431000", "183831.709000", "183832.950000", "183834.201000", "183835.466000", "183836.672000", "183837.942000", "183839.182000", "183840.434000", "183841.707000", "183842.990000", "183844.195000", "183845.457000", "183846.696000", "183847.946000", "183849.174000", "183850.442000", "183851.716000", "183852.960000", "183854.197000", "183855.445000", "183856.698000", "183857.955000", "183859.189000", "183900.440000", "183901.654000", "183902.939000", "183904.225000", "183905.430000", "183906.692000", "183907.947000", "183909.183000", "183910.499000", "183911.713000", "183912.934000", "183914.201000", "183915.458000", "183916.711000", "183917.961000", "183919.196000", "183920.450000", "183921.694000", "183923.024000", "183924.191000", "183925.430000", "183926.692000", "183927.957000", "183929.203000", "183930.470000", "183931.719000", "183932.972000", "183934.229000", "183935.437000", "183936.693000", "183937.942000", "183939.170000", "183940.459000", "183941.674000", "183942.926000", "183944.202000", "183945.447000", "183946.715000", "183947.952000", "183949.176000", "183950.460000", "183951.695000", "183952.952000", "183954.171000", "183955.442000", "183956.689000", "183957.967000", "183959.213000", "184000.462000", "184001.731000", "184002.949000", "184004.192000", "184005.461000", "184006.719000", "184007.969000", "184009.211000", "184010.449000", "184011.702000", "184012.993000", "184014.221000", "184015.463000", "184016.712000", "184017.963000", "184019.258000", "184020.455000", "184021.687000", "184022.974000", "184024.228000", "184025.447000", "184026.712000", "184027.938000", "184029.183000", "184030.447000", "184031.700000", "184032.929000", "184034.214000", "184035.455000", "184036.707000", "184037.941000", "184039.195000", "184040.447000", "184041.690000", "184042.950000", "184044.214000", "184045.451000", "184046.668000", "184047.960000", "184049.208000", "184050.543000", "184051.725000", "184052.975000", "184054.207000", "184055.460000", "184056.704000", "184057.950000", "184059.213000", "184100.494000", "184101.720000", "184102.954000", "184104.219000", "184105.472000", "184106.712000", "184107.922000", "184109.204000", "184110.458000", "184111.702000", "184112.956000", "184114.205000", "184115.445000", "184116.710000", "184117.969000", "184119.243000", "184120.450000", "184121.713000", "184122.961000", "184124.212000", "184125.458000", "184126.700000", "184127.932000", "184129.209000", "184130.451000", "184131.714000", "184132.954000", "184134.197000", "184135.443000", "184136.737000", "184137.939000", "184139.191000", "184140.438000", "184141.693000", "184142.979000", "184144.206000", "184145.454000", "184146.692000", "184148.013000", "184149.227000", "184150.470000", "184151.707000", "184152.955000", "184154.224000", "184155.465000", "184156.703000", "184157.956000", "184159.242000", "184200.458000", "184201.720000", "184202.948000", "184204.278000", "184205.446000", "184206.703000", "184207.947000", "184209.207000", "184210.456000", "184211.707000", "184213.001000", "184214.189000", "184215.452000", "184216.688000", "184217.953000", "184219.258000", "184220.459000", "184221.720000", "184222.959000", "184224.205000", "184225.458000", "184226.711000", "184227.931000", "184229.214000", "184230.440000", "184231.699000", "184232.953000", "184234.209000", "184235.468000", "184236.708000", "184237.940000", "184239.251000", "184240.496000", "184241.703000", "184242.948000", "184244.197000", "184245.475000", "184246.723000", "184247.948000", "184249.207000", "184250.477000", "184251.685000", "184252.968000", "184254.212000", "184255.440000", "184256.690000", "184257.961000", "184259.217000", "184300.454000", "184301.708000", "184302.953000", "184304.207000", "184305.452000", "184306.673000", "184307.950000", "184309.199000", "184310.455000", "184311.729000", "184312.946000", "184314.218000", "184315.472000", "184316.711000", "184317.955000", "184319.198000", "184320.441000", "184321.687000", "184323.022000", "184324.169000", "184325.444000", "184326.711000", "184327.964000", "184329.255000", "184330.494000", "184331.685000", "184332.948000", "184334.217000", "184335.444000", "184336.712000", "184337.947000", "184339.264000"],
      "InstanceNumber": [1, 2, 3, 4, 5, 6, 7, 8, 9, 10, 11, 12, 13, 14, 15, 16, 17, 18, 19, 20, 21, 22, 23, 24, 25, 26, 27, 28, 29, 30, 31, 32, 33, 34, 35, 36, 37, 38, 39, 40, 41, 42, 43, 44, 45, 46, 47, 48, 49, 50, 51, 52, 53, 54, 55, 56, 57, 58, 59, 60, 61, 62, 63, 64, 65, 66, 67, 68, 69, 70, 71, 72, 73, 74, 75, 76, 77, 78, 79, 80, 81, 82, 83, 84, 85, 86, 87, 88, 89, 90, 91, 92, 93, 94, 95, 96, 97, 98, 99, 100, 101, 102, 103, 104, 105, 106, 107, 108, 109, 110, 111, 112, 113, 114, 115, 116, 117, 118, 119, 120, 121, 122, 123, 124, 125, 126, 127, 128, 129, 130, 131, 132, 133, 134, 135, 136, 137, 138, 139, 140, 141, 142, 143, 144, 145, 146, 147, 148, 149, 150, 151, 152, 153, 154, 155, 156, 157, 158, 159, 160, 161, 162, 163, 164, 165, 166, 167, 168, 169, 170, 171, 172, 173, 174, 175, 176, 177, 178, 179, 180, 181, 182, 183, 184, 185, 186, 187, 188, 189, 190, 191, 192, 193, 194, 195, 196, 197, 198, 199, 200, 201, 202, 203, 204, 205, 206, 207, 208, 209, 210, 211, 212, 213, 214, 215, 216, 217, 218, 219, 220, 221, 222, 223, 224, 225, 226, 227, 228, 229, 230, 231, 232, 233, 234, 235, 236, 237, 238, 239, 240, 241, 242, 243, 244, 245, 246, 247, 248, 249, 250, 251, 252, 253, 254, 255, 256, 257, 258, 259, 260, 261, 262, 263, 264, 265, 266, 267, 268, 269, 270, 271, 272, 273, 274, 275, 276, 277, 278, 279, 280],
      "LargestImagePixelValue": [1305, 1251, 949, 1246, 1270, 950, 1286, 1298, 1487, 1123, 1227, 870, 1057, 816, 851, 855, 1069, 905, 960, 1077, 1270, 904, 823, 1112, 852, 1032, 902, 1384, 817, 991, 1272, 855, 787, 994, 1250, 967, 807, 874, 1165, 834, 929, 884, 1235, 1147, 959, 1494, 913, 1203, 943, 933, 878, 1297, 896, 922, 983, 1008, 799, 858, 1280, 954, 830, 988, 1305, 871, 1324, 1392, 1024, 822, 987, 801, 856, 1272, 935, 1134, 807, 834, 1172, 848, 1007, 803, 1032, 1095, 1270, 1145, 944, 1333, 1463, 851, 1256, 1337, 1250, 886, 1134, 842, 961, 782, 843, 1030, 845, 1117, 899, 968, 1386, 988, 1243, 1297, 994, 905, 1390, 910, 1163, 987, 1011, 869, 1099, 825, 1185, 902, 1000, 957, 1014, 833, 1239, 969, 855, 1150, 825, 950, 838, 1230, 990, 1003, 1389, 837, 979, 785, 883, 822, 1204, 1050, 973, 1213, 1209, 835, 1404, 1251, 978, 933, 848, 1252, 1421, 1117, 958, 1008, 817, 918, 1175, 881, 1180, 1172, 1353, 851, 926, 1136, 876, 839, 1003, 848, 838, 1016, 888, 977, 857, 948, 1145, 865, 862, 1092, 817, 888, 1189, 1064, 1451, 930, 981, 1512, 1043, 1043, 1112, 1232, 1147, 858, 1084, 846, 992, 1213, 893, 1317, 1016, 1190, 793, 944, 982, 879, 1308, 951, 888, 996, 861, 1120, 841, 964, 1168, 859, 1485, 1015, 1048, 824, 1366, 1002, 928, 1476, 838, 845, 975, 900, 1172, 866, 1177, 953, 1378, 928, 1049, 1317, 838, 1076, 856, 1114, 842, 1239, 1000, 879, 967, 767, 838, 1169, 833, 1066, 1028, 1235, 1280, 974, 1456, 930, 1122, 1344, 937, 950, 1200, 992, 959, 1409, 842, 977, 836, 942, 984, 864, 1212, 1039, 1248, 909, 1020, 1138, 845, 978, 796, 841, 1128, 899],
      "WindowCenter": [394.0, 393.0, 390.0, 391.0, 389.0, 386.0, 388.0, 388.0, 388.0, 385.0, 386.0, 384.0, 385.0, 383.0, 385.0, 387.0, 388.0, 387.0, 388.0, 389.0, 390.0, 387.0, 387.0, 390.0, 388.0, 389.0, 388.0, 391.0, 387.0, 389.0, 390.0, 387.0, 386.0, 388.0, 390.0, 388.0, 386.0, 388.0, 390.0, 387.0, 388.0, 388.0, 390.0, 390.0, 388.0, 391.0, 387.0, 389.0, 387.0, 387.0, 387.0, 390.0, 387.0, 387.0, 388.0, 388.0, 386.0, 386.0, 390.0, 387.0, 387.0, 388.0, 390.0, 387.0, 390.0, 390.0, 387.0, 385.0, 387.0, 386.0, 387.0, 390.0, 388.0, 389.0, 386.0, 386.0, 389.0, 388.0, 390.0, 389.0, 391.0, 390.0, 390.0, 388.0, 387.0, 389.0, 390.0, 385.0, 389.0, 389.0, 389.0, 385.0, 388.0, 385.0, 386.0, 385.0, 386.0, 389.0, 388.0, 390.0, 388.0, 388.0, 391.0, 388.0, 390.0, 389.0, 387.0, 386.0, 390.0, 386.0, 388.0, 387.0, 387.0, 386.0, 389.0, 386.0, 389.0, 386.0, 387.0, 387.0, 388.0, 386.0, 390.0, 387.0, 386.0, 388.0, 385.0, 387.0, 386.0, 389.0, 387.0, 387.0, 389.0, 385.0, 387.0, 385.0, 387.0, 387.0, 391.0, 389.0, 387.0, 389.0, 388.0, 385.0, 389.0, 388.0, 386.0, 386.0, 386.0, 391.0, 391.0, 388.0, 388.0, 389.0, 386.0, 387.0, 389.0, 387.0, 389.0, 388.0, 388.0, 384.0, 383.0, 385.0, 383.0, 382.0, 385.0, 384.0, 384.0, 387.0, 386.0, 388.0, 386.0, 387.0, 388.0, 386.0, 386.0, 389.0, 388.0, 389.0, 392.0, 390.0, 392.0, 389.0, 389.0, 393.0, 389.0, 389.0, 389.0, 390.0, 389.0, 387.0, 389.0, 388.0, 389.0, 390.0, 388.0, 390.0, 388.0, 389.0, 386.0, 387.0, 387.0, 387.0, 390.0, 387.0, 386.0, 387.0, 386.0, 389.0, 387.0, 388.0, 390.0, 387.0, 391.0, 388.0, 388.0, 386.0, 390.0, 387.0, 387.0, 390.0, 385.0, 385.0, 387.0, 387.0, 390.0, 388.0, 390.0, 388.0, 391.0, 387.0, 388.0, 389.0, 386.0, 388.0, 386.0, 389.0, 387.0, 390.0, 388.0, 386.0, 387.0, 385.0, 387.0, 390.0, 388.0, 390.0, 390.0, 390.0, 390.0, 387.0, 390.0, 387.0, 388.0, 389.0, 386.0, 386.0, 388.0, 386.0, 386.0, 389.0, 385.0, 386.0, 386.0, 387.0, 387.0, 387.0, 390.0, 388.0, 389.0, 386.0, 387.0, 388.0, 385.0, 387.0, 386.0, 387.0, 390.0, 387.0],
      "WindowWidth": [836.0, 834.0, 829.0, 829.0, 827.0, 822.0, 825.0, 823.0, 824.0, 819.0, 819.0, 818.0, 819.0, 817.0, 820.0, 823.0, 825.0, 824.0, 825.0, 826.0, 827.0, 824.0, 824.0, 828.0, 825.0, 827.0, 825.0, 829.0, 823.0, 826.0, 828.0, 823.0, 823.0, 825.0, 828.0, 825.0, 823.0, 825.0, 827.0, 823.0, 825.0, 825.0, 828.0, 827.0, 825.0, 829.0, 823.0, 826.0, 823.0, 824.0, 823.0, 828.0, 823.0, 823.0, 825.0, 825.0, 822.0, 822.0, 827.0, 824.0, 823.0, 825.0, 828.0, 823.0, 827.0, 826.0, 823.0, 821.0, 823.0, 821.0, 823.0, 827.0, 824.0, 826.0, 821.0, 822.0, 827.0, 825.0, 828.0, 827.0, 830.0, 829.0, 828.0, 825.0, 823.0, 826.0, 826.0, 821.0, 825.0, 826.0, 825.0, 820.0, 823.0, 819.0, 822.0, 821.0, 822.0, 826.0, 825.0, 828.0, 825.0, 826.0, 829.0, 825.0, 827.0, 826.0, 823.0, 822.0, 827.0, 822.0, 825.0, 822.0, 823.0, 822.0, 825.0, 823.0, 826.0, 821.0, 822.0, 823.0, 824.0, 823.0, 827.0, 823.0, 821.0, 824.0, 820.0, 823.0, 822.0, 826.0, 824.0, 823.0, 825.0, 820.0, 822.0, 821.0, 824.0, 824.0, 829.0, 826.0, 824.0, 826.0, 825.0, 820.0, 826.0, 824.0, 821.0, 821.0, 823.0, 829.0, 829.0, 825.0, 825.0, 826.0, 822.0, 824.0, 827.0, 823.0, 826.0, 825.0, 823.0, 817.0, 817.0, 819.0, 815.0, 815.0, 818.0, 817.0, 819.0, 823.0, 822.0, 824.0, 822.0, 822.0, 825.0, 821.0, 822.0, 826.0, 825.0, 827.0, 831.0, 828.0, 831.0, 826.0, 826.0, 832.0, 826.0, 826.0, 826.0, 827.0, 826.0, 823.0, 826.0, 825.0, 827.0, 829.0, 824.0, 828.0, 824.0, 826.0, 821.0, 824.0, 824.0, 823.0, 828.0, 823.0, 822.0, 823.0, 822.0, 826.0, 824.0, 825.0, 827.0, 823.0, 829.0, 824.0, 824.0, 821.0, 827.0, 823.0, 822.0, 827.0, 820.0, 821.0, 823.0, 824.0, 829.0, 826.0, 829.0, 826.0, 829.0, 824.0, 825.0, 826.0, 821.0, 824.0, 822.0, 827.0, 824.0, 827.0, 824.0, 822.0, 823.0, 820.0, 824.0, 829.0, 825.0, 829.0, 828.0, 827.0, 827.0, 823.0, 827.0, 823.0, 824.0, 825.0, 821.0, 821.0, 824.0, 822.0, 821.0, 826.0, 819.0, 822.0, 822.0, 824.0, 824.0, 823.0, 827.0, 824.0, 826.0, 821.0, 822.0, 824.0, 820.0, 823.0, 822.0, 824.0, 827.0, 824.0]
    },
    "slices": {}
  }
}